40.0000 55.7227
40.0500 28.6826
40.1000 26.5738
40.1500 38.7486
40.2000 33.6936
40.2500 31.8630
40.3000 31.8983
40.3500 41.7402
40.4000 33.4792
40.4500 22.2887
40.5000 35.7699
40.5500 42.1490
40.6000 44.8900
40.6500 36.4175
40.7000 34.5694
40.7500 29.5307
40.8000 33.2739
40.8500 26.0808
40.9000 39.9849
40.9500 32.3165
41.0000 33.8258
41.0500 39.5047
41.1000 31.2530
41.1500 48.0634
41.2000 40.8305
41.2500 39.2888
41.3000 25.9343
41.3500 39.6463
41.4000 32.8849
41.4500 35.4859
41.5000 48.3811
41.5500 31.0980
41.6000 32.4965
41.6500 41.6645
41.7000 36.2580
41.7500 34.6665
41.8000 43.3601
41.8500 30.7606
41.9000 36.3024
41.9500 36.7460
42.0000 40.9979
42.0500 36.8856
42.1000 31.0777
42.1500 35.2813
42.2000 39.0704
42.2500 35.9462
42.3000 33.3761
42.3500 34.9170
42.4000 33.0687
42.4500 34.6104
42.5000 43.2619
42.5500 33.5463
42.6000 27.6201
42.6500 41.3789
42.7000 26.4052
42.7500 28.0191
42.8000 36.0090
42.8500 40.3983
42.9000 31.5457
42.9500 36.8714
43.0000 41.3278
43.0500 36.7346
43.1000 31.1982
43.1500 31.2780
43.2000 43.2909
43.2500 32.2588
43.3000 37.0040
43.3500 28.2428
43.4000 33.5423
43.4500 29.3802
43.5000 32.8600
43.5500 46.7686
43.6000 45.0218
43.6500 36.7472
43.7000 33.4313
43.7500 38.2312
43.8000 35.6677
43.8500 33.6251
43.9000 35.1907
43.9500 44.4648
44.0000 41.6606
44.0500 42.2970
44.1000 40.3743
44.1500 29.3650
44.2000 44.2563
44.2500 54.9992
44.3000 57.8887
44.3500 74.8963
44.4000 72.7155
44.4500 168.8584
44.5000 599.0967
44.5500 1606.9690
44.6000 2109.7893
44.6500 1372.2030
44.7000 469.6411
44.7500 151.6858
44.8000 80.5065
44.8500 60.9408
44.9000 48.1521
44.9500 51.4195
45.0000 36.7361
45.0500 46.4061
45.1000 42.3267
45.1500 31.9864
45.2000 34.2643
45.2500 31.6311
45.3000 40.1556
45.3500 26.0131
45.4000 37.9658
45.4500 34.7544
45.5000 32.3813
45.5500 31.7360
45.6000 33.5071
45.6500 31.6429
45.7000 32.6337
45.7500 28.9816
45.8000 31.7486
45.8500 34.3914
45.9000 33.6089
45.9500 39.6561
46.0000 42.4936
46.0500 37.2302
46.1000 35.7755
46.1500 39.7924
46.2000 26.9957
46.2500 25.9075
46.3000 20.8216
46.3500 43.3326
46.4000 33.3707
46.4500 31.6212
46.5000 35.7525
46.5500 35.6168
46.6000 36.0946
46.6500 34.0144
46.7000 37.6392
46.7500 44.9356
46.8000 29.6987
46.8500 35.5425
46.9000 21.8129
46.9500 27.0798
47.0000 25.8457
47.0500 33.4484
47.1000 34.7170
47.1500 35.0782
47.2000 32.2896
47.2500 31.3516
47.3000 40.0397
47.3500 39.7300
47.4000 37.5825
47.4500 37.7096
47.5000 38.0474
47.5500 23.2918
47.6000 27.9807
47.6500 24.2463
47.7000 32.6797
47.7500 41.1930
47.8000 29.2822
47.8500 42.3623
47.9000 35.9084
47.9500 31.7228
48.0000 37.6640
48.0500 32.7183
48.1000 27.7056
48.1500 24.5594
48.2000 27.3137
48.2500 32.8702
48.3000 42.7607
48.3500 19.8353
48.4000 28.5852
48.4500 21.6735
48.5000 32.5528
48.5500 32.2905
48.6000 38.8298
48.6500 35.9491
48.7000 29.2283
48.7500 35.1259
48.8000 32.5536
48.8500 32.4112
48.9000 27.5504
48.9500 29.4193
49.0000 22.2384
49.0500 31.5896
49.1000 33.8249
49.1500 36.4132
49.2000 30.4109
49.2500 20.0335
49.3000 25.9366
49.3500 37.1494
49.4000 25.1495
49.4500 22.8866
49.5000 27.5000
49.5500 28.2271
49.6000 28.2282
49.6500 24.2782
49.7000 24.7827
49.7500 30.1090
49.8000 39.8542
49.8500 34.5648
49.9000 29.2377
49.9500 29.1087
50.0000 22.5373
50.0500 35.6871
50.1000 23.4260
50.1500 38.9089
50.2000 48.8366
50.2500 38.8023
50.3000 29.7623
50.3500 25.1638
50.4000 31.7831
50.4500 28.5710
50.5000 24.3959
50.5500 29.4049
50.6000 32.7648
50.6500 28.2390
50.7000 33.6081
50.7500 42.0160
50.8000 39.4206
50.8500 34.5228
50.9000 32.7798
50.9500 26.7751
51.0000 29.9125
51.0500 27.0416
51.1000 22.2526
51.1500 27.9885
51.2000 29.1475
51.2500 35.6823
51.3000 26.4860
51.3500 30.0686
51.4000 33.1151
51.4500 25.9984
51.5000 26.6738
51.5500 27.2025
51.6000 20.7852
51.6500 30.9938
51.7000 35.1939
51.7500 28.9911
51.8000 32.2528
51.8500 29.6636
51.9000 29.7554
51.9500 20.8289
52.0000 31.9077
52.0500 26.1338
52.1000 38.3490
52.1500 31.8081
52.2000 38.3350
52.2500 25.0255
52.3000 24.5313
52.3500 24.1450
52.4000 34.2513
52.4500 26.3017
52.5000 29.6817
52.5500 31.9200
52.6000 35.2658
52.6500 28.4314
52.7000 19.0472
52.7500 31.6919
52.8000 28.1912
52.8500 31.0868
52.9000 33.6036
52.9500 35.9052
53.0000 33.6891
53.0500 25.9197
53.1000 32.9452
53.1500 34.3104
53.2000 33.2463
53.2500 32.8923
53.3000 33.4339
53.3500 27.4175
53.4000 37.8184
53.4500 33.3714
53.5000 33.4621
53.5500 26.1158
53.6000 29.0745
53.6500 32.6748
53.7000 32.8235
53.7500 24.8576
53.8000 28.5277
53.8500 25.8652
53.9000 39.6133
53.9500 41.9358
54.0000 35.7307
54.0500 31.3318
54.1000 32.4455
54.1500 28.2511
54.2000 36.0136
54.2500 33.1034
54.3000 26.5916
54.3500 34.0396
54.4000 29.0901
54.4500 46.4141
54.5000 44.7664
54.5500 39.4566
54.6000 26.9851
54.6500 19.8333
54.7000 30.0497
54.7500 30.5395
54.8000 28.9863
54.8500 24.2535
54.9000 34.6530
54.9500 22.5389
55.0000 33.7731
55.0500 35.7291
55.1000 38.0601
55.1500 25.1643
55.2000 32.3021
55.2500 24.0106
55.3000 27.8346
55.3500 21.5658
55.4000 34.8816
55.4500 17.0732
55.5000 32.2814
55.5500 25.7813
55.6000 26.7114
55.6500 35.7612
55.7000 28.0057
55.7500 25.4608
55.8000 39.8375
55.8500 42.7593
55.9000 34.2405
55.9500 31.0758
56.0000 26.4171
56.0500 32.2490
56.1000 29.1533
56.1500 26.0325
56.2000 32.7729
56.2500 27.0118
56.3000 43.3698
56.3500 32.0899
56.4000 30.4914
56.4500 37.6544
56.5000 37.1683
56.5500 33.8272
56.6000 45.7764
56.6500 38.7923
56.7000 30.6653
56.7500 32.7747
56.8000 26.6359
56.8500 29.6076
56.9000 23.3628
56.9500 28.2034
57.0000 26.8870
57.0500 39.4313
57.1000 23.9638
57.1500 42.5338
57.2000 39.2540
57.2500 35.5393
57.3000 28.6665
57.3500 28.4662
57.4000 31.2276
57.4500 35.3085
57.5000 28.1452
57.5500 28.6635
57.6000 29.5091
57.6500 24.4024
57.7000 35.8586
57.7500 33.9870
57.8000 24.9675
57.8500 35.1365
57.9000 24.4877
57.9500 31.2504
58.0000 32.8130
58.0500 25.7129
58.1000 32.5146
58.1500 33.0604
58.2000 46.6511
58.2500 21.2438
58.3000 28.1842
58.3500 32.2866
58.4000 27.2400
58.4500 31.2712
58.5000 29.6491
58.5500 25.1999
58.6000 34.3002
58.6500 27.2395
58.7000 29.7736
58.7500 26.6545
58.8000 26.9603
58.8500 22.5924
58.9000 28.0361
58.9500 23.9961
59.0000 36.9282
59.0500 24.7928
59.1000 28.8686
59.1500 26.9146
59.2000 36.8952
59.2500 25.8910
59.3000 23.8485
59.3500 27.2015
59.4000 30.1190
59.4500 21.4791
59.5000 23.0027
59.5500 26.1308
59.6000 26.3654
59.6500 28.4427
59.7000 35.6489
59.7500 30.1377
59.8000 30.9341
59.8500 43.2810
59.9000 23.3335
59.9500 31.6510
60.0000 36.6642
60.0500 28.6641
60.1000 39.3226
60.1500 25.4082
60.2000 22.0362
60.2500 27.6109
60.3000 35.2730
60.3500 38.2964
60.4000 19.7908
60.4500 31.7876
60.5000 31.2211
60.5500 27.3334
60.6000 34.9323
60.6500 20.4746
60.7000 28.6413
60.7500 19.8343
60.8000 29.3831
60.8500 36.5121
60.9000 31.7995
60.9500 18.3093
61.0000 21.6002
61.0500 23.7000
61.1000 25.9622
61.1500 22.3677
61.2000 24.7704
61.2500 31.8411
61.3000 30.1749
61.3500 27.2445
61.4000 28.2259
61.4500 20.0569
61.5000 25.9097
61.5500 38.3898
61.6000 30.5221
61.6500 29.6792
61.7000 25.5221
61.7500 35.8097
61.8000 32.3410
61.8500 24.6360
61.9000 32.1178
61.9500 21.3482
62.0000 24.7980
62.0500 28.6977
62.1000 18.8648
62.1500 25.9337
62.2000 26.7748
62.2500 29.5327
62.3000 35.5458
62.3500 27.1094
62.4000 18.8688
62.4500 26.3534
62.5000 29.6200
62.5500 21.4214
62.6000 22.1652
62.6500 23.9468
62.7000 31.0413
62.7500 33.0903
62.8000 25.4034
62.8500 31.9102
62.9000 29.4265
62.9500 24.1254
63.0000 30.2606
63.0500 35.4757
63.1000 35.7638
63.1500 37.7686
63.2000 48.7181
63.2500 41.8503
63.3000 36.4916
63.3500 26.9767
63.4000 39.8937
63.4500 36.1680
63.5000 25.1634
63.5500 33.4487
63.6000 26.0510
63.6500 40.0898
63.7000 31.1353
63.7500 36.5723
63.8000 30.7594
63.8500 36.2971
63.9000 30.8288
63.9500 23.6043
64.0000 22.8259
64.0500 27.7867
64.1000 25.0152
64.1500 27.8756
64.2000 31.3451
64.2500 29.4387
64.3000 30.9132
64.3500 33.3128
64.4000 42.1065
64.4500 29.8270
64.5000 31.4457
64.5500 28.0751
64.6000 30.9656
64.6500 53.9079
64.7000 50.2476
64.7500 123.1283
64.8000 278.4955
64.8500 319.3448
64.9000 202.5444
64.9500 113.1477
65.0000 67.0031
65.0500 56.6338
65.1000 33.7429
65.1500 33.3430
65.2000 16.8579
65.2500 19.9799
65.3000 31.0864
65.3500 33.6517
65.4000 44.6363
65.4500 27.0971
65.5000 37.2924
65.5500 21.7251
65.6000 25.9729
65.6500 16.9977
65.7000 42.6957
65.7500 27.7727
65.8000 26.8149
65.8500 28.4693
65.9000 24.1107
65.9500 27.4679
66.0000 39.3952
66.0500 20.3093
66.1000 31.3873
66.1500 36.0713
66.2000 37.8309
66.2500 26.4330
66.3000 30.1400
66.3500 31.7602
66.4000 27.4597
66.4500 26.5383
66.5000 21.8372
66.5500 26.0216
66.6000 26.3446
66.6500 20.3692
66.7000 28.4431
66.7500 29.9611
66.8000 30.1033
66.8500 23.5955
66.9000 47.4210
66.9500 35.0653
67.0000 48.8135
67.0500 25.1910
67.1000 37.9072
67.1500 33.5524
67.2000 29.9071
67.2500 23.0440
67.3000 27.4532
67.3500 30.3040
67.4000 27.5635
67.4500 23.1451
67.5000 25.0369
67.5500 37.4878
67.6000 25.7444
67.6500 29.5774
67.7000 21.1046
67.7500 35.3800
67.8000 26.4784
67.8500 23.5573
67.9000 27.9191
67.9500 42.7649
68.0000 37.5497
68.0500 23.2220
68.1000 16.4469
68.1500 30.4743
68.2000 23.8272
68.2500 32.4338
68.3000 29.7328
68.3500 19.9612
68.4000 31.8609
68.4500 26.9738
68.5000 40.5937
68.5500 24.7119
68.6000 18.7975
68.6500 25.9020
68.7000 22.7853
68.7500 29.5259
68.8000 29.3310
68.8500 32.0853
68.9000 31.5739
68.9500 27.6885
69.0000 33.6885
69.0500 29.6757
69.1000 33.9593
69.1500 22.0269
69.2000 27.4108
69.2500 42.7525
69.3000 22.7712
69.3500 25.8423
69.4000 31.8148
69.4500 23.8927
69.5000 32.0989
69.5500 23.4647
69.6000 19.9443
69.6500 20.2126
69.7000 26.7538
69.7500 22.1394
69.8000 22.7510
69.8500 32.7621
69.9000 24.0950
69.9500 35.4581
70.0000 31.7004
70.0500 23.7646
70.1000 36.7332
70.1500 47.5625
70.2000 31.0321
70.2500 32.5863
70.3000 19.8658
70.3500 27.4149
70.4000 33.0166
70.4500 33.4809
70.5000 18.4866
70.5500 21.6745
70.6000 41.9981
70.6500 28.8500
70.7000 18.5077
70.7500 29.2013
70.8000 34.1034
70.8500 20.2531
70.9000 20.9002
70.9500 21.1316
71.0000 28.1279
71.0500 31.3796
71.1000 24.4889
71.1500 36.0495
71.2000 32.9067
71.2500 33.1951
71.3000 31.7066
71.3500 31.6142
71.4000 23.5220
71.4500 33.8888
71.5000 27.2872
71.5500 25.9274
71.6000 23.5344
71.6500 20.7438
71.7000 31.1821
71.7500 32.5597
71.8000 32.4321
71.8500 40.1853
71.9000 24.3368
71.9500 18.5864
72.0000 26.8555
72.0500 24.5101
72.1000 24.1343
72.1500 22.0057
72.2000 28.8134
72.2500 24.5809
72.3000 32.1399
72.3500 29.0203
72.4000 24.3102
72.4500 27.5720
72.5000 17.0704
72.5500 27.8202
72.6000 35.8808
72.6500 36.7880
72.7000 27.7284
72.7500 26.5320
72.8000 29.7456
72.8500 23.6366
72.9000 30.7818
72.9500 28.3640
73.0000 42.9420
73.0500 36.9843
73.1000 19.4323
73.1500 32.1943
73.2000 24.4439
73.2500 27.9847
73.3000 31.3900
73.3500 31.0816
73.4000 32.5224
73.4500 33.4323
73.5000 39.7744
73.5500 39.1373
73.6000 25.5221
73.6500 29.8017
73.7000 27.1773
73.7500 24.5776
73.8000 20.7333
73.8500 26.5804
73.9000 26.8802
73.9500 28.2370
74.0000 28.1055
74.0500 31.9941
74.1000 29.9271
74.1500 27.7040
74.2000 32.1744
74.2500 28.1024
74.3000 31.0797
74.3500 31.7590
74.4000 25.5504
74.4500 21.7168
74.5000 33.7006
74.5500 33.2849
74.6000 17.8976
74.6500 27.8099
74.7000 32.6409
74.7500 25.7494
74.8000 35.8191
74.8500 33.9011
74.9000 31.0800
74.9500 26.3418
75.0000 39.9601
75.0500 32.2741
75.1000 35.8931
75.1500 23.7722
75.2000 25.0495
75.2500 25.9684
75.3000 23.6309
75.3500 26.5109
75.4000 27.1261
75.4500 33.4275
75.5000 27.2888
75.5500 29.0887
75.6000 44.9289
75.6500 33.4927
75.7000 29.4801
75.7500 28.8612
75.8000 24.1592
75.8500 30.7464
75.9000 34.7359
75.9500 42.3376
76.0000 33.1519
76.0500 30.4063
76.1000 28.4432
76.1500 35.4408
76.2000 38.2068
76.2500 20.3035
76.3000 27.8394
76.3500 29.3736
76.4000 30.3126
76.4500 19.7867
76.5000 23.2628
76.5500 19.5063
76.6000 20.4755
76.6500 21.4658
76.7000 34.5072
76.7500 24.3150
76.8000 34.2117
76.8500 24.3568
76.9000 35.1695
76.9500 45.2513
77.0000 25.8536
77.0500 29.1301
77.1000 25.2833
77.1500 24.0934
77.2000 34.0930
77.2500 25.1563
77.3000 36.9271
77.3500 32.2156
77.4000 32.9833
77.4500 16.7049
77.5000 30.7896
77.5500 24.7441
77.6000 27.8934
77.6500 26.4839
77.7000 36.6075
77.7500 32.0417
77.8000 29.0322
77.8500 23.4265
77.9000 32.3666
77.9500 29.0649
78.0000 34.6108
78.0500 22.1767
78.1000 27.8460
78.1500 28.5152
78.2000 29.5161
78.2500 28.7008
78.3000 27.0416
78.3500 20.3321
78.4000 23.5879
78.4500 30.0433
78.5000 36.1440
78.5500 18.6517
78.6000 17.8587
78.6500 26.3191
78.7000 25.5136
78.7500 30.5762
78.8000 19.4867
78.8500 25.7977
78.9000 27.2708
78.9500 40.6089
79.0000 37.8914
79.0500 27.2899
79.1000 24.7639
79.1500 26.9100
79.2000 30.9324
79.2500 32.1775
79.3000 28.5635
79.3500 22.7898
79.4000 24.7804
79.4500 14.7611
79.5000 26.8751
79.5500 26.5159
79.6000 26.7628
79.6500 24.9192
79.7000 31.2092
79.7500 27.3183
79.8000 33.3291
79.8500 27.7173
79.9000 23.1806
79.9500 23.7238
80.0000 29.0845
80.0500 29.4683
80.1000 33.6157
80.1500 24.5588
80.2000 29.2033
80.2500 42.6542
80.3000 30.2312
80.3500 27.5797
80.4000 33.5899
80.4500 26.2285
80.5000 25.0714
80.5500 21.0025
80.6000 24.0135
80.6500 27.3665
80.7000 27.8732
80.7500 32.1874
80.8000 23.8808
80.8500 33.5351
80.9000 28.6574
80.9500 39.0599
81.0000 21.2137
81.0500 23.3475
81.1000 33.5181
81.1500 28.3824
81.2000 24.1090
81.2500 34.8612
81.3000 26.6690
81.3500 31.1081
81.4000 21.5671
81.4500 23.7248
81.5000 36.6310
81.5500 30.7954
81.6000 24.5838
81.6500 21.2864
81.7000 29.6555
81.7500 31.2043
81.8000 33.3823
81.8500 40.4804
81.9000 40.9304
81.9500 50.1613
82.0000 70.5181
82.0500 144.6009
82.1000 254.0328
82.1500 229.8289
82.2000 176.5145
82.2500 122.3978
82.3000 75.9303
82.3500 52.8434
82.4000 38.9499
82.4500 43.7196
82.5000 36.3891
82.5500 35.2754
82.6000 32.8863
82.6500 25.2418
82.7000 25.8160
82.7500 34.2742
82.8000 22.2622
82.8500 21.2394
82.9000 38.4829
82.9500 20.8952
83.0000 31.4522
83.0500 31.3891
83.1000 30.7587
83.1500 25.2803
83.2000 25.4317
83.2500 23.3089
83.3000 26.6490
83.3500 25.4610
83.4000 31.4052
83.4500 35.7629
83.5000 27.3343
83.5500 30.0940
83.6000 26.3840
83.6500 22.3345
83.7000 18.1831
83.7500 27.1833
83.8000 28.9474
83.8500 35.1330
83.9000 24.5154
83.9500 28.6863
84.0000 24.5245
84.0500 33.3154
84.1000 26.6259
84.1500 26.0556
84.2000 26.7241
84.2500 33.8277
84.3000 27.0819
84.3500 35.2082
84.4000 22.3104
84.4500 36.2894
84.5000 28.8583
84.5500 17.4827
84.6000 32.1191
84.6500 21.9307
84.7000 25.3090
84.7500 25.9019
84.8000 27.3326
84.8500 19.0997
84.9000 27.4175
84.9500 23.0944
85.0000 32.9495
85.0500 26.1719
85.1000 23.0724
85.1500 33.2650
85.2000 34.5884
85.2500 26.8687
85.3000 27.5128
85.3500 30.8586
85.4000 12.7598
85.4500 25.9777
85.5000 27.0687
85.5500 25.3635
85.6000 21.2382
85.6500 35.0242
85.7000 25.1153
85.7500 26.7924
85.8000 30.1642
85.8500 43.6933
85.9000 26.1126
85.9500 23.1858
86.0000 27.8292
86.0500 32.8274
86.1000 28.6889
86.1500 23.6805
86.2000 34.0148
86.2500 23.6828
86.3000 25.7853
86.3500 31.3558
86.4000 21.9612
86.4500 25.6279
86.5000 25.0601
86.5500 24.9824
86.6000 24.7628
86.6500 29.5186
86.7000 35.0173
86.7500 22.0223
86.8000 19.7465
86.8500 20.8354
86.9000 25.0055
86.9500 29.1769
87.0000 34.4949
87.0500 40.7591
87.1000 29.1764
87.1500 25.5853
87.2000 26.5719
87.2500 30.8521
87.3000 32.5074
87.3500 27.0405
87.4000 23.9795
87.4500 23.1922
87.5000 22.7766
87.5500 26.1356
87.6000 25.9763
87.6500 33.2616
87.7000 23.9200
87.7500 31.7661
87.8000 26.6464
87.8500 24.6690
87.9000 17.8284
87.9500 27.2498
88.0000 21.2727
88.0500 20.8525
88.1000 32.9755
88.1500 34.9039
88.2000 29.8812
88.2500 30.4718
88.3000 24.0800
88.3500 38.0807
88.4000 32.8856
88.4500 22.9332
88.5000 38.1254
88.5500 34.8059
88.6000 28.0062
88.6500 26.3006
88.7000 29.0274
88.7500 22.5761
88.8000 22.7803
88.8500 40.0954
88.9000 21.8689
88.9500 37.6408
89.0000 28.8244
89.0500 24.3904
89.1000 26.0496
89.1500 28.8353
89.2000 30.6101
89.2500 23.0617
89.3000 34.1650
89.3500 26.2655
89.4000 28.9899
89.4500 42.0543
89.5000 30.5140
89.5500 17.1647
89.6000 21.2694
89.6500 22.8673
89.7000 25.5906
89.7500 27.9247
89.8000 19.6100
89.8500 37.6047
89.9000 23.8629
89.9500 29.8062
90.0000 29.2658
90.0500 27.6296
90.1000 20.5897
90.1500 34.7977
90.2000 25.6564
90.2500 30.1049
90.3000 30.9535
90.3500 42.5121
90.4000 28.3577
90.4500 36.2826
90.5000 25.4923
90.5500 26.1216
90.6000 25.1237
90.6500 30.1014
90.7000 30.3637
90.7500 35.4296
90.8000 32.7029
90.8500 28.3290
90.9000 22.6368
90.9500 21.2067
91.0000 26.1303
91.0500 30.8658
91.1000 24.2540
91.1500 31.9623
91.2000 31.7494
91.2500 27.5243
91.3000 26.9241
91.3500 27.9816
91.4000 24.5597
91.4500 15.3238
91.5000 36.0194
91.5500 25.0408
91.6000 28.8972
91.6500 24.7670
91.7000 31.1488
91.7500 27.3029
91.8000 27.9962
91.8500 32.6278
91.9000 26.4350
91.9500 38.7404
92.0000 25.8292
92.0500 33.1966
92.1000 38.6136
92.1500 28.5734
92.2000 31.9888
92.2500 28.1234
92.3000 25.0232
92.3500 30.4730
92.4000 22.7709
92.4500 18.0112
92.5000 27.2397
92.5500 36.6763
92.6000 22.4920
92.6500 25.5257
92.7000 29.1385
92.7500 34.5303
92.8000 34.2405
92.8500 28.7062
92.9000 27.8516
92.9500 25.3378
93.0000 22.3345
93.0500 22.2109
93.1000 36.0616
93.1500 40.4101
93.2000 24.3549
93.2500 27.7812
93.3000 28.2573
93.3500 20.5516
93.4000 24.7205
93.4500 24.6513
93.5000 20.6024
93.5500 22.3324
93.6000 37.5361
93.6500 28.0420
93.7000 27.1656
93.7500 23.8494
93.8000 23.5172
93.8500 25.2002
93.9000 24.6154
93.9500 27.3342
94.0000 35.3063
94.0500 32.7997
94.1000 21.7881
94.1500 26.5504
94.2000 28.7991
94.2500 24.0113
94.3000 37.2662
94.3500 31.5799
94.4000 27.6821
94.4500 21.7926
94.5000 30.5608
94.5500 32.0852
94.6000 21.8502
94.6500 31.9765
94.7000 35.1805
94.7500 22.0039
94.8000 22.5896
94.8500 32.2109
94.9000 32.9523
94.9500 24.0688
95.0000 29.4986
95.0500 27.3720
95.1000 22.7872
95.1500 23.1652
95.2000 43.0498
95.2500 21.3234
95.3000 24.5697
95.3500 23.5097
95.4000 21.6654
95.4500 30.1959
95.5000 34.0981
95.5500 24.1851
95.6000 31.7221
95.6500 30.4729
95.7000 35.2115
95.7500 33.0907
95.8000 21.7955
95.8500 41.1054
95.9000 21.9973
95.9500 31.3035
96.0000 34.8124
96.0500 24.8114
96.1000 28.5315
96.1500 33.1680
96.2000 31.7149
96.2500 32.7377
96.3000 26.6700
96.3500 21.3877
96.4000 24.7807
96.4500 30.8430
96.5000 25.9687
96.5500 28.1905
96.6000 35.9452
96.6500 32.4477
96.7000 22.4308
96.7500 28.9586
96.8000 26.0486
96.8500 30.8504
96.9000 31.3176
96.9500 28.8074
97.0000 16.8985
97.0500 35.8772
97.1000 43.3510
97.1500 33.7756
97.2000 30.2608
97.2500 27.9834
97.3000 16.3904
97.3500 21.7120
97.4000 23.1410
97.4500 36.8590
97.5000 35.7874
97.5500 39.3330
97.6000 28.9787
97.6500 21.9945
97.7000 29.3357
97.7500 20.3101
97.8000 22.0185
97.8500 29.0023
97.9000 22.1882
97.9500 28.7961
98.0000 20.4339
98.0500 26.0574
98.1000 26.7400
98.1500 32.1394
98.2000 31.2603
98.2500 29.3094
98.3000 49.7937
98.3500 31.2042
98.4000 43.5115
98.4500 36.8971
98.5000 50.6461
98.5500 67.0707
98.6000 119.4907
98.6500 158.0173
98.7000 157.7777
98.7500 148.6489
98.8000 115.0124
98.8500 51.2065
98.9000 50.5172
98.9500 33.8987
99.0000 35.8852
99.0500 26.1166
99.1000 29.9751
99.1500 20.7188
99.2000 28.6663
99.2500 26.4733
99.3000 33.8361
99.3500 25.5479
99.4000 28.6588
99.4500 24.1647
99.5000 32.8057
99.5500 34.7591
99.6000 30.1322
99.6500 28.2662
99.7000 29.6539
99.7500 21.3768
99.8000 24.8528
99.8500 26.8339
99.9000 21.2974
99.9500 27.1289
100.0000 32.1974
100.0500 36.3309
100.1000 27.9183
100.1500 27.6962
100.2000 19.1744
100.2500 23.7687
100.3000 27.8768
100.3500 27.4357
100.4000 26.9108
100.4500 27.8344
100.5000 34.1511
100.5500 24.1962
100.6000 26.0352
100.6500 35.4918
100.7000 27.0333
100.7500 23.0449
100.8000 33.2030
100.8500 32.6481
100.9000 24.9771
100.9500 33.9687
101.0000 25.6901
101.0500 24.8406
101.1000 36.1035
101.1500 28.3767
101.2000 32.2131
101.2500 29.0517
101.3000 22.5542
101.3500 33.5110
101.4000 37.1252
101.4500 24.7428
101.5000 40.7565
101.5500 18.5633
101.6000 25.6145
101.6500 34.5435
101.7000 24.2665
101.7500 22.3230
101.8000 30.1632
101.8500 23.2460
101.9000 29.0041
101.9500 29.5667
102.0000 18.3969
102.0500 26.9563
102.1000 26.6351
102.1500 29.5009
102.2000 32.9921
102.2500 28.0922
102.3000 23.1716
102.3500 26.1752
102.4000 31.4886
102.4500 37.2619
102.5000 34.3937
102.5500 25.7840
102.6000 28.0921
102.6500 32.6600
102.7000 28.4092
102.7500 31.7847
102.8000 28.9068
102.8500 21.8802
102.9000 23.5346
102.9500 27.8277
103.0000 22.6803
103.0500 26.1223
103.1000 25.6616
103.1500 36.2433
103.2000 34.2299
103.2500 30.7326
103.3000 29.5736
103.3500 31.5541
103.4000 29.7848
103.4500 33.7732
103.5000 36.1552
103.5500 36.0992
103.6000 27.0618
103.6500 24.1567
103.7000 24.1810
103.7500 30.8501
103.8000 30.3214
103.8500 20.1474
103.9000 25.0625
103.9500 28.2095
104.0000 25.1407
104.0500 26.6662
104.1000 26.0158
104.1500 22.5668
104.2000 23.1125
104.2500 35.1644
104.3000 15.3686
104.3500 30.8060
104.4000 27.9595
104.4500 35.8482
104.5000 35.2681
104.5500 27.4538
104.6000 28.9190
104.6500 32.0123
104.7000 35.8117
104.7500 28.7886
104.8000 24.6363
104.8500 39.6840
104.9000 36.9772
104.9500 29.5600
105.0000 33.6668
105.0500 28.8701
105.1000 31.0300
105.1500 32.8130
105.2000 26.8495
105.2500 26.9485
105.3000 33.1110
105.3500 37.9994
105.4000 25.8836
105.4500 37.5605
105.5000 32.4144
105.5500 19.2688
105.6000 33.1094
105.6500 30.0458
105.7000 24.4402
105.7500 31.5435
105.8000 28.0423
105.8500 25.7439
105.9000 28.0692
105.9500 27.3224
106.0000 27.2673
106.0500 31.4749
106.1000 22.4761
106.1500 22.6230
106.2000 30.8322
106.2500 18.1530
106.3000 28.9253
106.3500 32.8292
106.4000 23.6627
106.4500 29.8460
106.5000 35.6564
106.5500 33.8160
106.6000 27.3073
106.6500 23.4263
106.7000 29.5872
106.7500 30.5373
106.8000 15.6452
106.8500 23.4249
106.9000 24.8303
106.9500 30.4407
107.0000 35.1806
107.0500 27.1029
107.1000 30.8057
107.1500 24.9061
107.2000 24.4304
107.2500 25.8438
107.3000 32.9840
107.3500 17.1043
107.4000 27.4478
107.4500 28.7048
107.5000 18.6144
107.5500 28.7158
107.6000 36.7863
107.6500 28.1537
107.7000 34.6532
107.7500 28.8334
107.8000 19.4314
107.8500 26.8625
107.9000 34.8003
107.9500 33.8762
108.0000 30.7618
108.0500 20.1142
108.1000 25.6871
108.1500 21.7387
108.2000 24.4999
108.2500 22.8829
108.3000 31.9693
108.3500 30.3254
108.4000 38.0771
108.4500 26.7024
108.5000 32.6830
108.5500 27.4351
108.6000 28.7355
108.6500 22.7972
108.7000 25.8262
108.7500 16.1715
108.8000 26.0915
108.8500 28.6445
108.9000 28.6246
108.9500 30.6209
109.0000 23.3787
109.0500 26.2511
109.1000 28.9388
109.1500 34.0374
109.2000 22.0808
109.2500 38.6514
109.3000 25.7183
109.3500 24.9364
109.4000 37.3909
109.4500 32.9681
109.5000 27.0258
109.5500 30.9007
109.6000 27.3152
109.6500 20.8261
109.7000 26.8787
109.7500 32.9971
109.8000 28.2267
109.8500 28.4025
109.9000 33.5743
109.9500 22.1555
110.0000 26.0140
110.0500 24.1157
110.1000 25.2783
110.1500 35.9846
110.2000 29.0691
110.2500 30.7149
110.3000 29.6092
110.3500 36.7580
110.4000 37.9132
110.4500 27.2367
110.5000 38.7749
110.5500 32.8448
110.6000 28.2686
110.6500 31.9426
110.7000 37.7777
110.7500 36.4271
110.8000 25.9544
110.8500 37.5181
110.9000 31.3692
110.9500 22.4559
111.0000 22.9232
111.0500 26.8215
111.1000 28.9773
111.1500 22.9510
111.2000 34.7049
111.2500 27.8861
111.3000 39.8203
111.3500 32.8890
111.4000 27.5886
111.4500 28.6182
111.5000 27.8497
111.5500 31.6931
111.6000 31.5521
111.6500 25.2683
111.7000 26.9301
111.7500 41.5870
111.8000 35.4434
111.8500 30.1967
111.9000 36.9811
111.9500 30.0204
112.0000 25.6799
112.0500 37.8199
112.1000 28.1970
112.1500 33.6295
112.2000 28.3081
112.2500 32.9798
112.3000 40.4289
112.3500 26.3053
112.4000 25.7104
112.4500 21.6348
112.5000 25.4730
112.5500 21.7461
112.6000 22.9951
112.6500 27.1873
112.7000 25.6782
112.7500 34.0315
112.8000 26.1966
112.8500 28.6930
112.9000 24.0664
112.9500 30.0231
113.0000 24.6863
113.0500 19.1168
113.1000 26.7025
113.1500 31.0742
113.2000 28.7896
113.2500 30.6546
113.3000 20.0511
113.3500 16.5310
113.4000 24.6309
113.4500 27.0537
113.5000 35.8163
113.5500 24.6748
113.6000 24.6435
113.6500 34.0679
113.7000 29.0218
113.7500 28.8212
113.8000 32.2813
113.8500 27.8946
113.9000 23.8047
113.9500 21.9496
114.0000 21.6186
114.0500 30.4890
114.1000 24.2474
114.1500 28.7949
114.2000 28.2023
114.2500 27.2471
114.3000 28.9241
114.3500 30.4661
114.4000 28.0855
114.4500 22.8286
114.5000 34.0496
114.5500 30.8982
114.6000 29.9646
114.6500 24.3744
114.7000 23.4444
114.7500 27.5552
114.8000 24.1802
114.8500 20.3839
114.9000 37.7410
114.9500 30.4569
115.0000 33.0686
115.0500 26.9017
115.1000 26.1061
115.1500 30.5969
115.2000 32.0667
115.2500 35.2880
115.3000 34.7726
115.3500 37.1889
115.4000 32.1423
115.4500 28.0505
115.5000 24.4849
115.5500 37.6239
115.6000 34.1253
115.6500 48.4538
115.7000 37.4318
115.7500 45.2105
115.8000 67.2310
115.8500 59.4893
115.9000 94.6601
115.9500 144.5838
116.0000 141.7572
116.0500 128.7668
116.1000 94.5250
116.1500 63.7108
116.2000 61.7448
116.2500 50.3241
116.3000 47.7082
116.3500 34.4564
116.4000 34.9052
116.4500 32.8496
116.5000 29.4739
116.5500 32.0379
116.6000 22.2187
116.6500 30.5096
116.7000 30.7309
116.7500 33.5207
116.8000 24.3649
116.8500 24.2318
116.9000 39.3442
116.9500 28.1758
117.0000 28.5652
117.0500 36.4840
117.1000 19.1094
117.1500 35.8026
117.2000 27.9900
117.2500 36.2023
117.3000 27.1040
117.3500 30.1577
117.4000 25.2757
117.4500 23.0475
117.5000 23.6185
117.5500 34.5154
117.6000 32.8332
117.6500 23.2923
117.7000 31.4391
117.7500 23.9529
117.8000 29.5111
117.8500 26.1026
117.9000 39.0493
117.9500 39.9875
118.0000 36.0221
118.0500 32.0539
118.1000 30.7960
118.1500 24.0617
118.2000 20.5860
118.2500 29.7298
118.3000 25.7534
118.3500 26.5424
118.4000 36.5004
118.4500 35.2296
118.5000 31.5324
118.5500 28.3609
118.6000 22.6857
118.6500 28.2563
118.7000 35.1556
118.7500 36.1356
118.8000 26.5602
118.8500 25.4171
118.9000 29.2239
118.9500 31.0331
119.0000 23.3965
119.0500 33.3556
119.1000 37.2505
119.1500 25.6728
119.2000 27.7494
119.2500 26.3517
119.3000 33.8515
119.3500 26.6498
119.4000 25.7228
119.4500 35.3010
119.5000 20.1007
119.5500 19.1356
119.6000 21.5383
119.6500 33.3285
119.7000 24.8916
119.7500 26.5355
119.8000 27.6098
119.8500 25.3246
119.9000 29.4298
119.9500 28.4909
120.0000 34.2520
120.0500 21.6152
120.1000 27.3423
120.1500 23.7743
120.2000 22.8007
120.2500 22.4491
120.3000 38.5682
120.3500 31.9475
120.4000 23.3616
120.4500 24.5350
120.5000 28.4326
120.5500 25.9654
120.6000 25.5815
120.6500 30.4376
120.7000 22.3455
120.7500 23.2065
120.8000 30.5278
120.8500 30.2621
120.9000 29.5875
120.9500 23.0347
121.0000 19.9917
121.0500 35.2773
121.1000 31.2130
121.1500 25.6331
121.2000 26.1851
121.2500 22.0999
121.3000 25.6882
121.3500 29.8206
121.4000 26.5452
121.4500 22.7427
121.5000 27.5782
121.5500 29.7882
121.6000 35.7543
121.6500 24.4633
121.7000 22.6855
121.7500 36.9384
121.8000 25.4362
121.8500 24.9930
121.9000 34.4720
121.9500 25.6806
122.0000 33.1486
122.0500 34.2700
122.1000 23.2190
122.1500 20.2006
122.2000 21.9767
122.2500 31.6820
122.3000 28.1745
122.3500 29.8133
122.4000 33.7465
122.4500 32.9009
122.5000 37.4687
122.5500 33.0099
122.6000 23.7709
122.6500 31.9646
122.7000 29.0770
122.7500 25.7536
122.8000 27.3734
122.8500 37.2796
122.9000 34.2224
122.9500 33.1337
123.0000 26.7209
123.0500 21.4402
123.1000 32.7513
123.1500 20.2281
123.2000 17.2392
123.2500 30.5351
123.3000 29.8534
123.3500 37.4153
123.4000 21.9362
123.4500 24.1485
123.5000 31.1761
123.5500 29.8565
123.6000 30.4450
123.6500 27.7418
123.7000 23.0619
123.7500 25.2135
123.8000 36.3756
123.8500 28.0079
123.9000 24.6892
123.9500 25.6204
124.0000 18.4973
124.0500 28.5239
124.1000 30.4898
124.1500 29.2637
124.2000 22.1927
124.2500 30.6161
124.3000 22.0409
124.3500 32.2578
124.4000 37.3233
124.4500 25.3629
124.5000 24.0110
124.5500 37.7854
124.6000 27.9334
124.6500 22.6596
124.7000 25.2765
124.7500 30.3241
124.8000 32.4618
124.8500 29.3643
124.9000 18.0964
124.9500 22.7758
125.0000 28.6632
125.0500 30.7991
125.1000 32.1372
125.1500 26.6041
125.2000 26.4245
125.2500 33.4338
125.3000 26.9248
125.3500 22.8310
125.4000 23.7920
125.4500 24.1064
125.5000 29.3169
125.5500 39.0561
125.6000 30.4863
125.6500 30.3987
125.7000 26.8117
125.7500 29.6520
125.8000 33.0547
125.8500 33.8441
125.9000 28.9652
125.9500 21.8807
126.0000 30.3326
126.0500 27.9172
126.1000 24.7208
126.1500 21.8144
126.2000 34.9300
126.2500 34.6121
126.3000 25.9964
126.3500 28.7269
126.4000 18.5258
126.4500 30.7860
126.5000 27.9864
126.5500 25.1785
126.6000 39.0431
126.6500 19.2242
126.7000 33.5397
126.7500 35.8698
126.8000 24.4230
126.8500 33.8856
126.9000 29.9352
126.9500 29.3516
127.0000 15.3591
127.0500 25.2289
127.1000 27.5839
127.1500 20.2396
127.2000 27.0598
127.2500 34.7488
127.3000 33.1073
127.3500 28.3193
127.4000 35.2267
127.4500 26.4503
127.5000 31.7992
127.5500 27.5948
127.6000 37.0528
127.6500 24.5105
127.7000 25.3667
127.7500 29.7392
127.8000 27.1855
127.8500 24.5587
127.9000 32.6241
127.9500 26.4434
128.0000 32.6896
128.0500 28.2431
128.1000 21.1026
128.1500 26.2707
128.2000 25.3603
128.2500 27.3882
128.3000 29.5746
128.3500 28.7379
128.4000 31.2443
128.4500 37.1392
128.5000 21.4022
128.5500 38.5442
128.6000 25.5649
128.6500 24.5039
128.7000 34.6860
128.7500 29.8721
128.8000 30.8749
128.8500 32.9807
128.9000 34.5546
128.9500 21.9973
129.0000 29.2710
129.0500 31.7743
129.1000 28.5465
129.1500 28.9152
129.2000 25.3186
129.2500 23.3720
129.3000 36.7155
129.3500 29.2359
129.4000 36.5041
129.4500 30.1257
129.5000 21.2102
129.5500 18.5405
129.6000 27.4479
129.6500 31.6242
129.7000 31.0695
129.7500 18.1259
129.8000 30.2851
129.8500 20.4947
129.9000 26.5424
129.9500 32.4653
130.0000 33.2148
