
#Surface 0 of 1 surfaces

#IsoCurve 0, 1801 points
#x y z type
 40  55.7227  0 i
 40.05  28.6826  0 i
 40.1  26.5738  0 i
 40.15  38.7486  0 i
 40.2  33.6936  0 i
 40.25  31.863  0 i
 40.3  31.8983  0 i
 40.35  41.7402  0 i
 40.4  33.4792  0 i
 40.45  22.2887  0 i
 40.5  35.7699  0 i
 40.55  42.149  0 i
 40.6  44.89  0 i
 40.65  36.4175  0 i
 40.7  34.5694  0 i
 40.75  29.5307  0 i
 40.8  33.2739  0 i
 40.85  26.0808  0 i
 40.9  39.9849  0 i
 40.95  32.3165  0 i
 41  33.8258  0 i
 41.05  39.5047  0 i
 41.1  31.253  0 i
 41.15  48.0634  0 i
 41.2  40.8305  0 i
 41.25  39.2888  0 i
 41.3  25.9343  0 i
 41.35  39.6463  0 i
 41.4  32.8849  0 i
 41.45  35.4859  0 i
 41.5  48.3811  0 i
 41.55  31.098  0 i
 41.6  32.4965  0 i
 41.65  41.6645  0 i
 41.7  36.258  0 i
 41.75  34.6665  0 i
 41.8  43.3601  0 i
 41.85  30.7606  0 i
 41.9  36.3024  0 i
 41.95  36.746  0 i
 42  40.9979  0 i
 42.05  36.8856  0 i
 42.1  31.0777  0 i
 42.15  35.2813  0 i
 42.2  39.0704  0 i
 42.25  35.9462  0 i
 42.3  33.3761  0 i
 42.35  34.917  0 i
 42.4  33.0687  0 i
 42.45  34.6104  0 i
 42.5  43.2619  0 i
 42.55  33.5463  0 i
 42.6  27.6201  0 i
 42.65  41.3789  0 i
 42.7  26.4052  0 i
 42.75  28.0191  0 i
 42.8  36.009  0 i
 42.85  40.3983  0 i
 42.9  31.5457  0 i
 42.95  36.8714  0 i
 43  41.3278  0 i
 43.05  36.7346  0 i
 43.1  31.1982  0 i
 43.15  31.278  0 i
 43.2  43.2909  0 i
 43.25  32.2588  0 i
 43.3  37.004  0 i
 43.35  28.2428  0 i
 43.4  33.5423  0 i
 43.45  29.3802  0 i
 43.5  32.86  0 i
 43.55  46.7686  0 i
 43.6  45.0218  0 i
 43.65  36.7472  0 i
 43.7  33.4313  0 i
 43.75  38.2312  0 i
 43.8  35.6677  0 i
 43.85  33.6251  0 i
 43.9  35.1907  0 i
 43.95  44.4648  0 i
 44  41.6606  0 i
 44.05  42.297  0 i
 44.1  40.3743  0 i
 44.15  29.365  0 i
 44.2  44.2563  0 i
 44.25  54.9992  0 i
 44.3  57.8887  0 i
 44.35  74.8963  0 i
 44.4  72.7155  0 i
 44.45  168.858  0 i
 44.5  599.097  0 i
 44.55  1606.97  0 i
 44.6  2109.79  0 i
 44.65  1372.2  0 i
 44.7  469.641  0 i
 44.75  151.686  0 i
 44.8  80.5065  0 i
 44.85  60.9408  0 i
 44.9  48.1521  0 i
 44.95  51.4195  0 i
 45  36.7361  0 i
 45.05  46.4061  0 i
 45.1  42.3267  0 i
 45.15  31.9864  0 i
 45.2  34.2643  0 i
 45.25  31.6311  0 i
 45.3  40.1556  0 i
 45.35  26.0131  0 i
 45.4  37.9658  0 i
 45.45  34.7544  0 i
 45.5  32.3813  0 i
 45.55  31.736  0 i
 45.6  33.5071  0 i
 45.65  31.6429  0 i
 45.7  32.6337  0 i
 45.75  28.9816  0 i
 45.8  31.7486  0 i
 45.85  34.3914  0 i
 45.9  33.6089  0 i
 45.95  39.6561  0 i
 46  42.4936  0 i
 46.05  37.2302  0 i
 46.1  35.7755  0 i
 46.15  39.7924  0 i
 46.2  26.9957  0 i
 46.25  25.9075  0 i
 46.3  20.8216  0 i
 46.35  43.3326  0 i
 46.4  33.3707  0 i
 46.45  31.6212  0 i
 46.5  35.7525  0 i
 46.55  35.6168  0 i
 46.6  36.0946  0 i
 46.65  34.0144  0 i
 46.7  37.6392  0 i
 46.75  44.9356  0 i
 46.8  29.6987  0 i
 46.85  35.5425  0 i
 46.9  21.8129  0 i
 46.95  27.0798  0 i
 47  25.8457  0 i
 47.05  33.4484  0 i
 47.1  34.717  0 i
 47.15  35.0782  0 i
 47.2  32.2896  0 i
 47.25  31.3516  0 i
 47.3  40.0397  0 i
 47.35  39.73  0 i
 47.4  37.5825  0 i
 47.45  37.7096  0 i
 47.5  38.0474  0 i
 47.55  23.2918  0 i
 47.6  27.9807  0 i
 47.65  24.2463  0 i
 47.7  32.6797  0 i
 47.75  41.193  0 i
 47.8  29.2822  0 i
 47.85  42.3623  0 i
 47.9  35.9084  0 i
 47.95  31.7228  0 i
 48  37.664  0 i
 48.05  32.7183  0 i
 48.1  27.7056  0 i
 48.15  24.5594  0 i
 48.2  27.3137  0 i
 48.25  32.8702  0 i
 48.3  42.7607  0 i
 48.35  19.8353  0 i
 48.4  28.5852  0 i
 48.45  21.6735  0 i
 48.5  32.5528  0 i
 48.55  32.2905  0 i
 48.6  38.8298  0 i
 48.65  35.9491  0 i
 48.7  29.2283  0 i
 48.75  35.1259  0 i
 48.8  32.5536  0 i
 48.85  32.4112  0 i
 48.9  27.5504  0 i
 48.95  29.4193  0 i
 49  22.2384  0 i
 49.05  31.5896  0 i
 49.1  33.8249  0 i
 49.15  36.4132  0 i
 49.2  30.4109  0 i
 49.25  20.0335  0 i
 49.3  25.9366  0 i
 49.35  37.1494  0 i
 49.4  25.1495  0 i
 49.45  22.8866  0 i
 49.5  27.5  0 i
 49.55  28.2271  0 i
 49.6  28.2282  0 i
 49.65  24.2782  0 i
 49.7  24.7827  0 i
 49.75  30.109  0 i
 49.8  39.8542  0 i
 49.85  34.5648  0 i
 49.9  29.2377  0 i
 49.95  29.1087  0 i
 50  22.5373  0 i
 50.05  35.6871  0 i
 50.1  23.426  0 i
 50.15  38.9089  0 i
 50.2  48.8366  0 i
 50.25  38.8023  0 i
 50.3  29.7623  0 i
 50.35  25.1638  0 i
 50.4  31.7831  0 i
 50.45  28.571  0 i
 50.5  24.3959  0 i
 50.55  29.4049  0 i
 50.6  32.7648  0 i
 50.65  28.239  0 i
 50.7  33.6081  0 i
 50.75  42.016  0 i
 50.8  39.4206  0 i
 50.85  34.5228  0 i
 50.9  32.7798  0 i
 50.95  26.7751  0 i
 51  29.9125  0 i
 51.05  27.0416  0 i
 51.1  22.2526  0 i
 51.15  27.9885  0 i
 51.2  29.1475  0 i
 51.25  35.6823  0 i
 51.3  26.486  0 i
 51.35  30.0686  0 i
 51.4  33.1151  0 i
 51.45  25.9984  0 i
 51.5  26.6738  0 i
 51.55  27.2025  0 i
 51.6  20.7852  0 i
 51.65  30.9938  0 i
 51.7  35.1939  0 i
 51.75  28.9911  0 i
 51.8  32.2528  0 i
 51.85  29.6636  0 i
 51.9  29.7554  0 i
 51.95  20.8289  0 i
 52  31.9077  0 i
 52.05  26.1338  0 i
 52.1  38.349  0 i
 52.15  31.8081  0 i
 52.2  38.335  0 i
 52.25  25.0255  0 i
 52.3  24.5313  0 i
 52.35  24.145  0 i
 52.4  34.2513  0 i
 52.45  26.3017  0 i
 52.5  29.6817  0 i
 52.55  31.92  0 i
 52.6  35.2658  0 i
 52.65  28.4314  0 i
 52.7  19.0472  0 i
 52.75  31.6919  0 i
 52.8  28.1912  0 i
 52.85  31.0868  0 i
 52.9  33.6036  0 i
 52.95  35.9052  0 i
 53  33.6891  0 i
 53.05  25.9197  0 i
 53.1  32.9452  0 i
 53.15  34.3104  0 i
 53.2  33.2463  0 i
 53.25  32.8923  0 i
 53.3  33.4339  0 i
 53.35  27.4175  0 i
 53.4  37.8184  0 i
 53.45  33.3714  0 i
 53.5  33.4621  0 i
 53.55  26.1158  0 i
 53.6  29.0745  0 i
 53.65  32.6748  0 i
 53.7  32.8235  0 i
 53.75  24.8576  0 i
 53.8  28.5277  0 i
 53.85  25.8652  0 i
 53.9  39.6133  0 i
 53.95  41.9358  0 i
 54  35.7307  0 i
 54.05  31.3318  0 i
 54.1  32.4455  0 i
 54.15  28.2511  0 i
 54.2  36.0136  0 i
 54.25  33.1034  0 i
 54.3  26.5916  0 i
 54.35  34.0396  0 i
 54.4  29.0901  0 i
 54.45  46.4141  0 i
 54.5  44.7664  0 i
 54.55  39.4566  0 i
 54.6  26.9851  0 i
 54.65  19.8333  0 i
 54.7  30.0497  0 i
 54.75  30.5395  0 i
 54.8  28.9863  0 i
 54.85  24.2535  0 i
 54.9  34.653  0 i
 54.95  22.5389  0 i
 55  33.7731  0 i
 55.05  35.7291  0 i
 55.1  38.0601  0 i
 55.15  25.1643  0 i
 55.2  32.3021  0 i
 55.25  24.0106  0 i
 55.3  27.8346  0 i
 55.35  21.5658  0 i
 55.4  34.8816  0 i
 55.45  17.0732  0 i
 55.5  32.2814  0 i
 55.55  25.7813  0 i
 55.6  26.7114  0 i
 55.65  35.7612  0 i
 55.7  28.0057  0 i
 55.75  25.4608  0 i
 55.8  39.8375  0 i
 55.85  42.7593  0 i
 55.9  34.2405  0 i
 55.95  31.0758  0 i
 56  26.4171  0 i
 56.05  32.249  0 i
 56.1  29.1533  0 i
 56.15  26.0325  0 i
 56.2  32.7729  0 i
 56.25  27.0118  0 i
 56.3  43.3698  0 i
 56.35  32.0899  0 i
 56.4  30.4914  0 i
 56.45  37.6544  0 i
 56.5  37.1683  0 i
 56.55  33.8272  0 i
 56.6  45.7764  0 i
 56.65  38.7923  0 i
 56.7  30.6653  0 i
 56.75  32.7747  0 i
 56.8  26.6359  0 i
 56.85  29.6076  0 i
 56.9  23.3628  0 i
 56.95  28.2034  0 i
 57  26.887  0 i
 57.05  39.4313  0 i
 57.1  23.9638  0 i
 57.15  42.5338  0 i
 57.2  39.254  0 i
 57.25  35.5393  0 i
 57.3  28.6665  0 i
 57.35  28.4662  0 i
 57.4  31.2276  0 i
 57.45  35.3085  0 i
 57.5  28.1452  0 i
 57.55  28.6635  0 i
 57.6  29.5091  0 i
 57.65  24.4024  0 i
 57.7  35.8586  0 i
 57.75  33.987  0 i
 57.8  24.9675  0 i
 57.85  35.1365  0 i
 57.9  24.4877  0 i
 57.95  31.2504  0 i
 58  32.813  0 i
 58.05  25.7129  0 i
 58.1  32.5146  0 i
 58.15  33.0604  0 i
 58.2  46.6511  0 i
 58.25  21.2438  0 i
 58.3  28.1842  0 i
 58.35  32.2866  0 i
 58.4  27.24  0 i
 58.45  31.2712  0 i
 58.5  29.6491  0 i
 58.55  25.1999  0 i
 58.6  34.3002  0 i
 58.65  27.2395  0 i
 58.7  29.7736  0 i
 58.75  26.6545  0 i
 58.8  26.9603  0 i
 58.85  22.5924  0 i
 58.9  28.0361  0 i
 58.95  23.9961  0 i
 59  36.9282  0 i
 59.05  24.7928  0 i
 59.1  28.8686  0 i
 59.15  26.9146  0 i
 59.2  36.8952  0 i
 59.25  25.891  0 i
 59.3  23.8485  0 i
 59.35  27.2015  0 i
 59.4  30.119  0 i
 59.45  21.4791  0 i
 59.5  23.0027  0 i
 59.55  26.1308  0 i
 59.6  26.3654  0 i
 59.65  28.4427  0 i
 59.7  35.6489  0 i
 59.75  30.1377  0 i
 59.8  30.9341  0 i
 59.85  43.281  0 i
 59.9  23.3335  0 i
 59.95  31.651  0 i
 60  36.6642  0 i
 60.05  28.6641  0 i
 60.1  39.3226  0 i
 60.15  25.4082  0 i
 60.2  22.0362  0 i
 60.25  27.6109  0 i
 60.3  35.273  0 i
 60.35  38.2964  0 i
 60.4  19.7908  0 i
 60.45  31.7876  0 i
 60.5  31.2211  0 i
 60.55  27.3334  0 i
 60.6  34.9323  0 i
 60.65  20.4746  0 i
 60.7  28.6413  0 i
 60.75  19.8343  0 i
 60.8  29.3831  0 i
 60.85  36.5121  0 i
 60.9  31.7995  0 i
 60.95  18.3093  0 i
 61  21.6002  0 i
 61.05  23.7  0 i
 61.1  25.9622  0 i
 61.15  22.3677  0 i
 61.2  24.7704  0 i
 61.25  31.8411  0 i
 61.3  30.1749  0 i
 61.35  27.2445  0 i
 61.4  28.2259  0 i
 61.45  20.0569  0 i
 61.5  25.9097  0 i
 61.55  38.3898  0 i
 61.6  30.5221  0 i
 61.65  29.6792  0 i
 61.7  25.5221  0 i
 61.75  35.8097  0 i
 61.8  32.341  0 i
 61.85  24.636  0 i
 61.9  32.1178  0 i
 61.95  21.3482  0 i
 62  24.798  0 i
 62.05  28.6977  0 i
 62.1  18.8648  0 i
 62.15  25.9337  0 i
 62.2  26.7748  0 i
 62.25  29.5327  0 i
 62.3  35.5458  0 i
 62.35  27.1094  0 i
 62.4  18.8688  0 i
 62.45  26.3534  0 i
 62.5  29.62  0 i
 62.55  21.4214  0 i
 62.6  22.1652  0 i
 62.65  23.9468  0 i
 62.7  31.0413  0 i
 62.75  33.0903  0 i
 62.8  25.4034  0 i
 62.85  31.9102  0 i
 62.9  29.4265  0 i
 62.95  24.1254  0 i
 63  30.2606  0 i
 63.05  35.4757  0 i
 63.1  35.7638  0 i
 63.15  37.7686  0 i
 63.2  48.7181  0 i
 63.25  41.8503  0 i
 63.3  36.4916  0 i
 63.35  26.9767  0 i
 63.4  39.8937  0 i
 63.45  36.168  0 i
 63.5  25.1634  0 i
 63.55  33.4487  0 i
 63.6  26.051  0 i
 63.65  40.0898  0 i
 63.7  31.1353  0 i
 63.75  36.5723  0 i
 63.8  30.7594  0 i
 63.85  36.2971  0 i
 63.9  30.8288  0 i
 63.95  23.6043  0 i
 64  22.8259  0 i
 64.05  27.7867  0 i
 64.1  25.0152  0 i
 64.15  27.8756  0 i
 64.2  31.3451  0 i
 64.25  29.4387  0 i
 64.3  30.9132  0 i
 64.35  33.3128  0 i
 64.4  42.1065  0 i
 64.45  29.827  0 i
 64.5  31.4457  0 i
 64.55  28.0751  0 i
 64.6  30.9656  0 i
 64.65  53.9079  0 i
 64.7  50.2476  0 i
 64.75  123.128  0 i
 64.8  278.495  0 i
 64.85  319.345  0 i
 64.9  202.544  0 i
 64.95  113.148  0 i
 65  67.0031  0 i
 65.05  56.6338  0 i
 65.1  33.7429  0 i
 65.15  33.343  0 i
 65.2  16.8579  0 i
 65.25  19.9799  0 i
 65.3  31.0864  0 i
 65.35  33.6517  0 i
 65.4  44.6363  0 i
 65.45  27.0971  0 i
 65.5  37.2924  0 i
 65.55  21.7251  0 i
 65.6  25.9729  0 i
 65.65  16.9977  0 i
 65.7  42.6957  0 i
 65.75  27.7727  0 i
 65.8  26.8149  0 i
 65.85  28.4693  0 i
 65.9  24.1107  0 i
 65.95  27.4679  0 i
 66  39.3952  0 i
 66.05  20.3093  0 i
 66.1  31.3873  0 i
 66.15  36.0713  0 i
 66.2  37.8309  0 i
 66.25  26.433  0 i
 66.3  30.14  0 i
 66.35  31.7602  0 i
 66.4  27.4597  0 i
 66.45  26.5383  0 i
 66.5  21.8372  0 i
 66.55  26.0216  0 i
 66.6  26.3446  0 i
 66.65  20.3692  0 i
 66.7  28.4431  0 i
 66.75  29.9611  0 i
 66.8  30.1033  0 i
 66.85  23.5955  0 i
 66.9  47.421  0 i
 66.95  35.0653  0 i
 67  48.8135  0 i
 67.05  25.191  0 i
 67.1  37.9072  0 i
 67.15  33.5524  0 i
 67.2  29.9071  0 i
 67.25  23.044  0 i
 67.3  27.4532  0 i
 67.35  30.304  0 i
 67.4  27.5635  0 i
 67.45  23.1451  0 i
 67.5  25.0369  0 i
 67.55  37.4878  0 i
 67.6  25.7444  0 i
 67.65  29.5774  0 i
 67.7  21.1046  0 i
 67.75  35.38  0 i
 67.8  26.4784  0 i
 67.85  23.5573  0 i
 67.9  27.9191  0 i
 67.95  42.7649  0 i
 68  37.5497  0 i
 68.05  23.222  0 i
 68.1  16.4469  0 i
 68.15  30.4743  0 i
 68.2  23.8272  0 i
 68.25  32.4338  0 i
 68.3  29.7328  0 i
 68.35  19.9612  0 i
 68.4  31.8609  0 i
 68.45  26.9738  0 i
 68.5  40.5937  0 i
 68.55  24.7119  0 i
 68.6  18.7975  0 i
 68.65  25.902  0 i
 68.7  22.7853  0 i
 68.75  29.5259  0 i
 68.8  29.331  0 i
 68.85  32.0853  0 i
 68.9  31.5739  0 i
 68.95  27.6885  0 i
 69  33.6885  0 i
 69.05  29.6757  0 i
 69.1  33.9593  0 i
 69.15  22.0269  0 i
 69.2  27.4108  0 i
 69.25  42.7525  0 i
 69.3  22.7712  0 i
 69.35  25.8423  0 i
 69.4  31.8148  0 i
 69.45  23.8927  0 i
 69.5  32.0989  0 i
 69.55  23.4647  0 i
 69.6  19.9443  0 i
 69.65  20.2126  0 i
 69.7  26.7538  0 i
 69.75  22.1394  0 i
 69.8  22.751  0 i
 69.85  32.7621  0 i
 69.9  24.095  0 i
 69.95  35.4581  0 i
 70  31.7004  0 i
 70.05  23.7646  0 i
 70.1  36.7332  0 i
 70.15  47.5625  0 i
 70.2  31.0321  0 i
 70.25  32.5863  0 i
 70.3  19.8658  0 i
 70.35  27.4149  0 i
 70.4  33.0166  0 i
 70.45  33.4809  0 i
 70.5  18.4866  0 i
 70.55  21.6745  0 i
 70.6  41.9981  0 i
 70.65  28.85  0 i
 70.7  18.5077  0 i
 70.75  29.2013  0 i
 70.8  34.1034  0 i
 70.85  20.2531  0 i
 70.9  20.9002  0 i
 70.95  21.1316  0 i
 71  28.1279  0 i
 71.05  31.3796  0 i
 71.1  24.4889  0 i
 71.15  36.0495  0 i
 71.2  32.9067  0 i
 71.25  33.1951  0 i
 71.3  31.7066  0 i
 71.35  31.6142  0 i
 71.4  23.522  0 i
 71.45  33.8888  0 i
 71.5  27.2872  0 i
 71.55  25.9274  0 i
 71.6  23.5344  0 i
 71.65  20.7438  0 i
 71.7  31.1821  0 i
 71.75  32.5597  0 i
 71.8  32.4321  0 i
 71.85  40.1853  0 i
 71.9  24.3368  0 i
 71.95  18.5864  0 i
 72  26.8555  0 i
 72.05  24.5101  0 i
 72.1  24.1343  0 i
 72.15  22.0057  0 i
 72.2  28.8134  0 i
 72.25  24.5809  0 i
 72.3  32.1399  0 i
 72.35  29.0203  0 i
 72.4  24.3102  0 i
 72.45  27.572  0 i
 72.5  17.0704  0 i
 72.55  27.8202  0 i
 72.6  35.8808  0 i
 72.65  36.788  0 i
 72.7  27.7284  0 i
 72.75  26.532  0 i
 72.8  29.7456  0 i
 72.85  23.6366  0 i
 72.9  30.7818  0 i
 72.95  28.364  0 i
 73  42.942  0 i
 73.05  36.9843  0 i
 73.1  19.4323  0 i
 73.15  32.1943  0 i
 73.2  24.4439  0 i
 73.25  27.9847  0 i
 73.3  31.39  0 i
 73.35  31.0816  0 i
 73.4  32.5224  0 i
 73.45  33.4323  0 i
 73.5  39.7744  0 i
 73.55  39.1373  0 i
 73.6  25.5221  0 i
 73.65  29.8017  0 i
 73.7  27.1773  0 i
 73.75  24.5776  0 i
 73.8  20.7333  0 i
 73.85  26.5804  0 i
 73.9  26.8802  0 i
 73.95  28.237  0 i
 74  28.1055  0 i
 74.05  31.9941  0 i
 74.1  29.9271  0 i
 74.15  27.704  0 i
 74.2  32.1744  0 i
 74.25  28.1024  0 i
 74.3  31.0797  0 i
 74.35  31.759  0 i
 74.4  25.5504  0 i
 74.45  21.7168  0 i
 74.5  33.7006  0 i
 74.55  33.2849  0 i
 74.6  17.8976  0 i
 74.65  27.8099  0 i
 74.7  32.6409  0 i
 74.75  25.7494  0 i
 74.8  35.8191  0 i
 74.85  33.9011  0 i
 74.9  31.08  0 i
 74.95  26.3418  0 i
 75  39.9601  0 i
 75.05  32.2741  0 i
 75.1  35.8931  0 i
 75.15  23.7722  0 i
 75.2  25.0495  0 i
 75.25  25.9684  0 i
 75.3  23.6309  0 i
 75.35  26.5109  0 i
 75.4  27.1261  0 i
 75.45  33.4275  0 i
 75.5  27.2888  0 i
 75.55  29.0887  0 i
 75.6  44.9289  0 i
 75.65  33.4927  0 i
 75.7  29.4801  0 i
 75.75  28.8612  0 i
 75.8  24.1592  0 i
 75.85  30.7464  0 i
 75.9  34.7359  0 i
 75.95  42.3376  0 i
 76  33.1519  0 i
 76.05  30.4063  0 i
 76.1  28.4432  0 i
 76.15  35.4408  0 i
 76.2  38.2068  0 i
 76.25  20.3035  0 i
 76.3  27.8394  0 i
 76.35  29.3736  0 i
 76.4  30.3126  0 i
 76.45  19.7867  0 i
 76.5  23.2628  0 i
 76.55  19.5063  0 i
 76.6  20.4755  0 i
 76.65  21.4658  0 i
 76.7  34.5072  0 i
 76.75  24.315  0 i
 76.8  34.2117  0 i
 76.85  24.3568  0 i
 76.9  35.1695  0 i
 76.95  45.2513  0 i
 77  25.8536  0 i
 77.05  29.1301  0 i
 77.1  25.2833  0 i
 77.15  24.0934  0 i
 77.2  34.093  0 i
 77.25  25.1563  0 i
 77.3  36.9271  0 i
 77.35  32.2156  0 i
 77.4  32.9833  0 i
 77.45  16.7049  0 i
 77.5  30.7896  0 i
 77.55  24.7441  0 i
 77.6  27.8934  0 i
 77.65  26.4839  0 i
 77.7  36.6075  0 i
 77.75  32.0417  0 i
 77.8  29.0322  0 i
 77.85  23.4265  0 i
 77.9  32.3666  0 i
 77.95  29.0649  0 i
 78  34.6108  0 i
 78.05  22.1767  0 i
 78.1  27.846  0 i
 78.15  28.5152  0 i
 78.2  29.5161  0 i
 78.25  28.7008  0 i
 78.3  27.0416  0 i
 78.35  20.3321  0 i
 78.4  23.5879  0 i
 78.45  30.0433  0 i
 78.5  36.144  0 i
 78.55  18.6517  0 i
 78.6  17.8587  0 i
 78.65  26.3191  0 i
 78.7  25.5136  0 i
 78.75  30.5762  0 i
 78.8  19.4867  0 i
 78.85  25.7977  0 i
 78.9  27.2708  0 i
 78.95  40.6089  0 i
 79  37.8914  0 i
 79.05  27.2899  0 i
 79.1  24.7639  0 i
 79.15  26.91  0 i
 79.2  30.9324  0 i
 79.25  32.1775  0 i
 79.3  28.5635  0 i
 79.35  22.7898  0 i
 79.4  24.7804  0 i
 79.45  14.7611  0 i
 79.5  26.8751  0 i
 79.55  26.5159  0 i
 79.6  26.7628  0 i
 79.65  24.9192  0 i
 79.7  31.2092  0 i
 79.75  27.3183  0 i
 79.8  33.3291  0 i
 79.85  27.7173  0 i
 79.9  23.1806  0 i
 79.95  23.7238  0 i
 80  29.0845  0 i
 80.05  29.4683  0 i
 80.1  33.6157  0 i
 80.15  24.5588  0 i
 80.2  29.2033  0 i
 80.25  42.6542  0 i
 80.3  30.2312  0 i
 80.35  27.5797  0 i
 80.4  33.5899  0 i
 80.45  26.2285  0 i
 80.5  25.0714  0 i
 80.55  21.0025  0 i
 80.6  24.0135  0 i
 80.65  27.3665  0 i
 80.7  27.8732  0 i
 80.75  32.1874  0 i
 80.8  23.8808  0 i
 80.85  33.5351  0 i
 80.9  28.6574  0 i
 80.95  39.0599  0 i
 81  21.2137  0 i
 81.05  23.3475  0 i
 81.1  33.5181  0 i
 81.15  28.3824  0 i
 81.2  24.109  0 i
 81.25  34.8612  0 i
 81.3  26.669  0 i
 81.35  31.1081  0 i
 81.4  21.5671  0 i
 81.45  23.7248  0 i
 81.5  36.631  0 i
 81.55  30.7954  0 i
 81.6  24.5838  0 i
 81.65  21.2864  0 i
 81.7  29.6555  0 i
 81.75  31.2043  0 i
 81.8  33.3823  0 i
 81.85  40.4804  0 i
 81.9  40.9304  0 i
 81.95  50.1613  0 i
 82  70.5181  0 i
 82.05  144.601  0 i
 82.1  254.033  0 i
 82.15  229.829  0 i
 82.2  176.514  0 i
 82.25  122.398  0 i
 82.3  75.9303  0 i
 82.35  52.8434  0 i
 82.4  38.9499  0 i
 82.45  43.7196  0 i
 82.5  36.3891  0 i
 82.55  35.2754  0 i
 82.6  32.8863  0 i
 82.65  25.2418  0 i
 82.7  25.816  0 i
 82.75  34.2742  0 i
 82.8  22.2622  0 i
 82.85  21.2394  0 i
 82.9  38.4829  0 i
 82.95  20.8952  0 i
 83  31.4522  0 i
 83.05  31.3891  0 i
 83.1  30.7587  0 i
 83.15  25.2803  0 i
 83.2  25.4317  0 i
 83.25  23.3089  0 i
 83.3  26.649  0 i
 83.35  25.461  0 i
 83.4  31.4052  0 i
 83.45  35.7629  0 i
 83.5  27.3343  0 i
 83.55  30.094  0 i
 83.6  26.384  0 i
 83.65  22.3345  0 i
 83.7  18.1831  0 i
 83.75  27.1833  0 i
 83.8  28.9474  0 i
 83.85  35.133  0 i
 83.9  24.5154  0 i
 83.95  28.6863  0 i
 84  24.5245  0 i
 84.05  33.3154  0 i
 84.1  26.6259  0 i
 84.15  26.0556  0 i
 84.2  26.7241  0 i
 84.25  33.8277  0 i
 84.3  27.0819  0 i
 84.35  35.2082  0 i
 84.4  22.3104  0 i
 84.45  36.2894  0 i
 84.5  28.8583  0 i
 84.55  17.4827  0 i
 84.6  32.1191  0 i
 84.65  21.9307  0 i
 84.7  25.309  0 i
 84.75  25.9019  0 i
 84.8  27.3326  0 i
 84.85  19.0997  0 i
 84.9  27.4175  0 i
 84.95  23.0944  0 i
 85  32.9495  0 i
 85.05  26.1719  0 i
 85.1  23.0724  0 i
 85.15  33.265  0 i
 85.2  34.5884  0 i
 85.25  26.8687  0 i
 85.3  27.5128  0 i
 85.35  30.8586  0 i
 85.4  12.7598  0 i
 85.45  25.9777  0 i
 85.5  27.0687  0 i
 85.55  25.3635  0 i
 85.6  21.2382  0 i
 85.65  35.0242  0 i
 85.7  25.1153  0 i
 85.75  26.7924  0 i
 85.8  30.1642  0 i
 85.85  43.6933  0 i
 85.9  26.1126  0 i
 85.95  23.1858  0 i
 86  27.8292  0 i
 86.05  32.8274  0 i
 86.1  28.6889  0 i
 86.15  23.6805  0 i
 86.2  34.0148  0 i
 86.25  23.6828  0 i
 86.3  25.7853  0 i
 86.35  31.3558  0 i
 86.4  21.9612  0 i
 86.45  25.6279  0 i
 86.5  25.0601  0 i
 86.55  24.9824  0 i
 86.6  24.7628  0 i
 86.65  29.5186  0 i
 86.7  35.0173  0 i
 86.75  22.0223  0 i
 86.8  19.7465  0 i
 86.85  20.8354  0 i
 86.9  25.0055  0 i
 86.95  29.1769  0 i
 87  34.4949  0 i
 87.05  40.7591  0 i
 87.1  29.1764  0 i
 87.15  25.5853  0 i
 87.2  26.5719  0 i
 87.25  30.8521  0 i
 87.3  32.5074  0 i
 87.35  27.0405  0 i
 87.4  23.9795  0 i
 87.45  23.1922  0 i
 87.5  22.7766  0 i
 87.55  26.1356  0 i
 87.6  25.9763  0 i
 87.65  33.2616  0 i
 87.7  23.92  0 i
 87.75  31.7661  0 i
 87.8  26.6464  0 i
 87.85  24.669  0 i
 87.9  17.8284  0 i
 87.95  27.2498  0 i
 88  21.2727  0 i
 88.05  20.8525  0 i
 88.1  32.9755  0 i
 88.15  34.9039  0 i
 88.2  29.8812  0 i
 88.25  30.4718  0 i
 88.3  24.08  0 i
 88.35  38.0807  0 i
 88.4  32.8856  0 i
 88.45  22.9332  0 i
 88.5  38.1254  0 i
 88.55  34.8059  0 i
 88.6  28.0062  0 i
 88.65  26.3006  0 i
 88.7  29.0274  0 i
 88.75  22.5761  0 i
 88.8  22.7803  0 i
 88.85  40.0954  0 i
 88.9  21.8689  0 i
 88.95  37.6408  0 i
 89  28.8244  0 i
 89.05  24.3904  0 i
 89.1  26.0496  0 i
 89.15  28.8353  0 i
 89.2  30.6101  0 i
 89.25  23.0617  0 i
 89.3  34.165  0 i
 89.35  26.2655  0 i
 89.4  28.9899  0 i
 89.45  42.0543  0 i
 89.5  30.514  0 i
 89.55  17.1647  0 i
 89.6  21.2694  0 i
 89.65  22.8673  0 i
 89.7  25.5906  0 i
 89.75  27.9247  0 i
 89.8  19.61  0 i
 89.85  37.6047  0 i
 89.9  23.8629  0 i
 89.95  29.8062  0 i
 90  29.2658  0 i
 90.05  27.6296  0 i
 90.1  20.5897  0 i
 90.15  34.7977  0 i
 90.2  25.6564  0 i
 90.25  30.1049  0 i
 90.3  30.9535  0 i
 90.35  42.5121  0 i
 90.4  28.3577  0 i
 90.45  36.2826  0 i
 90.5  25.4923  0 i
 90.55  26.1216  0 i
 90.6  25.1237  0 i
 90.65  30.1014  0 i
 90.7  30.3637  0 i
 90.75  35.4296  0 i
 90.8  32.7029  0 i
 90.85  28.329  0 i
 90.9  22.6368  0 i
 90.95  21.2067  0 i
 91  26.1303  0 i
 91.05  30.8658  0 i
 91.1  24.254  0 i
 91.15  31.9623  0 i
 91.2  31.7494  0 i
 91.25  27.5243  0 i
 91.3  26.9241  0 i
 91.35  27.9816  0 i
 91.4  24.5597  0 i
 91.45  15.3238  0 i
 91.5  36.0194  0 i
 91.55  25.0408  0 i
 91.6  28.8972  0 i
 91.65  24.767  0 i
 91.7  31.1488  0 i
 91.75  27.3029  0 i
 91.8  27.9962  0 i
 91.85  32.6278  0 i
 91.9  26.435  0 i
 91.95  38.7404  0 i
 92  25.8292  0 i
 92.05  33.1966  0 i
 92.1  38.6136  0 i
 92.15  28.5734  0 i
 92.2  31.9888  0 i
 92.25  28.1234  0 i
 92.3  25.0232  0 i
 92.35  30.473  0 i
 92.4  22.7709  0 i
 92.45  18.0112  0 i
 92.5  27.2397  0 i
 92.55  36.6763  0 i
 92.6  22.492  0 i
 92.65  25.5257  0 i
 92.7  29.1385  0 i
 92.75  34.5303  0 i
 92.8  34.2405  0 i
 92.85  28.7062  0 i
 92.9  27.8516  0 i
 92.95  25.3378  0 i
 93  22.3345  0 i
 93.05  22.2109  0 i
 93.1  36.0616  0 i
 93.15  40.4101  0 i
 93.2  24.3549  0 i
 93.25  27.7812  0 i
 93.3  28.2573  0 i
 93.35  20.5516  0 i
 93.4  24.7205  0 i
 93.45  24.6513  0 i
 93.5  20.6024  0 i
 93.55  22.3324  0 i
 93.6  37.5361  0 i
 93.65  28.042  0 i
 93.7  27.1656  0 i
 93.75  23.8494  0 i
 93.8  23.5172  0 i
 93.85  25.2002  0 i
 93.9  24.6154  0 i
 93.95  27.3342  0 i
 94  35.3063  0 i
 94.05  32.7997  0 i
 94.1  21.7881  0 i
 94.15  26.5504  0 i
 94.2  28.7991  0 i
 94.25  24.0113  0 i
 94.3  37.2662  0 i
 94.35  31.5799  0 i
 94.4  27.6821  0 i
 94.45  21.7926  0 i
 94.5  30.5608  0 i
 94.55  32.0852  0 i
 94.6  21.8502  0 i
 94.65  31.9765  0 i
 94.7  35.1805  0 i
 94.75  22.0039  0 i
 94.8  22.5896  0 i
 94.85  32.2109  0 i
 94.9  32.9523  0 i
 94.95  24.0688  0 i
 95  29.4986  0 i
 95.05  27.372  0 i
 95.1  22.7872  0 i
 95.15  23.1652  0 i
 95.2  43.0498  0 i
 95.25  21.3234  0 i
 95.3  24.5697  0 i
 95.35  23.5097  0 i
 95.4  21.6654  0 i
 95.45  30.1959  0 i
 95.5  34.0981  0 i
 95.55  24.1851  0 i
 95.6  31.7221  0 i
 95.65  30.4729  0 i
 95.7  35.2115  0 i
 95.75  33.0907  0 i
 95.8  21.7955  0 i
 95.85  41.1054  0 i
 95.9  21.9973  0 i
 95.95  31.3035  0 i
 96  34.8124  0 i
 96.05  24.8114  0 i
 96.1  28.5315  0 i
 96.15  33.168  0 i
 96.2  31.7149  0 i
 96.25  32.7377  0 i
 96.3  26.67  0 i
 96.35  21.3877  0 i
 96.4  24.7807  0 i
 96.45  30.843  0 i
 96.5  25.9687  0 i
 96.55  28.1905  0 i
 96.6  35.9452  0 i
 96.65  32.4477  0 i
 96.7  22.4308  0 i
 96.75  28.9586  0 i
 96.8  26.0486  0 i
 96.85  30.8504  0 i
 96.9  31.3176  0 i
 96.95  28.8074  0 i
 97  16.8985  0 i
 97.05  35.8772  0 i
 97.1  43.351  0 i
 97.15  33.7756  0 i
 97.2  30.2608  0 i
 97.25  27.9834  0 i
 97.3  16.3904  0 i
 97.35  21.712  0 i
 97.4  23.141  0 i
 97.45  36.859  0 i
 97.5  35.7874  0 i
 97.55  39.333  0 i
 97.6  28.9787  0 i
 97.65  21.9945  0 i
 97.7  29.3357  0 i
 97.75  20.3101  0 i
 97.8  22.0185  0 i
 97.85  29.0023  0 i
 97.9  22.1882  0 i
 97.95  28.7961  0 i
 98  20.4339  0 i
 98.05  26.0574  0 i
 98.1  26.74  0 i
 98.15  32.1394  0 i
 98.2  31.2603  0 i
 98.25  29.3094  0 i
 98.3  49.7937  0 i
 98.35  31.2042  0 i
 98.4  43.5115  0 i
 98.45  36.8971  0 i
 98.5  50.6461  0 i
 98.55  67.0707  0 i
 98.6  119.491  0 i
 98.65  158.017  0 i
 98.7  157.778  0 i
 98.75  148.649  0 i
 98.8  115.012  0 i
 98.85  51.2065  0 i
 98.9  50.5172  0 i
 98.95  33.8987  0 i
 99  35.8852  0 i
 99.05  26.1166  0 i
 99.1  29.9751  0 i
 99.15  20.7188  0 i
 99.2  28.6663  0 i
 99.25  26.4733  0 i
 99.3  33.8361  0 i
 99.35  25.5479  0 i
 99.4  28.6588  0 i
 99.45  24.1647  0 i
 99.5  32.8057  0 i
 99.55  34.7591  0 i
 99.6  30.1322  0 i
 99.65  28.2662  0 i
 99.7  29.6539  0 i
 99.75  21.3768  0 i
 99.8  24.8528  0 i
 99.85  26.8339  0 i
 99.9  21.2974  0 i
 99.95  27.1289  0 i
 100  32.1974  0 i
 100.05  36.3309  0 i
 100.1  27.9183  0 i
 100.15  27.6962  0 i
 100.2  19.1744  0 i
 100.25  23.7687  0 i
 100.3  27.8768  0 i
 100.35  27.4357  0 i
 100.4  26.9108  0 i
 100.45  27.8344  0 i
 100.5  34.1511  0 i
 100.55  24.1962  0 i
 100.6  26.0352  0 i
 100.65  35.4918  0 i
 100.7  27.0333  0 i
 100.75  23.0449  0 i
 100.8  33.203  0 i
 100.85  32.6481  0 i
 100.9  24.9771  0 i
 100.95  33.9687  0 i
 101  25.6901  0 i
 101.05  24.8406  0 i
 101.1  36.1035  0 i
 101.15  28.3767  0 i
 101.2  32.2131  0 i
 101.25  29.0517  0 i
 101.3  22.5542  0 i
 101.35  33.511  0 i
 101.4  37.1252  0 i
 101.45  24.7428  0 i
 101.5  40.7565  0 i
 101.55  18.5633  0 i
 101.6  25.6145  0 i
 101.65  34.5435  0 i
 101.7  24.2665  0 i
 101.75  22.323  0 i
 101.8  30.1632  0 i
 101.85  23.246  0 i
 101.9  29.0041  0 i
 101.95  29.5667  0 i
 102  18.3969  0 i
 102.05  26.9563  0 i
 102.1  26.6351  0 i
 102.15  29.5009  0 i
 102.2  32.9921  0 i
 102.25  28.0922  0 i
 102.3  23.1716  0 i
 102.35  26.1752  0 i
 102.4  31.4886  0 i
 102.45  37.2619  0 i
 102.5  34.3937  0 i
 102.55  25.784  0 i
 102.6  28.0921  0 i
 102.65  32.66  0 i
 102.7  28.4092  0 i
 102.75  31.7847  0 i
 102.8  28.9068  0 i
 102.85  21.8802  0 i
 102.9  23.5346  0 i
 102.95  27.8277  0 i
 103  22.6803  0 i
 103.05  26.1223  0 i
 103.1  25.6616  0 i
 103.15  36.2433  0 i
 103.2  34.2299  0 i
 103.25  30.7326  0 i
 103.3  29.5736  0 i
 103.35  31.5541  0 i
 103.4  29.7848  0 i
 103.45  33.7732  0 i
 103.5  36.1552  0 i
 103.55  36.0992  0 i
 103.6  27.0618  0 i
 103.65  24.1567  0 i
 103.7  24.181  0 i
 103.75  30.8501  0 i
 103.8  30.3214  0 i
 103.85  20.1474  0 i
 103.9  25.0625  0 i
 103.95  28.2095  0 i
 104  25.1407  0 i
 104.05  26.6662  0 i
 104.1  26.0158  0 i
 104.15  22.5668  0 i
 104.2  23.1125  0 i
 104.25  35.1644  0 i
 104.3  15.3686  0 i
 104.35  30.806  0 i
 104.4  27.9595  0 i
 104.45  35.8482  0 i
 104.5  35.2681  0 i
 104.55  27.4538  0 i
 104.6  28.919  0 i
 104.65  32.0123  0 i
 104.7  35.8117  0 i
 104.75  28.7886  0 i
 104.8  24.6363  0 i
 104.85  39.684  0 i
 104.9  36.9772  0 i
 104.95  29.56  0 i
 105  33.6668  0 i
 105.05  28.8701  0 i
 105.1  31.03  0 i
 105.15  32.813  0 i
 105.2  26.8495  0 i
 105.25  26.9485  0 i
 105.3  33.111  0 i
 105.35  37.9994  0 i
 105.4  25.8836  0 i
 105.45  37.5605  0 i
 105.5  32.4144  0 i
 105.55  19.2688  0 i
 105.6  33.1094  0 i
 105.65  30.0458  0 i
 105.7  24.4402  0 i
 105.75  31.5435  0 i
 105.8  28.0423  0 i
 105.85  25.7439  0 i
 105.9  28.0692  0 i
 105.95  27.3224  0 i
 106  27.2673  0 i
 106.05  31.4749  0 i
 106.1  22.4761  0 i
 106.15  22.623  0 i
 106.2  30.8322  0 i
 106.25  18.153  0 i
 106.3  28.9253  0 i
 106.35  32.8292  0 i
 106.4  23.6627  0 i
 106.45  29.846  0 i
 106.5  35.6564  0 i
 106.55  33.816  0 i
 106.6  27.3073  0 i
 106.65  23.4263  0 i
 106.7  29.5872  0 i
 106.75  30.5373  0 i
 106.8  15.6452  0 i
 106.85  23.4249  0 i
 106.9  24.8303  0 i
 106.95  30.4407  0 i
 107  35.1806  0 i
 107.05  27.1029  0 i
 107.1  30.8057  0 i
 107.15  24.9061  0 i
 107.2  24.4304  0 i
 107.25  25.8438  0 i
 107.3  32.984  0 i
 107.35  17.1043  0 i
 107.4  27.4478  0 i
 107.45  28.7048  0 i
 107.5  18.6144  0 i
 107.55  28.7158  0 i
 107.6  36.7863  0 i
 107.65  28.1537  0 i
 107.7  34.6532  0 i
 107.75  28.8334  0 i
 107.8  19.4314  0 i
 107.85  26.8625  0 i
 107.9  34.8003  0 i
 107.95  33.8762  0 i
 108  30.7618  0 i
 108.05  20.1142  0 i
 108.1  25.6871  0 i
 108.15  21.7387  0 i
 108.2  24.4999  0 i
 108.25  22.8829  0 i
 108.3  31.9693  0 i
 108.35  30.3254  0 i
 108.4  38.0771  0 i
 108.45  26.7024  0 i
 108.5  32.683  0 i
 108.55  27.4351  0 i
 108.6  28.7355  0 i
 108.65  22.7972  0 i
 108.7  25.8262  0 i
 108.75  16.1715  0 i
 108.8  26.0915  0 i
 108.85  28.6445  0 i
 108.9  28.6246  0 i
 108.95  30.6209  0 i
 109  23.3787  0 i
 109.05  26.2511  0 i
 109.1  28.9388  0 i
 109.15  34.0374  0 i
 109.2  22.0808  0 i
 109.25  38.6514  0 i
 109.3  25.7183  0 i
 109.35  24.9364  0 i
 109.4  37.3909  0 i
 109.45  32.9681  0 i
 109.5  27.0258  0 i
 109.55  30.9007  0 i
 109.6  27.3152  0 i
 109.65  20.8261  0 i
 109.7  26.8787  0 i
 109.75  32.9971  0 i
 109.8  28.2267  0 i
 109.85  28.4025  0 i
 109.9  33.5743  0 i
 109.95  22.1555  0 i
 110  26.014  0 i
 110.05  24.1157  0 i
 110.1  25.2783  0 i
 110.15  35.9846  0 i
 110.2  29.0691  0 i
 110.25  30.7149  0 i
 110.3  29.6092  0 i
 110.35  36.758  0 i
 110.4  37.9132  0 i
 110.45  27.2367  0 i
 110.5  38.7749  0 i
 110.55  32.8448  0 i
 110.6  28.2686  0 i
 110.65  31.9426  0 i
 110.7  37.7777  0 i
 110.75  36.4271  0 i
 110.8  25.9544  0 i
 110.85  37.5181  0 i
 110.9  31.3692  0 i
 110.95  22.4559  0 i
 111  22.9232  0 i
 111.05  26.8215  0 i
 111.1  28.9773  0 i
 111.15  22.951  0 i
 111.2  34.7049  0 i
 111.25  27.8861  0 i
 111.3  39.8203  0 i
 111.35  32.889  0 i
 111.4  27.5886  0 i
 111.45  28.6182  0 i
 111.5  27.8497  0 i
 111.55  31.6931  0 i
 111.6  31.5521  0 i
 111.65  25.2683  0 i
 111.7  26.9301  0 i
 111.75  41.587  0 i
 111.8  35.4434  0 i
 111.85  30.1967  0 i
 111.9  36.9811  0 i
 111.95  30.0204  0 i
 112  25.6799  0 i
 112.05  37.8199  0 i
 112.1  28.197  0 i
 112.15  33.6295  0 i
 112.2  28.3081  0 i
 112.25  32.9798  0 i
 112.3  40.4289  0 i
 112.35  26.3053  0 i
 112.4  25.7104  0 i
 112.45  21.6348  0 i
 112.5  25.473  0 i
 112.55  21.7461  0 i
 112.6  22.9951  0 i
 112.65  27.1873  0 i
 112.7  25.6782  0 i
 112.75  34.0315  0 i
 112.8  26.1966  0 i
 112.85  28.693  0 i
 112.9  24.0664  0 i
 112.95  30.0231  0 i
 113  24.6863  0 i
 113.05  19.1168  0 i
 113.1  26.7025  0 i
 113.15  31.0742  0 i
 113.2  28.7896  0 i
 113.25  30.6546  0 i
 113.3  20.0511  0 i
 113.35  16.531  0 i
 113.4  24.6309  0 i
 113.45  27.0537  0 i
 113.5  35.8163  0 i
 113.55  24.6748  0 i
 113.6  24.6435  0 i
 113.65  34.0679  0 i
 113.7  29.0218  0 i
 113.75  28.8212  0 i
 113.8  32.2813  0 i
 113.85  27.8946  0 i
 113.9  23.8047  0 i
 113.95  21.9496  0 i
 114  21.6186  0 i
 114.05  30.489  0 i
 114.1  24.2474  0 i
 114.15  28.7949  0 i
 114.2  28.2023  0 i
 114.25  27.2471  0 i
 114.3  28.9241  0 i
 114.35  30.4661  0 i
 114.4  28.0855  0 i
 114.45  22.8286  0 i
 114.5  34.0496  0 i
 114.55  30.8982  0 i
 114.6  29.9646  0 i
 114.65  24.3744  0 i
 114.7  23.4444  0 i
 114.75  27.5552  0 i
 114.8  24.1802  0 i
 114.85  20.3839  0 i
 114.9  37.741  0 i
 114.95  30.4569  0 i
 115  33.0686  0 i
 115.05  26.9017  0 i
 115.1  26.1061  0 i
 115.15  30.5969  0 i
 115.2  32.0667  0 i
 115.25  35.288  0 i
 115.3  34.7726  0 i
 115.35  37.1889  0 i
 115.4  32.1423  0 i
 115.45  28.0505  0 i
 115.5  24.4849  0 i
 115.55  37.6239  0 i
 115.6  34.1253  0 i
 115.65  48.4538  0 i
 115.7  37.4318  0 i
 115.75  45.2105  0 i
 115.8  67.231  0 i
 115.85  59.4893  0 i
 115.9  94.6601  0 i
 115.95  144.584  0 i
 116  141.757  0 i
 116.05  128.767  0 i
 116.1  94.525  0 i
 116.15  63.7108  0 i
 116.2  61.7448  0 i
 116.25  50.3241  0 i
 116.3  47.7082  0 i
 116.35  34.4564  0 i
 116.4  34.9052  0 i
 116.45  32.8496  0 i
 116.5  29.4739  0 i
 116.55  32.0379  0 i
 116.6  22.2187  0 i
 116.65  30.5096  0 i
 116.7  30.7309  0 i
 116.75  33.5207  0 i
 116.8  24.3649  0 i
 116.85  24.2318  0 i
 116.9  39.3442  0 i
 116.95  28.1758  0 i
 117  28.5652  0 i
 117.05  36.484  0 i
 117.1  19.1094  0 i
 117.15  35.8026  0 i
 117.2  27.99  0 i
 117.25  36.2023  0 i
 117.3  27.104  0 i
 117.35  30.1577  0 i
 117.4  25.2757  0 i
 117.45  23.0475  0 i
 117.5  23.6185  0 i
 117.55  34.5154  0 i
 117.6  32.8332  0 i
 117.65  23.2923  0 i
 117.7  31.4391  0 i
 117.75  23.9529  0 i
 117.8  29.5111  0 i
 117.85  26.1026  0 i
 117.9  39.0493  0 i
 117.95  39.9875  0 i
 118  36.0221  0 i
 118.05  32.0539  0 i
 118.1  30.796  0 i
 118.15  24.0617  0 i
 118.2  20.586  0 i
 118.25  29.7298  0 i
 118.3  25.7534  0 i
 118.35  26.5424  0 i
 118.4  36.5004  0 i
 118.45  35.2296  0 i
 118.5  31.5324  0 i
 118.55  28.3609  0 i
 118.6  22.6857  0 i
 118.65  28.2563  0 i
 118.7  35.1556  0 i
 118.75  36.1356  0 i
 118.8  26.5602  0 i
 118.85  25.4171  0 i
 118.9  29.2239  0 i
 118.95  31.0331  0 i
 119  23.3965  0 i
 119.05  33.3556  0 i
 119.1  37.2505  0 i
 119.15  25.6728  0 i
 119.2  27.7494  0 i
 119.25  26.3517  0 i
 119.3  33.8515  0 i
 119.35  26.6498  0 i
 119.4  25.7228  0 i
 119.45  35.301  0 i
 119.5  20.1007  0 i
 119.55  19.1356  0 i
 119.6  21.5383  0 i
 119.65  33.3285  0 i
 119.7  24.8916  0 i
 119.75  26.5355  0 i
 119.8  27.6098  0 i
 119.85  25.3246  0 i
 119.9  29.4298  0 i
 119.95  28.4909  0 i
 120  34.252  0 i
 120.05  21.6152  0 i
 120.1  27.3423  0 i
 120.15  23.7743  0 i
 120.2  22.8007  0 i
 120.25  22.4491  0 i
 120.3  38.5682  0 i
 120.35  31.9475  0 i
 120.4  23.3616  0 i
 120.45  24.535  0 i
 120.5  28.4326  0 i
 120.55  25.9654  0 i
 120.6  25.5815  0 i
 120.65  30.4376  0 i
 120.7  22.3455  0 i
 120.75  23.2065  0 i
 120.8  30.5278  0 i
 120.85  30.2621  0 i
 120.9  29.5875  0 i
 120.95  23.0347  0 i
 121  19.9917  0 i
 121.05  35.2773  0 i
 121.1  31.213  0 i
 121.15  25.6331  0 i
 121.2  26.1851  0 i
 121.25  22.0999  0 i
 121.3  25.6882  0 i
 121.35  29.8206  0 i
 121.4  26.5452  0 i
 121.45  22.7427  0 i
 121.5  27.5782  0 i
 121.55  29.7882  0 i
 121.6  35.7543  0 i
 121.65  24.4633  0 i
 121.7  22.6855  0 i
 121.75  36.9384  0 i
 121.8  25.4362  0 i
 121.85  24.993  0 i
 121.9  34.472  0 i
 121.95  25.6806  0 i
 122  33.1486  0 i
 122.05  34.27  0 i
 122.1  23.219  0 i
 122.15  20.2006  0 i
 122.2  21.9767  0 i
 122.25  31.682  0 i
 122.3  28.1745  0 i
 122.35  29.8133  0 i
 122.4  33.7465  0 i
 122.45  32.9009  0 i
 122.5  37.4687  0 i
 122.55  33.0099  0 i
 122.6  23.7709  0 i
 122.65  31.9646  0 i
 122.7  29.077  0 i
 122.75  25.7536  0 i
 122.8  27.3734  0 i
 122.85  37.2796  0 i
 122.9  34.2224  0 i
 122.95  33.1337  0 i
 123  26.7209  0 i
 123.05  21.4402  0 i
 123.1  32.7513  0 i
 123.15  20.2281  0 i
 123.2  17.2392  0 i
 123.25  30.5351  0 i
 123.3  29.8534  0 i
 123.35  37.4153  0 i
 123.4  21.9362  0 i
 123.45  24.1485  0 i
 123.5  31.1761  0 i
 123.55  29.8565  0 i
 123.6  30.445  0 i
 123.65  27.7418  0 i
 123.7  23.0619  0 i
 123.75  25.2135  0 i
 123.8  36.3756  0 i
 123.85  28.0079  0 i
 123.9  24.6892  0 i
 123.95  25.6204  0 i
 124  18.4973  0 i
 124.05  28.5239  0 i
 124.1  30.4898  0 i
 124.15  29.2637  0 i
 124.2  22.1927  0 i
 124.25  30.6161  0 i
 124.3  22.0409  0 i
 124.35  32.2578  0 i
 124.4  37.3233  0 i
 124.45  25.3629  0 i
 124.5  24.011  0 i
 124.55  37.7854  0 i
 124.6  27.9334  0 i
 124.65  22.6596  0 i
 124.7  25.2765  0 i
 124.75  30.3241  0 i
 124.8  32.4618  0 i
 124.85  29.3643  0 i
 124.9  18.0964  0 i
 124.95  22.7758  0 i
 125  28.6632  0 i
 125.05  30.7991  0 i
 125.1  32.1372  0 i
 125.15  26.6041  0 i
 125.2  26.4245  0 i
 125.25  33.4338  0 i
 125.3  26.9248  0 i
 125.35  22.831  0 i
 125.4  23.792  0 i
 125.45  24.1064  0 i
 125.5  29.3169  0 i
 125.55  39.0561  0 i
 125.6  30.4863  0 i
 125.65  30.3987  0 i
 125.7  26.8117  0 i
 125.75  29.652  0 i
 125.8  33.0547  0 i
 125.85  33.8441  0 i
 125.9  28.9652  0 i
 125.95  21.8807  0 i
 126  30.3326  0 i
 126.05  27.9172  0 i
 126.1  24.7208  0 i
 126.15  21.8144  0 i
 126.2  34.93  0 i
 126.25  34.6121  0 i
 126.3  25.9964  0 i
 126.35  28.7269  0 i
 126.4  18.5258  0 i
 126.45  30.786  0 i
 126.5  27.9864  0 i
 126.55  25.1785  0 i
 126.6  39.0431  0 i
 126.65  19.2242  0 i
 126.7  33.5397  0 i
 126.75  35.8698  0 i
 126.8  24.423  0 i
 126.85  33.8856  0 i
 126.9  29.9352  0 i
 126.95  29.3516  0 i
 127  15.3591  0 i
 127.05  25.2289  0 i
 127.1  27.5839  0 i
 127.15  20.2396  0 i
 127.2  27.0598  0 i
 127.25  34.7488  0 i
 127.3  33.1073  0 i
 127.35  28.3193  0 i
 127.4  35.2267  0 i
 127.45  26.4503  0 i
 127.5  31.7992  0 i
 127.55  27.5948  0 i
 127.6  37.0528  0 i
 127.65  24.5105  0 i
 127.7  25.3667  0 i
 127.75  29.7392  0 i
 127.8  27.1855  0 i
 127.85  24.5587  0 i
 127.9  32.6241  0 i
 127.95  26.4434  0 i
 128  32.6896  0 i
 128.05  28.2431  0 i
 128.1  21.1026  0 i
 128.15  26.2707  0 i
 128.2  25.3603  0 i
 128.25  27.3882  0 i
 128.3  29.5746  0 i
 128.35  28.7379  0 i
 128.4  31.2443  0 i
 128.45  37.1392  0 i
 128.5  21.4022  0 i
 128.55  38.5442  0 i
 128.6  25.5649  0 i
 128.65  24.5039  0 i
 128.7  34.686  0 i
 128.75  29.8721  0 i
 128.8  30.8749  0 i
 128.85  32.9807  0 i
 128.9  34.5546  0 i
 128.95  21.9973  0 i
 129  29.271  0 i
 129.05  31.7743  0 i
 129.1  28.5465  0 i
 129.15  28.9152  0 i
 129.2  25.3186  0 i
 129.25  23.372  0 i
 129.3  36.7155  0 i
 129.35  29.2359  0 i
 129.4  36.5041  0 i
 129.45  30.1257  0 i
 129.5  21.2102  0 i
 129.55  18.5405  0 i
 129.6  27.4479  0 i
 129.65  31.6242  0 i
 129.7  31.0695  0 i
 129.75  18.1259  0 i
 129.8  30.2851  0 i
 129.85  20.4947  0 i
 129.9  26.5424  0 i
 129.95  32.4653  0 i
 130  33.2148  0 i

