
#Surface 0 of 1 surfaces

#IsoCurve 0, 1801 points
#x y z type
 40  55.7227  34.2716 i
 40.05  28.6826  34.2633 i
 40.1  26.5738  34.2547 i
 40.15  38.7486  34.2452 i
 40.2  33.6936  34.2357 i
 40.25  31.863  34.2247 i
 40.3  31.8983  34.2136 i
 40.35  41.7402  34.2024 i
 40.4  33.4792  34.1911 i
 40.45  22.2887  34.1812 i
 40.5  35.7699  34.1714 i
 40.55  42.149  34.1628 i
 40.6  44.89  34.1542 i
 40.65  36.4175  34.1453 i
 40.7  34.5694  34.1363 i
 40.75  29.5307  34.1256 i
 40.8  33.2739  34.115 i
 40.85  26.0808  34.1033 i
 40.9  39.9849  34.0917 i
 40.95  32.3165  34.0809 i
 41  33.8258  34.0702 i
 41.05  39.5047  34.0613 i
 41.1  31.253  34.0523 i
 41.15  48.0634  34.0439 i
 41.2  40.8305  34.0354 i
 41.25  39.2888  34.0256 i
 41.3  25.9343  34.0157 i
 41.35  39.6463  34.0041 i
 41.4  32.8849  33.9926 i
 41.45  35.4859  33.9811 i
 41.5  48.3811  33.9697 i
 41.55  31.098  33.9602 i
 41.6  32.4965  33.9507 i
 41.65  41.6645  33.9427 i
 41.7  36.258  33.9346 i
 41.75  34.6665  33.926 i
 41.8  43.3601  33.9173 i
 41.85  30.7606  33.9066 i
 41.9  36.3024  33.896 i
 41.95  36.746  33.8845 i
 42  40.9979  33.8729 i
 42.05  36.8856  33.863 i
 42.1  31.0777  33.853 i
 42.15  35.2813  33.8455 i
 42.2  39.0704  33.838 i
 42.25  35.9462  33.8312 i
 42.3  33.3761  33.8244 i
 42.35  34.917  33.816 i
 42.4  33.0687  33.8076 i
 42.45  34.6104  33.7976 i
 42.5  43.2619  33.7877 i
 42.55  33.5463  33.7785 i
 42.6  27.6201  33.7694 i
 42.65  41.3789  33.7635 i
 42.7  26.4052  33.7575 i
 42.75  28.0191  33.7544 i
 42.8  36.009  33.7512 i
 42.85  40.3983  33.7483 i
 42.9  31.5457  33.7455 i
 42.95  36.8714  33.7416 i
 43  41.3278  33.7377 i
 43.05  36.7346  33.7347 i
 43.1  31.1982  33.7317 i
 43.15  31.278  33.7336 i
 43.2  43.2909  33.7356 i
 43.25  32.2588  33.7459 i
 43.3  37.004  33.7561 i
 43.35  28.2428  33.7946 i
 43.4  33.5423  33.833 i
 43.45  29.3802  34.0873 i
 43.5  32.86  34.3415 i
 43.55  46.7686  34.4267 i
 43.6  45.0218  34.5118 i
 43.65  36.7472  34.6281 i
 43.7  33.4313  34.7444 i
 43.75  38.2312  34.9186 i
 43.8  35.6677  35.0928 i
 43.85  33.6251  35.3626 i
 43.9  35.1907  35.6324 i
 43.95  44.4648  36.0707 i
 44  41.6606  36.5091 i
 44.05  42.297  37.2852 i
 44.1  40.3743  38.0613 i
 44.15  29.365  39.6308 i
 44.2  44.2563  41.2004 i
 44.25  54.9992  44.16 i
 44.3  57.8887  49.3908 i
 44.35  74.8963  61.627 i
 44.4  72.7155  102.706 i
 44.45  168.858  253.411 i
 44.5  599.097  681.74 i
 44.55  1606.97  1459.72 i
 44.6  2109.79  2170.32 i
 44.65  1372.2  1691.49 i
 44.7  469.641  335.75 i
 44.75  151.686  94.3915 i
 44.8  80.5065  59.8391 i
 44.85  60.9408  48.2882 i
 44.9  48.1521  42.4211 i
 44.95  51.4195  39.3986 i
 45  36.7361  37.5936 i
 45.05  46.4061  36.6299 i
 45.1  42.3267  35.6663 i
 45.15  31.9864  35.196 i
 45.2  34.2643  34.7257 i
 45.25  31.6311  34.4613 i
 45.3  40.1556  34.1969 i
 45.35  26.0131  34.0334 i
 45.4  37.9658  33.8698 i
 45.45  34.7544  33.7629 i
 45.5  32.3813  33.6561 i
 45.55  31.736  33.5828 i
 45.6  33.5071  33.5095 i
 45.65  31.6429  33.4542 i
 45.7  32.6337  33.399 i
 45.75  28.9816  33.3472 i
 45.8  31.7486  33.2954 i
 45.85  34.3914  33.2044 i
 45.9  33.6089  33.1134 i
 45.95  39.6561  33.0808 i
 46  42.4936  33.0483 i
 46.05  37.2302  33.0228 i
 46.1  35.7755  32.9974 i
 46.15  39.7924  32.9762 i
 46.2  26.9957  32.9549 i
 46.25  25.9075  32.9345 i
 46.3  20.8216  32.914 i
 46.35  43.3326  32.8929 i
 46.4  33.3707  32.8717 i
 46.45  31.6212  32.8512 i
 46.5  35.7525  32.8308 i
 46.55  35.6168  32.8134 i
 46.6  36.0946  32.7959 i
 46.65  34.0144  32.7816 i
 46.7  37.6392  32.7673 i
 46.75  44.9356  32.7537 i
 46.8  29.6987  32.74 i
 46.85  35.5425  32.7244 i
 46.9  21.8129  32.7088 i
 46.95  27.0798  32.6912 i
 47  25.8457  32.6735 i
 47.05  33.4484  32.6561 i
 47.1  34.717  32.6386 i
 47.15  35.0782  32.6236 i
 47.2  32.2896  32.6085 i
 47.25  31.3516  32.5954 i
 47.3  40.0397  32.5824 i
 47.35  39.73  32.5693 i
 47.4  37.5825  32.5561 i
 47.45  37.7096  32.5415 i
 47.5  38.0474  32.5268 i
 47.55  23.2918  32.5113 i
 47.6  27.9807  32.4959 i
 47.65  24.2463  32.4813 i
 47.7  32.6797  32.4668 i
 47.75  41.193  32.4539 i
 47.8  29.2822  32.4409 i
 47.85  42.3623  32.4282 i
 47.9  35.9084  32.4156 i
 47.95  31.7228  32.4015 i
 48  37.664  32.3874 i
 48.05  32.7183  32.3719 i
 48.1  27.7056  32.3564 i
 48.15  24.5594  32.3412 i
 48.2  27.3137  32.3261 i
 48.25  32.8702  32.3128 i
 48.3  42.7607  32.2996 i
 48.35  19.8353  32.2878 i
 48.4  28.5852  32.2761 i
 48.45  21.6735  32.2638 i
 48.5  32.5528  32.2515 i
 48.55  32.2905  32.2373 i
 48.6  38.8298  32.223 i
 48.65  35.9491  32.2075 i
 48.7  29.2283  32.1919 i
 48.75  35.1259  32.177 i
 48.8  32.5536  32.1622 i
 48.85  32.4112  32.1492 i
 48.9  27.5504  32.1363 i
 48.95  29.4193  32.1245 i
 49  22.2384  32.1127 i
 49.05  31.5896  32.1002 i
 49.1  33.8249  32.0876 i
 49.15  36.4132  32.0733 i
 49.2  30.4109  32.059 i
 49.25  20.0335  32.0442 i
 49.3  25.9366  32.0295 i
 49.35  37.1494  32.0151 i
 49.4  25.1495  32.0007 i
 49.45  22.8866  31.9879 i
 49.5  27.5  31.9751 i
 49.55  28.2271  31.9629 i
 49.6  28.2282  31.9507 i
 49.65  24.2782  31.9377 i
 49.7  24.7827  31.9247 i
 49.75  30.109  31.9104 i
 49.8  39.8542  31.8961 i
 49.85  34.5648  31.8814 i
 49.9  29.2377  31.8668 i
 49.95  29.1087  31.8531 i
 50  22.5373  31.8394 i
 50.05  35.6871  31.8267 i
 50.1  23.426  31.8141 i
 50.15  38.9089  31.8015 i
 50.2  48.8366  31.7889 i
 50.25  38.8023  31.7754 i
 50.3  29.7623  31.7618 i
 50.35  25.1638  31.7474 i
 50.4  31.7831  31.733 i
 50.45  28.571  31.7188 i
 50.5  24.3959  31.7046 i
 50.55  29.4049  31.6913 i
 50.6  32.7648  31.6781 i
 50.65  28.239  31.6655 i
 50.7  33.6081  31.653 i
 50.75  42.016  31.64 i
 50.8  39.4206  31.6271 i
 50.85  34.5228  31.6131 i
 50.9  32.7798  31.5992 i
 50.95  26.7751  31.5848 i
 51  29.9125  31.5703 i
 51.05  27.0416  31.5565 i
 51.1  22.2526  31.5426 i
 51.15  27.9885  31.5297 i
 51.2  29.1475  31.5169 i
 51.25  35.6823  31.5044 i
 51.3  26.486  31.4919 i
 51.35  30.0686  31.4786 i
 51.4  33.1151  31.4653 i
 51.45  25.9984  31.451 i
 51.5  26.6738  31.4367 i
 51.55  27.2025  31.4223 i
 51.6  20.7852  31.4079 i
 51.65  30.9938  31.3944 i
 51.7  35.1939  31.381 i
 51.75  28.9911  31.3686 i
 51.8  32.2528  31.3562 i
 51.85  29.6636  31.3436 i
 51.9  29.7554  31.331 i
 51.95  20.8289  31.3172 i
 52  31.9077  31.3033 i
 52.05  26.1338  31.2887 i
 52.1  38.349  31.274 i
 52.15  31.8081  31.2599 i
 52.2  38.335  31.2458 i
 52.25  25.0255  31.2332 i
 52.3  24.5313  31.2205 i
 52.35  24.145  31.2083 i
 52.4  34.2513  31.1961 i
 52.45  26.3017  31.1829 i
 52.5  29.6817  31.1697 i
 52.55  31.92  31.1552 i
 52.6  35.2658  31.1407 i
 52.65  28.4314  31.1263 i
 52.7  19.0472  31.1119 i
 52.75  31.6919  31.0987 i
 52.8  28.1912  31.0856 i
 52.85  31.0868  31.0733 i
 52.9  33.6036  31.0609 i
 52.95  35.9052  31.0481 i
 53  33.6891  31.0353 i
 53.05  25.9197  31.0214 i
 53.1  32.9452  31.0076 i
 53.15  34.3104  30.9934 i
 53.2  33.2463  30.9792 i
 53.25  32.8923  30.9655 i
 53.3  33.4339  30.9519 i
 53.35  27.4175  30.9388 i
 53.4  37.8184  30.9258 i
 53.45  33.3714  30.9131 i
 53.5  33.4621  30.9004 i
 53.55  26.1158  30.8875 i
 53.6  29.0745  30.8746 i
 53.65  32.6748  30.861 i
 53.7  32.8235  30.8475 i
 53.75  24.8576  30.8333 i
 53.8  28.5277  30.8192 i
 53.85  25.8652  30.8053 i
 53.9  39.6133  30.7915 i
 53.95  41.9358  30.7788 i
 54  35.7307  30.766 i
 54.05  31.3318  30.7538 i
 54.1  32.4455  30.7416 i
 54.15  28.2511  30.7286 i
 54.2  36.0136  30.7155 i
 54.25  33.1034  30.7013 i
 54.3  26.5916  30.6871 i
 54.35  34.0396  30.6731 i
 54.4  29.0901  30.659 i
 54.45  46.4141  30.6459 i
 54.5  44.7664  30.6331 i
 54.55  39.4566  30.6207 i
 54.6  26.9851  30.6083 i
 54.65  19.8333  30.5955 i
 54.7  30.0497  30.5828 i
 54.75  30.5395  30.5695 i
 54.8  28.9863  30.5562 i
 54.85  24.2535  30.5424 i
 54.9  34.653  30.5287 i
 54.95  22.5389  30.5149 i
 55  33.7731  30.5011 i
 55.05  35.7291  30.4881 i
 55.1  38.0601  30.475 i
 55.15  25.1643  30.4629 i
 55.2  32.3021  30.4507 i
 55.25  24.0106  30.4382 i
 55.3  27.8346  30.4258 i
 55.35  21.5658  30.4121 i
 55.4  34.8816  30.3985 i
 55.45  17.0732  30.3845 i
 55.5  32.2814  30.3706 i
 55.55  25.7813  30.3574 i
 55.6  26.7114  30.3442 i
 55.65  35.7612  30.3317 i
 55.7  28.0057  30.3192 i
 55.75  25.4608  30.3068 i
 55.8  39.8375  30.2945 i
 55.85  42.7593  30.2818 i
 55.9  34.2405  30.2691 i
 55.95  31.0758  30.2557 i
 56  26.4171  30.2423 i
 56.05  32.249  30.2285 i
 56.1  29.1533  30.2147 i
 56.15  26.0325  30.2016 i
 56.2  32.7729  30.1885 i
 56.25  27.0118  30.1765 i
 56.3  43.3698  30.1644 i
 56.35  32.0899  30.1522 i
 56.4  30.4914  30.1401 i
 56.45  37.6544  30.1271 i
 56.5  37.1683  30.1141 i
 56.55  33.8272  30.1007 i
 56.6  45.7764  30.0873 i
 56.65  38.7923  30.0739 i
 56.7  30.6653  30.0605 i
 56.75  32.7747  30.0478 i
 56.8  26.6359  30.035 i
 56.85  29.6076  30.023 i
 56.9  23.3628  30.0111 i
 56.95  28.2034  29.9991 i
 57  26.887  29.987 i
 57.05  39.4313  29.974 i
 57.1  23.9638  29.961 i
 57.15  42.5338  29.9479 i
 57.2  39.254  29.9342 i
 57.25  35.5393  29.9211 i
 57.3  28.6665  29.9081 i
 57.35  28.4662  29.8957 i
 57.4  31.2276  29.8834 i
 57.45  35.3085  29.8716 i
 57.5  28.1452  29.8597 i
 57.55  28.6635  29.8477 i
 57.6  29.5091  29.8357 i
 57.65  24.4024  29.8228 i
 57.7  35.8586  29.8098 i
 57.75  33.987  29.7965 i
 57.8  24.9675  29.7832 i
 57.85  35.1365  29.7705 i
 57.9  24.4877  29.7578 i
 57.95  31.2504  29.7458 i
 58  32.813  29.7338 i
 58.05  25.7129  29.7221 i
 58.1  32.5146  29.7105 i
 58.15  33.0604  29.6985 i
 58.2  46.6511  29.6865 i
 58.25  21.2438  29.6736 i
 58.3  28.1842  29.6607 i
 58.35  32.2866  29.6476 i
 58.4  27.24  29.6346 i
 58.45  31.2712  29.6222 i
 58.5  29.6491  29.6098 i
 58.55  25.1999  29.5981 i
 58.6  34.3002  29.5864 i
 58.65  27.2395  29.575 i
 58.7  29.7736  29.5635 i
 58.75  26.6545  29.5515 i
 58.8  26.9603  29.5395 i
 58.85  22.5924  29.5267 i
 58.9  28.0361  29.514 i
 58.95  23.9961  29.5012 i
 59  36.9282  29.4884 i
 59.05  24.7928  29.4764 i
 59.1  28.8686  29.4643 i
 59.15  26.9146  29.453 i
 59.2  36.8952  29.4416 i
 59.25  25.891  29.4303 i
 59.3  23.8485  29.4191 i
 59.35  27.2015  29.4071 i
 59.4  30.119  29.3952 i
 59.45  21.4791  29.3826 i
 59.5  23.0027  29.37 i
 59.55  26.1308  29.3575 i
 59.6  26.3654  29.345 i
 59.65  28.4427  29.3333 i
 59.7  35.6489  29.3216 i
 59.75  30.1377  29.3106 i
 59.8  30.9341  29.2996 i
 59.85  43.281  29.2884 i
 59.9  23.3335  29.2773 i
 59.95  31.651  29.2639 i
 60  36.6642  29.2504 i
 60.05  28.6641  29.2387 i
 60.1  39.3226  29.227 i
 60.15  25.4082  29.2151 i
 60.2  22.0362  29.2031 i
 60.25  27.6109  29.1913 i
 60.3  35.273  29.1794 i
 60.35  38.2964  29.1681 i
 60.4  19.7908  29.1567 i
 60.45  31.7876  29.1456 i
 60.5  31.2211  29.1346 i
 60.55  27.3334  29.1235 i
 60.6  34.9323  29.1124 i
 60.65  20.4746  29.1009 i
 60.7  28.6413  29.0894 i
 60.75  19.8343  29.0776 i
 60.8  29.3831  29.0659 i
 60.85  36.5121  29.0544 i
 60.9  31.7995  29.0429 i
 60.95  18.3093  29.0319 i
 61  21.6002  29.0209 i
 61.05  23.7  29.0102 i
 61.1  25.9622  28.9995 i
 61.15  22.3677  28.9887 i
 61.2  24.7704  28.9779 i
 61.25  31.8411  28.9666 i
 61.3  30.1749  28.9554 i
 61.35  27.2445  28.944 i
 61.4  28.2259  28.9325 i
 61.45  20.0569  28.9213 i
 61.5  25.9097  28.9102 i
 61.55  38.3898  28.8996 i
 61.6  30.5221  28.889 i
 61.65  29.6792  28.8788 i
 61.7  25.5221  28.8685 i
 61.75  35.8097  28.8581 i
 61.8  32.341  28.8476 i
 61.85  24.636  28.8368 i
 61.9  32.1178  28.8259 i
 61.95  21.3482  28.8148 i
 62  24.798  28.8037 i
 62.05  28.6977  28.793 i
 62.1  18.8648  28.7823 i
 62.15  25.9337  28.7722 i
 62.2  26.7748  28.7622 i
 62.25  29.5327  28.7525 i
 62.3  35.5458  28.7428 i
 62.35  27.1094  28.733 i
 62.4  18.8688  28.7231 i
 62.45  26.3534  28.7128 i
 62.5  29.62  28.7025 i
 62.55  21.4214  28.692 i
 62.6  22.1652  28.6815 i
 62.65  23.9468  28.6715 i
 62.7  31.0413  28.6615 i
 62.75  33.0903  28.6524 i
 62.8  25.4034  28.6432 i
 62.85  31.9102  28.6346 i
 62.9  29.4265  28.626 i
 62.95  24.1254  28.6174 i
 63  30.2606  28.6087 i
 63.05  35.4757  28.5997 i
 63.1  35.7638  28.5908 i
 63.15  37.7686  28.5818 i
 63.2  48.7181  28.573 i
 63.25  41.8503  28.5647 i
 63.3  36.4916  28.5572 i
 63.35  26.9767  28.551 i
 63.4  39.8937  28.5447 i
 63.45  36.168  28.5407 i
 63.5  25.1634  28.5367 i
 63.55  33.4487  28.5406 i
 63.6  26.051  28.5445 i
 63.65  40.0898  28.601 i
 63.7  31.1353  28.6576 i
 63.75  36.5723  28.6752 i
 63.8  30.7594  28.6928 i
 63.85  36.2971  28.7158 i
 63.9  30.8288  28.7388 i
 63.95  23.6043  28.7757 i
 64  22.8259  28.8126 i
 64.05  27.7867  28.8724 i
 64.1  25.0152  28.9322 i
 64.15  27.8756  29.0312 i
 64.2  31.3451  29.1303 i
 64.25  29.4387  29.3043 i
 64.3  30.9132  29.4783 i
 64.35  33.3128  29.814 i
 64.4  42.1065  30.1497 i
 64.45  29.827  30.8971 i
 64.5  31.4457  31.6445 i
 64.55  28.0751  33.8507 i
 64.6  30.9656  36.057 i
 64.65  53.9079  42.9681 i
 64.7  50.2476  63.764 i
 64.75  123.128  122.27 i
 64.8  278.495  230.244 i
 64.85  319.345  314.842 i
 64.9  202.544  242.992 i
 64.95  113.148  104.879 i
 65  67.0031  51.5492 i
 65.05  56.6338  38.6948 i
 65.1  33.7429  33.7596 i
 65.15  33.343  32.1293 i
 65.2  16.8579  30.499 i
 65.25  19.9799  29.935 i
 65.3  31.0864  29.371 i
 65.35  33.6517  29.1187 i
 65.4  44.6363  28.8665 i
 65.45  27.0971  28.7336 i
 65.5  37.2924  28.6007 i
 65.55  21.7251  28.5211 i
 65.6  25.9729  28.4415 i
 65.65  16.9977  28.3889 i
 65.7  42.6957  28.3363 i
 65.75  27.7727  28.2992 i
 65.8  26.8149  28.2621 i
 65.85  28.4693  28.2346 i
 65.9  24.1107  28.2071 i
 65.95  27.4679  28.1836 i
 66  39.3952  28.1601 i
 66.05  20.3093  28.117 i
 66.1  31.3873  28.074 i
 66.15  36.0713  28.0568 i
 66.2  37.8309  28.0395 i
 66.25  26.433  28.026 i
 66.3  30.14  28.0125 i
 66.35  31.7602  28.0005 i
 66.4  27.4597  27.9885 i
 66.45  26.5383  27.9782 i
 66.5  21.8372  27.9679 i
 66.55  26.0216  27.9587 i
 66.6  26.3446  27.9496 i
 66.65  20.3692  27.9407 i
 66.7  28.4431  27.9318 i
 66.75  29.9611  27.9225 i
 66.8  30.1033  27.9132 i
 66.85  23.5955  27.9035 i
 66.9  47.421  27.8939 i
 66.95  35.0653  27.8844 i
 67  48.8135  27.8753 i
 67.05  25.191  27.8669 i
 67.1  37.9072  27.8586 i
 67.15  33.5524  27.851 i
 67.2  29.9071  27.8435 i
 67.25  23.044  27.8361 i
 67.3  27.4532  27.8287 i
 67.35  30.304  27.8207 i
 67.4  27.5635  27.8128 i
 67.45  23.1451  27.8044 i
 67.5  25.0369  27.796 i
 67.55  37.4878  27.7876 i
 67.6  25.7444  27.7793 i
 67.65  29.5774  27.7717 i
 67.7  21.1046  27.7641 i
 67.75  35.38  27.7572 i
 67.8  26.4784  27.7504 i
 67.85  23.5573  27.7438 i
 67.9  27.9191  27.7371 i
 67.95  42.7649  27.73 i
 68  37.5497  27.7229 i
 68.05  23.222  27.7153 i
 68.1  16.4469  27.7076 i
 68.15  30.4743  27.7 i
 68.2  23.8272  27.6923 i
 68.25  32.4338  27.6852 i
 68.3  29.7328  27.6781 i
 68.35  19.9612  27.6718 i
 68.4  31.8609  27.6655 i
 68.45  26.9738  27.6594 i
 68.5  40.5937  27.6533 i
 68.55  24.7119  27.6469 i
 68.6  18.7975  27.6405 i
 68.65  25.902  27.6336 i
 68.7  22.7853  27.6266 i
 68.75  29.5259  27.6195 i
 68.8  29.331  27.6124 i
 68.85  32.0853  27.6058 i
 68.9  31.5739  27.5992 i
 68.95  27.6885  27.5933 i
 69  33.6885  27.5874 i
 69.05  29.6757  27.5819 i
 69.1  33.9593  27.5764 i
 69.15  22.0269  27.5706 i
 69.2  27.4108  27.5648 i
 69.25  42.7525  27.5585 i
 69.3  22.7712  27.5522 i
 69.35  25.8423  27.5457 i
 69.4  31.8148  27.5391 i
 69.45  23.8927  27.533 i
 69.5  32.0989  27.5269 i
 69.55  23.4647  27.5214 i
 69.6  19.9443  27.5159 i
 69.65  20.2126  27.5109 i
 69.7  26.7538  27.5059 i
 69.75  22.1394  27.5007 i
 69.8  22.751  27.4956 i
 69.85  32.7621  27.4899 i
 69.9  24.095  27.4843 i
 69.95  35.4581  27.4783 i
 70  31.7004  27.4724 i
 70.05  23.7646  27.4667 i
 70.1  36.7332  27.461 i
 70.15  47.5625  27.4558 i
 70.2  31.0321  27.451 i
 70.25  32.5863  27.4464 i
 70.3  19.8658  27.4419 i
 70.35  27.4149  27.4374 i
 70.4  33.0166  27.4328 i
 70.45  33.4809  27.4278 i
 70.5  18.4866  27.4229 i
 70.55  21.6745  27.4175 i
 70.6  41.9981  27.4122 i
 70.65  28.85  27.407 i
 70.7  18.5077  27.4018 i
 70.75  29.2013  27.3972 i
 70.8  34.1034  27.3926 i
 70.85  20.2531  27.3886 i
 70.9  20.9002  27.3846 i
 70.95  21.1316  27.3806 i
 71  28.1279  27.3767 i
 71.05  31.3796  27.3724 i
 71.1  24.4889  27.3681 i
 71.15  36.0495  27.3634 i
 71.2  32.9067  27.3587 i
 71.25  33.1951  27.3541 i
 71.3  31.7066  27.3494 i
 71.35  31.6142  27.3452 i
 71.4  23.522  27.3411 i
 71.45  33.8888  27.3375 i
 71.5  27.2872  27.334 i
 71.55  25.9274  27.3307 i
 71.6  23.5344  27.3273 i
 71.65  20.7438  27.3237 i
 71.7  31.1821  27.3201 i
 71.75  32.5597  27.3161 i
 71.8  32.4321  27.3121 i
 71.85  40.1853  27.308 i
 71.9  24.3368  27.3039 i
 71.95  18.5864  27.3002 i
 72  26.8555  27.2965 i
 72.05  24.5101  27.2934 i
 72.1  24.1343  27.2904 i
 72.15  22.0057  27.2877 i
 72.2  28.8134  27.285 i
 72.25  24.5809  27.2821 i
 72.3  32.1399  27.2793 i
 72.35  29.0203  27.276 i
 72.4  24.3102  27.2728 i
 72.45  27.572  27.2693 i
 72.5  17.0704  27.2659 i
 72.55  27.8202  27.2628 i
 72.6  35.8808  27.2596 i
 72.65  36.788  27.2571 i
 72.7  27.7284  27.2545 i
 72.75  26.532  27.2525 i
 72.8  29.7456  27.2504 i
 72.85  23.6366  27.2483 i
 72.9  30.7818  27.2462 i
 72.95  28.364  27.2438 i
 73  42.942  27.2413 i
 73.05  36.9843  27.2386 i
 73.1  19.4323  27.2358 i
 73.15  32.1943  27.2332 i
 73.2  24.4439  27.2306 i
 73.25  27.9847  27.2285 i
 73.3  31.39  27.2265 i
 73.35  31.0816  27.225 i
 73.4  32.5224  27.2235 i
 73.45  33.4323  27.2221 i
 73.5  39.7744  27.2208 i
 73.55  39.1373  27.2191 i
 73.6  25.5221  27.2175 i
 73.65  29.8017  27.2154 i
 73.7  27.1773  27.2134 i
 73.75  24.5776  27.2113 i
 73.8  20.7333  27.2093 i
 73.85  26.5804  27.2077 i
 73.9  26.8802  27.2061 i
 73.95  28.237  27.2051 i
 74  28.1055  27.2041 i
 74.05  31.9941  27.2034 i
 74.1  29.9271  27.2027 i
 74.15  27.704  27.2018 i
 74.2  32.1744  27.2009 i
 74.25  28.1024  27.1996 i
 74.3  31.0797  27.1983 i
 74.35  31.759  27.1969 i
 74.4  25.5504  27.1954 i
 74.45  21.7168  27.1942 i
 74.5  33.7006  27.1931 i
 74.55  33.2849  27.1925 i
 74.6  17.8976  27.1919 i
 74.65  27.8099  27.1918 i
 74.7  32.6409  27.1917 i
 74.75  25.7494  27.1916 i
 74.8  35.8191  27.1915 i
 74.85  33.9011  27.1909 i
 74.9  31.08  27.1904 i
 74.95  26.3418  27.1896 i
 75  39.9601  27.1887 i
 75.05  32.2741  27.188 i
 75.1  35.8931  27.1873 i
 75.15  23.7722  27.1871 i
 75.2  25.0495  27.1869 i
 75.25  25.9684  27.1873 i
 75.3  23.6309  27.1877 i
 75.35  26.5109  27.1882 i
 75.4  27.1261  27.1888 i
 75.45  33.4275  27.1891 i
 75.5  27.2888  27.1893 i
 75.55  29.0887  27.1891 i
 75.6  44.9289  27.189 i
 75.65  33.4927  27.1887 i
 75.7  29.4801  27.1885 i
 75.75  28.8612  27.1887 i
 75.8  24.1592  27.1888 i
 75.85  30.7464  27.1896 i
 75.9  34.7359  27.1904 i
 75.95  42.3376  27.1916 i
 76  33.1519  27.1927 i
 76.05  30.4063  27.1938 i
 76.1  28.4432  27.1948 i
 76.15  35.4408  27.1954 i
 76.2  38.2068  27.196 i
 76.25  20.3035  27.1962 i
 76.3  27.8394  27.1965 i
 76.35  29.3736  27.1971 i
 76.4  30.3126  27.1976 i
 76.45  19.7867  27.1987 i
 76.5  23.2628  27.1998 i
 76.55  19.5063  27.2014 i
 76.6  20.4755  27.2031 i
 76.65  21.4658  27.2048 i
 76.7  34.5072  27.2066 i
 76.75  24.315  27.208 i
 76.8  34.2117  27.2093 i
 76.85  24.3568  27.2103 i
 76.9  35.1695  27.2112 i
 76.95  45.2513  27.212 i
 77  25.8536  27.213 i
 77.05  29.1301  27.2143 i
 77.1  25.2833  27.2157 i
 77.15  24.0934  27.2177 i
 77.2  34.093  27.2198 i
 77.25  25.1563  27.2221 i
 77.3  36.9271  27.2245 i
 77.35  32.2156  27.2267 i
 77.4  32.9833  27.2288 i
 77.45  16.7049  27.2305 i
 77.5  30.7896  27.2322 i
 77.55  24.7441  27.2336 i
 77.6  27.8934  27.235 i
 77.65  26.4839  27.2366 i
 77.7  36.6075  27.2382 i
 77.75  32.0417  27.2405 i
 77.8  29.0322  27.2427 i
 77.85  23.4265  27.2456 i
 77.9  32.3666  27.2484 i
 77.95  29.0649  27.2514 i
 78  34.6108  27.2543 i
 78.05  22.1767  27.2568 i
 78.1  27.846  27.2594 i
 78.15  28.5152  27.2614 i
 78.2  29.5161  27.2634 i
 78.25  28.7008  27.2654 i
 78.3  27.0416  27.2673 i
 78.35  20.3321  27.2698 i
 78.4  23.5879  27.2722 i
 78.45  30.0433  27.2754 i
 78.5  36.144  27.2786 i
 78.55  18.6517  27.2822 i
 78.6  17.8587  27.2858 i
 78.65  26.3191  27.2892 i
 78.7  25.5136  27.2926 i
 78.75  30.5762  27.2955 i
 78.8  19.4867  27.2984 i
 78.85  25.7977  27.3009 i
 78.9  27.2708  27.3034 i
 78.95  40.6089  27.3061 i
 79  37.8914  27.3088 i
 79.05  27.2899  27.3121 i
 79.1  24.7639  27.3155 i
 79.15  26.91  27.3196 i
 79.2  30.9324  27.3238 i
 79.25  32.1775  27.3281 i
 79.3  28.5635  27.3325 i
 79.35  22.7898  27.3365 i
 79.4  24.7804  27.3405 i
 79.45  14.7611  27.3442 i
 79.5  26.8751  27.3479 i
 79.55  26.5159  27.3509 i
 79.6  26.7628  27.354 i
 79.65  24.9192  27.3576 i
 79.7  31.2092  27.3611 i
 79.75  27.3183  27.3657 i
 79.8  33.3291  27.3703 i
 79.85  27.7173  27.3758 i
 79.9  23.1806  27.3813 i
 79.95  23.7238  27.387 i
 80  29.0845  27.3927 i
 80.05  29.4683  27.3979 i
 80.1  33.6157  27.4031 i
 80.15  24.5588  27.4077 i
 80.2  29.2033  27.4123 i
 80.25  42.6542  27.4172 i
 80.3  30.2312  27.422 i
 80.35  27.5797  27.4279 i
 80.4  33.5899  27.4338 i
 80.45  26.2285  27.4414 i
 80.5  25.0714  27.4489 i
 80.55  21.0025  27.458 i
 80.6  24.0135  27.467 i
 80.65  27.3665  27.4771 i
 80.7  27.8732  27.4872 i
 80.75  32.1874  27.4989 i
 80.8  23.8808  27.5106 i
 80.85  33.5351  27.5292 i
 80.9  28.6574  27.5478 i
 80.95  39.0599  27.6164 i
 81  21.2137  27.685 i
 81.05  23.3475  27.7287 i
 81.1  33.5181  27.7724 i
 81.15  28.3824  27.8193 i
 81.2  24.109  27.8662 i
 81.25  34.8612  27.9307 i
 81.3  26.669  27.9952 i
 81.35  31.1081  28.0899 i
 81.4  21.5671  28.1845 i
 81.45  23.7248  28.3338 i
 81.5  36.631  28.4831 i
 81.55  30.7954  28.7409 i
 81.6  24.5838  28.9988 i
 81.65  21.2864  29.4971 i
 81.7  29.6555  29.9954 i
 81.75  31.2043  31.1227 i
 81.8  33.3823  32.25 i
 81.85  40.4804  34.5922 i
 81.9  40.9304  39.0866 i
 81.95  50.1613  50.5015 i
 82  70.5181  78.2433 i
 82.05  144.601  148.006 i
 82.1  254.033  250.476 i
 82.15  229.829  289.375 i
 82.2  176.514  196.152 i
 82.25  122.398  94.6079 i
 82.3  75.9303  53.145 i
 82.35  52.8434  40.2801 i
 82.4  38.9499  34.6668 i
 82.45  43.7196  32.1037 i
 82.5  36.3891  30.6704 i
 82.55  35.2754  29.9552 i
 82.6  32.8863  29.24 i
 82.65  25.2418  28.9212 i
 82.7  25.816  28.6023 i
 82.75  34.2742  28.4404 i
 82.8  22.2622  28.2784 i
 82.85  21.2394  28.1881 i
 82.9  38.4829  28.0978 i
 82.95  20.8952  28.044 i
 83  31.4522  27.9901 i
 83.05  31.3891  27.9568 i
 83.1  30.7587  27.9234 i
 83.15  25.2803  27.9022 i
 83.2  25.4317  27.881 i
 83.25  23.3089  27.86 i
 83.3  26.649  27.839 i
 83.35  25.461  27.8117 i
 83.4  31.4052  27.7844 i
 83.45  35.7629  27.7807 i
 83.5  27.3343  27.7771 i
 83.55  30.094  27.7764 i
 83.6  26.384  27.7758 i
 83.65  22.3345  27.7763 i
 83.7  18.1831  27.7768 i
 83.75  27.1833  27.7785 i
 83.8  28.9474  27.7802 i
 83.85  35.133  27.7834 i
 83.9  24.5154  27.7865 i
 83.95  28.6863  27.7909 i
 84  24.5245  27.7953 i
 84.05  33.3154  27.8004 i
 84.1  26.6259  27.8055 i
 84.15  26.0556  27.8105 i
 84.2  26.7241  27.8155 i
 84.25  33.8277  27.82 i
 84.3  27.0819  27.8246 i
 84.35  35.2082  27.829 i
 84.4  22.3104  27.8334 i
 84.45  36.2894  27.8381 i
 84.5  28.8583  27.8428 i
 84.55  17.4827  27.8483 i
 84.6  32.1191  27.8538 i
 84.65  21.9307  27.86 i
 84.7  25.309  27.8662 i
 84.75  25.9019  27.8727 i
 84.8  27.3326  27.8792 i
 84.85  19.0997  27.8853 i
 84.9  27.4175  27.8915 i
 84.95  23.0944  27.8972 i
 85  32.9495  27.9028 i
 85.05  26.1719  27.9083 i
 85.1  23.0724  27.9137 i
 85.15  33.265  27.9194 i
 85.2  34.5884  27.9251 i
 85.25  26.8687  27.9313 i
 85.3  27.5128  27.9376 i
 85.35  30.8586  27.9445 i
 85.4  12.7598  27.9513 i
 85.45  25.9777  27.9583 i
 85.5  27.0687  27.9653 i
 85.55  25.3635  27.9719 i
 85.6  21.2382  27.9785 i
 85.65  35.0242  27.9847 i
 85.7  25.1153  27.9909 i
 85.75  26.7924  27.9969 i
 85.8  30.1642  28.0028 i
 85.85  43.6933  28.0091 i
 85.9  26.1126  28.0153 i
 85.95  23.1858  28.022 i
 86  27.8292  28.0288 i
 86.05  32.8274  28.036 i
 86.1  28.6889  28.0432 i
 86.15  23.6805  28.0505 i
 86.2  34.0148  28.0577 i
 86.25  23.6828  28.0647 i
 86.3  25.7853  28.0716 i
 86.35  31.3558  28.0781 i
 86.4  21.9612  28.0846 i
 86.45  25.6279  28.091 i
 86.5  25.0601  28.0973 i
 86.55  24.9824  28.1039 i
 86.6  24.7628  28.1106 i
 86.65  29.5186  28.1176 i
 86.7  35.0173  28.1247 i
 86.75  22.0223  28.1322 i
 86.8  19.7465  28.1396 i
 86.85  20.8354  28.1471 i
 86.9  25.0055  28.1546 i
 86.95  29.1769  28.1618 i
 87  34.4949  28.1689 i
 87.05  40.7591  28.1757 i
 87.1  29.1764  28.1825 i
 87.15  25.5853  28.1892 i
 87.2  26.5719  28.1958 i
 87.25  30.8521  28.2027 i
 87.3  32.5074  28.2096 i
 87.35  27.0405  28.217 i
 87.4  23.9795  28.2243 i
 87.45  23.1922  28.232 i
 87.5  22.7766  28.2396 i
 87.55  26.1356  28.2473 i
 87.6  25.9763  28.255 i
 87.65  33.2616  28.2623 i
 87.7  23.92  28.2697 i
 87.75  31.7661  28.2767 i
 87.8  26.6464  28.2837 i
 87.85  24.669  28.2906 i
 87.9  17.8284  28.2975 i
 87.95  27.2498  28.3047 i
 88  21.2727  28.3118 i
 88.05  20.8525  28.3194 i
 88.1  32.9755  28.3269 i
 88.15  34.9039  28.3347 i
 88.2  29.8812  28.3426 i
 88.25  30.4718  28.3504 i
 88.3  24.08  28.3582 i
 88.35  38.0807  28.3657 i
 88.4  32.8856  28.3732 i
 88.45  22.9332  28.3805 i
 88.5  38.1254  28.3877 i
 88.55  34.8059  28.3948 i
 88.6  28.0062  28.4019 i
 88.65  26.3006  28.4092 i
 88.7  29.0274  28.4166 i
 88.75  22.5761  28.4243 i
 88.8  22.7803  28.432 i
 88.85  40.0954  28.4399 i
 88.9  21.8689  28.4479 i
 88.95  37.6408  28.4559 i
 89  28.8244  28.4638 i
 89.05  24.3904  28.4715 i
 89.1  26.0496  28.4792 i
 89.15  28.8353  28.4866 i
 89.2  30.6101  28.4939 i
 89.25  23.0617  28.5012 i
 89.3  34.165  28.5085 i
 89.35  26.2655  28.516 i
 89.4  28.9899  28.5234 i
 89.45  42.0543  28.5313 i
 89.5  30.514  28.5391 i
 89.55  17.1647  28.5472 i
 89.6  21.2694  28.5552 i
 89.65  22.8673  28.5633 i
 89.7  25.5906  28.5714 i
 89.75  27.9247  28.5792 i
 89.8  19.61  28.587 i
 89.85  37.6047  28.5946 i
 89.9  23.8629  28.6021 i
 89.95  29.8062  28.6095 i
 90  29.2658  28.6169 i
 90.05  27.6296  28.6245 i
 90.1  20.5897  28.632 i
 90.15  34.7977  28.6399 i
 90.2  25.6564  28.6478 i
 90.25  30.1049  28.656 i
 90.3  30.9535  28.6642 i
 90.35  42.5121  28.6723 i
 90.4  28.3577  28.6805 i
 90.45  36.2826  28.6885 i
 90.5  25.4923  28.6964 i
 90.55  26.1216  28.7041 i
 90.6  25.1237  28.7118 i
 90.65  30.1014  28.7197 i
 90.7  30.3637  28.7275 i
 90.75  35.4296  28.7358 i
 90.8  32.7029  28.7441 i
 90.85  28.329  28.753 i
 90.9  22.6368  28.7619 i
 90.95  21.2067  28.7714 i
 91  26.1303  28.7809 i
 91.05  30.8658  28.7907 i
 91.1  24.254  28.8006 i
 91.15  31.9623  28.8105 i
 91.2  31.7494  28.8204 i
 91.25  27.5243  28.8303 i
 91.3  26.9241  28.8402 i
 91.35  27.9816  28.8502 i
 91.4  24.5597  28.8602 i
 91.45  15.3238  28.8706 i
 91.5  36.0194  28.8809 i
 91.55  25.0408  28.8919 i
 91.6  28.8972  28.9028 i
 91.65  24.767  28.9143 i
 91.7  31.1488  28.9258 i
 91.75  27.3029  28.9377 i
 91.8  27.9962  28.9496 i
 91.85  32.6278  28.9615 i
 91.9  26.435  28.9735 i
 91.95  38.7404  28.9853 i
 92  25.8292  28.9972 i
 92.05  33.1966  29.0091 i
 92.1  38.6136  29.0211 i
 92.15  28.5734  29.0333 i
 92.2  31.9888  29.0455 i
 92.25  28.1234  29.0582 i
 92.3  25.0232  29.0709 i
 92.35  30.473  29.0841 i
 92.4  22.7709  29.0974 i
 92.45  18.0112  29.1111 i
 92.5  27.2397  29.1247 i
 92.55  36.6763  29.1385 i
 92.6  22.492  29.1522 i
 92.65  25.5257  29.1659 i
 92.7  29.1385  29.1796 i
 92.75  34.5303  29.1932 i
 92.8  34.2405  29.2068 i
 92.85  28.7062  29.2205 i
 92.9  27.8516  29.2343 i
 92.95  25.3378  29.2485 i
 93  22.3345  29.2628 i
 93.05  22.2109  29.2775 i
 93.1  36.0616  29.2923 i
 93.15  40.4101  29.3075 i
 93.2  24.3549  29.3227 i
 93.25  27.7812  29.338 i
 93.3  28.2573  29.3533 i
 93.35  20.5516  29.3686 i
 93.4  24.7205  29.3838 i
 93.45  24.6513  29.3992 i
 93.5  20.6024  29.4145 i
 93.55  22.3324  29.4296 i
 93.6  37.5361  29.4447 i
 93.65  28.042  29.46 i
 93.7  27.1656  29.4753 i
 93.75  23.8494  29.4912 i
 93.8  23.5172  29.507 i
 93.85  25.2002  29.5235 i
 93.9  24.6154  29.5399 i
 93.95  27.3342  29.5567 i
 94  35.3063  29.5735 i
 94.05  32.7997  29.5902 i
 94.1  21.7881  29.607 i
 94.15  26.5504  29.6235 i
 94.2  28.7991  29.6399 i
 94.25  24.0113  29.6562 i
 94.3  37.2662  29.6725 i
 94.35  31.5799  29.6888 i
 94.4  27.6821  29.7052 i
 94.45  21.7926  29.722 i
 94.5  30.5608  29.7388 i
 94.55  32.0852  29.7562 i
 94.6  21.8502  29.7736 i
 94.65  31.9765  29.7915 i
 94.7  35.1805  29.8093 i
 94.75  22.0039  29.8272 i
 94.8  22.5896  29.8451 i
 94.85  32.2109  29.8628 i
 94.9  32.9523  29.8804 i
 94.95  24.0688  29.8978 i
 95  29.4986  29.9151 i
 95.05  27.372  29.9323 i
 95.1  22.7872  29.9496 i
 95.15  23.1652  29.9671 i
 95.2  43.0498  29.9846 i
 95.25  21.3234  30.0027 i
 95.3  24.5697  30.0208 i
 95.35  23.5097  30.0395 i
 95.4  21.6654  30.0581 i
 95.45  30.1959  30.077 i
 95.5  34.0981  30.096 i
 95.55  24.1851  30.1147 i
 95.6  31.7221  30.1334 i
 95.65  30.4729  30.1518 i
 95.7  35.2115  30.1702 i
 95.75  33.0907  30.1882 i
 95.8  21.7955  30.2063 i
 95.85  41.1054  30.2245 i
 95.9  21.9973  30.2426 i
 95.95  31.3035  30.2613 i
 96  34.8124  30.2799 i
 96.05  24.8114  30.2993 i
 96.1  28.5315  30.3186 i
 96.15  33.168  30.3385 i
 96.2  31.7149  30.3583 i
 96.25  32.7377  30.3783 i
 96.3  26.67  30.3982 i
 96.35  21.3877  30.4179 i
 96.4  24.7807  30.4376 i
 96.45  30.843  30.4569 i
 96.5  25.9687  30.4762 i
 96.55  28.1905  30.4955 i
 96.6  35.9452  30.5147 i
 96.65  32.4477  30.5345 i
 96.7  22.4308  30.5542 i
 96.75  28.9586  30.5748 i
 96.8  26.0486  30.5954 i
 96.85  30.8504  30.6171 i
 96.9  31.3176  30.6388 i
 96.95  28.8074  30.6614 i
 97  16.8985  30.6839 i
 97.05  35.8772  30.7071 i
 97.1  43.351  30.7303 i
 97.15  33.7756  30.754 i
 97.2  30.2608  30.7778 i
 97.25  27.9834  30.8029 i
 97.3  16.3904  30.8279 i
 97.35  21.712  30.8565 i
 97.4  23.141  30.8851 i
 97.45  36.859  30.9285 i
 97.5  35.7874  30.9718 i
 97.55  39.333  31.028 i
 97.6  28.9787  31.0842 i
 97.65  21.9945  31.137 i
 97.7  29.3357  31.1897 i
 97.75  20.3101  31.2547 i
 97.8  22.0185  31.3196 i
 97.85  29.0023  31.407 i
 97.9  22.1882  31.4944 i
 97.95  28.7961  31.6218 i
 98  20.4339  31.7492 i
 98.05  26.0574  31.9532 i
 98.1  26.74  32.1572 i
 98.15  32.1394  32.521 i
 98.2  31.2603  32.8848 i
 98.25  29.3094  33.6282 i
 98.3  49.7937  34.3715 i
 98.35  31.2042  36.2368 i
 98.4  43.5115  38.1021 i
 98.45  36.8971  42.4789 i
 98.5  50.6461  51.8191 i
 98.55  67.0707  73.6736 i
 98.6  119.491  115.805 i
 98.65  158.017  170.155 i
 98.7  157.778  191.615 i
 98.75  148.649  153.41 i
 98.8  115.012  98.6032 i
 98.85  51.2065  64.9121 i
 98.9  50.5172  49.5555 i
 98.95  33.8987  44.1293 i
 99  35.8852  38.703 i
 99.05  26.1166  36.9336 i
 99.1  29.9751  35.1642 i
 99.15  20.7188  34.4076 i
 99.2  28.6663  33.6511 i
 99.25  26.4733  33.2769 i
 99.3  33.8361  32.9028 i
 99.35  25.5479  32.7003 i
 99.4  28.6588  32.4979 i
 99.45  24.1647  32.3815 i
 99.5  32.8057  32.2651 i
 99.55  34.7591  32.1952 i
 99.6  30.1322  32.1252 i
 99.65  28.2662  32.0813 i
 99.7  29.6539  32.0375 i
 99.75  21.3768  32.005 i
 99.8  24.8528  31.9725 i
 99.85  26.8339  31.9201 i
 99.9  21.2974  31.8676 i
 99.95  27.1289  31.8486 i
 100  32.1974  31.8296 i
 100.05  36.3309  31.8338 i
 100.1  27.9183  31.838 i
 100.15  27.6962  31.8474 i
 100.2  19.1744  31.8568 i
 100.25  23.7687  31.868 i
 100.3  27.8768  31.8792 i
 100.35  27.4357  31.891 i
 100.4  26.9108  31.9028 i
 100.45  27.8344  31.9147 i
 100.5  34.1511  31.9267 i
 100.55  24.1962  31.9391 i
 100.6  26.0352  31.9515 i
 100.65  35.4918  31.9646 i
 100.7  27.0333  31.9777 i
 100.75  23.0449  31.9916 i
 100.8  33.203  32.0055 i
 100.85  32.6481  32.0201 i
 100.9  24.9771  32.0347 i
 100.95  33.9687  32.0495 i
 101  25.6901  32.0642 i
 101.05  24.8406  32.0786 i
 101.1  36.1035  32.093 i
 101.15  28.3767  32.1066 i
 101.2  32.2131  32.1203 i
 101.25  29.0517  32.1334 i
 101.3  22.5542  32.1465 i
 101.35  33.511  32.1593 i
 101.4  37.1252  32.1722 i
 101.45  24.7428  32.1853 i
 101.5  40.7565  32.1983 i
 101.55  18.5633  32.2117 i
 101.6  25.6145  32.2253 i
 101.65  34.5435  32.2392 i
 101.7  24.2665  32.2531 i
 101.75  22.323  32.2669 i
 101.8  30.1632  32.2807 i
 101.85  23.246  32.294 i
 101.9  29.0041  32.3073 i
 101.95  29.5667  32.3195 i
 102  18.3969  32.3317 i
 102.05  26.9563  32.3437 i
 102.1  26.6351  32.3557 i
 102.15  29.5009  32.3673 i
 102.2  32.9921  32.3789 i
 102.25  28.0922  32.3905 i
 102.3  23.1716  32.4021 i
 102.35  26.1752  32.4139 i
 102.4  31.4886  32.4257 i
 102.45  37.2619  32.4376 i
 102.5  34.3937  32.4495 i
 102.55  25.784  32.4614 i
 102.6  28.0921  32.4732 i
 102.65  32.66  32.4846 i
 102.7  28.4092  32.496 i
 102.75  31.7847  32.5067 i
 102.8  28.9068  32.5175 i
 102.85  21.8802  32.5276 i
 102.9  23.5346  32.5376 i
 102.95  27.8277  32.5473 i
 103  22.6803  32.5569 i
 103.05  26.1223  32.5664 i
 103.1  25.6616  32.5759 i
 103.15  36.2433  32.5855 i
 103.2  34.2299  32.5951 i
 103.25  30.7326  32.6048 i
 103.3  29.5736  32.6144 i
 103.35  31.5541  32.624 i
 103.4  29.7848  32.6335 i
 103.45  33.7732  32.6426 i
 103.5  36.1552  32.6517 i
 103.55  36.0992  32.6602 i
 103.6  27.0618  32.6687 i
 103.65  24.1567  32.6765 i
 103.7  24.181  32.6843 i
 103.75  30.8501  32.6916 i
 103.8  30.3214  32.6988 i
 103.85  20.1474  32.7058 i
 103.9  25.0625  32.7129 i
 103.95  28.2095  32.7199 i
 104  25.1407  32.7268 i
 104.05  26.6662  32.7339 i
 104.1  26.0158  32.7409 i
 104.15  22.5668  32.7478 i
 104.2  23.1125  32.7547 i
 104.25  35.1644  32.7612 i
 104.3  15.3686  32.7677 i
 104.35  30.806  32.7735 i
 104.4  27.9595  32.7794 i
 104.45  35.8482  32.7846 i
 104.5  35.2681  32.7897 i
 104.55  27.4538  32.7943 i
 104.6  28.919  32.7988 i
 104.65  32.0123  32.803 i
 104.7  35.8117  32.8072 i
 104.75  28.7886  32.8112 i
 104.8  24.6363  32.8153 i
 104.85  39.684  32.8193 i
 104.9  36.9772  32.8233 i
 104.95  29.56  32.8272 i
 105  33.6668  32.8311 i
 105.05  28.8701  32.8347 i
 105.1  31.03  32.8382 i
 105.15  32.813  32.8412 i
 105.2  26.8495  32.8441 i
 105.25  26.9485  32.8463 i
 105.3  33.111  32.8485 i
 105.35  37.9994  32.85 i
 105.4  25.8836  32.8515 i
 105.45  37.5605  32.8526 i
 105.5  32.4144  32.8536 i
 105.55  19.2688  32.8544 i
 105.6  33.1094  32.8552 i
 105.65  30.0458  32.8558 i
 105.7  24.4402  32.8565 i
 105.75  31.5435  32.8571 i
 105.8  28.0423  32.8576 i
 105.85  25.7439  32.8579 i
 105.9  28.0692  32.8581 i
 105.95  27.3224  32.8578 i
 106  27.2673  32.8575 i
 106.05  31.4749  32.8564 i
 106.1  22.4761  32.8554 i
 106.15  22.623  32.8535 i
 106.2  30.8322  32.8517 i
 106.25  18.153  32.8493 i
 106.3  28.9253  32.8469 i
 106.35  32.8292  32.8441 i
 106.4  23.6627  32.8413 i
 106.45  29.846  32.8383 i
 106.5  35.6564  32.8353 i
 106.55  33.816  32.8321 i
 106.6  27.3073  32.829 i
 106.65  23.4263  32.8256 i
 106.7  29.5872  32.8222 i
 106.75  30.5373  32.8182 i
 106.8  15.6452  32.8143 i
 106.85  23.4249  32.8099 i
 106.9  24.8303  32.8051 i
 106.95  30.4407  32.7997 i
 107  35.1806  32.7943 i
 107.05  27.1029  32.7884 i
 107.1  30.8057  32.7825 i
 107.15  24.9061  32.7762 i
 107.2  24.4304  32.77 i
 107.25  25.8438  32.7636 i
 107.3  32.984  32.7572 i
 107.35  17.1043  32.7508 i
 107.4  27.4478  32.7445 i
 107.45  28.7048  32.7381 i
 107.5  18.6144  32.7317 i
 107.55  28.7158  32.7251 i
 107.6  36.7863  32.7185 i
 107.65  28.1537  32.7115 i
 107.7  34.6532  32.7044 i
 107.75  28.8334  32.6968 i
 107.8  19.4314  32.6892 i
 107.85  26.8625  32.681 i
 107.9  34.8003  32.6728 i
 107.95  33.8762  32.6642 i
 108  30.7618  32.6555 i
 108.05  20.1142  32.6467 i
 108.1  25.6871  32.6378 i
 108.15  21.7387  32.6289 i
 108.2  24.4999  32.62 i
 108.25  22.8829  32.6111 i
 108.3  31.9693  32.6023 i
 108.35  30.3254  32.5933 i
 108.4  38.0771  32.5844 i
 108.45  26.7024  32.5752 i
 108.5  32.683  32.566 i
 108.55  27.4351  32.5563 i
 108.6  28.7355  32.5466 i
 108.65  22.7972  32.5363 i
 108.7  25.8262  32.526 i
 108.75  16.1715  32.5153 i
 108.8  26.0915  32.5043 i
 108.85  28.6445  32.4932 i
 108.9  28.6246  32.482 i
 108.95  30.6209  32.4707 i
 109  23.3787  32.4594 i
 109.05  26.2511  32.4481 i
 109.1  28.9388  32.4368 i
 109.15  34.0374  32.4256 i
 109.2  22.0808  32.4143 i
 109.25  38.6514  32.403 i
 109.3  25.7183  32.3916 i
 109.35  24.9364  32.3799 i
 109.4  37.3909  32.3682 i
 109.45  32.9681  32.356 i
 109.5  27.0258  32.3438 i
 109.55  30.9007  32.331 i
 109.6  27.3152  32.3182 i
 109.65  20.8261  32.305 i
 109.7  26.8787  32.2917 i
 109.75  32.9971  32.2782 i
 109.8  28.2267  32.2646 i
 109.85  28.4025  32.251 i
 109.9  33.5743  32.2374 i
 109.95  22.1555  32.2239 i
 110  26.014  32.2103 i
 110.05  24.1157  32.1968 i
 110.1  25.2783  32.1833 i
 110.15  35.9846  32.1697 i
 110.2  29.0691  32.1561 i
 110.25  30.7149  32.1421 i
 110.3  29.6092  32.1281 i
 110.35  36.758  32.1136 i
 110.4  37.9132  32.0991 i
 110.45  27.2367  32.084 i
 110.5  38.7749  32.0689 i
 110.55  32.8448  32.0534 i
 110.6  28.2686  32.0378 i
 110.65  31.9426  32.0221 i
 110.7  37.7777  32.0063 i
 110.75  36.4271  31.9906 i
 110.8  25.9544  31.9748 i
 110.85  37.5181  31.9591 i
 110.9  31.3692  31.9435 i
 110.95  22.4559  31.9279 i
 111  22.9232  31.9123 i
 111.05  26.8215  31.8965 i
 111.1  28.9773  31.8808 i
 111.15  22.951  31.8647 i
 111.2  34.7049  31.8486 i
 111.25  27.8861  31.832 i
 111.3  39.8203  31.8154 i
 111.35  32.889  31.7982 i
 111.4  27.5886  31.781 i
 111.45  28.6182  31.7634 i
 111.5  27.8497  31.7458 i
 111.55  31.6931  31.7281 i
 111.6  31.5521  31.7103 i
 111.65  25.2683  31.6925 i
 111.7  26.9301  31.6747 i
 111.75  41.587  31.6571 i
 111.8  35.4434  31.6395 i
 111.85  30.1967  31.6219 i
 111.9  36.9811  31.6044 i
 111.95  30.0204  31.5868 i
 112  25.6799  31.5692 i
 112.05  37.8199  31.5512 i
 112.1  28.197  31.5333 i
 112.15  33.6295  31.5149 i
 112.2  28.3081  31.4964 i
 112.25  32.9798  31.4775 i
 112.3  40.4289  31.4585 i
 112.35  26.3053  31.4391 i
 112.4  25.7104  31.4197 i
 112.45  21.6348  31.4001 i
 112.5  25.473  31.3805 i
 112.55  21.7461  31.361 i
 112.6  22.9951  31.3414 i
 112.65  27.1873  31.3221 i
 112.7  25.6782  31.3028 i
 112.75  34.0315  31.2836 i
 112.8  26.1966  31.2645 i
 112.85  28.693  31.2454 i
 112.9  24.0664  31.2262 i
 112.95  30.0231  31.2069 i
 113  24.6863  31.1876 i
 113.05  19.1168  31.1678 i
 113.1  26.7025  31.1481 i
 113.15  31.0742  31.1279 i
 113.2  28.7896  31.1076 i
 113.25  30.6546  31.087 i
 113.3  20.0511  31.0664 i
 113.35  16.531  31.0457 i
 113.4  24.6309  31.0249 i
 113.45  27.0537  31.0043 i
 113.5  35.8163  30.9837 i
 113.55  24.6748  30.9635 i
 113.6  24.6435  30.9433 i
 113.65  34.0679  30.9236 i
 113.7  29.0218  30.9038 i
 113.75  28.8212  30.8844 i
 113.8  32.2813  30.865 i
 113.85  27.8946  30.8459 i
 113.9  23.8047  30.8267 i
 113.95  21.9496  30.8076 i
 114  21.6186  30.7885 i
 114.05  30.489  30.7695 i
 114.1  24.2474  30.7505 i
 114.15  28.7949  30.7318 i
 114.2  28.2023  30.7131 i
 114.25  27.2471  30.6952 i
 114.3  28.9241  30.6772 i
 114.35  30.4661  30.6608 i
 114.4  28.0855  30.6443 i
 114.45  22.8286  30.6304 i
 114.5  34.0496  30.6164 i
 114.55  30.8982  30.6064 i
 114.6  29.9646  30.5964 i
 114.65  24.3744  30.594 i
 114.7  23.4444  30.5916 i
 114.75  27.5552  30.6072 i
 114.8  24.1802  30.6228 i
 114.85  20.3839  30.6498 i
 114.9  37.741  30.6769 i
 114.95  30.4569  30.709 i
 115  33.0686  30.7411 i
 115.05  26.9017  30.7939 i
 115.1  26.1061  30.8467 i
 115.15  30.5969  30.9377 i
 115.2  32.0667  31.0287 i
 115.25  35.288  31.1873 i
 115.3  34.7726  31.346 i
 115.35  37.1889  31.6304 i
 115.4  32.1423  31.9149 i
 115.45  28.0505  32.4527 i
 115.5  24.4849  32.9905 i
 115.55  37.6239  34.1034 i
 115.6  34.1253  35.2163 i
 115.65  48.4538  37.2592 i
 115.7  37.4318  40.5694 i
 115.75  45.2105  46.2692 i
 115.8  67.231  56.5803 i
 115.85  59.4893  75.131 i
 115.9  94.6601  102.899 i
 115.95  144.584  132.583 i
 116  141.757  145.575 i
 116.05  128.767  130.783 i
 116.1  94.525  100.336 i
 116.15  63.7108  73.1293 i
 116.2  61.7448  55.4029 i
 116.25  50.3241  45.8425 i
 116.3  47.7082  40.1295 i
 116.35  34.4564  37.4839 i
 116.4  34.9052  34.8383 i
 116.45  32.8496  33.6869 i
 116.5  29.4739  32.5354 i
 116.55  32.0379  31.9455 i
 116.6  22.2187  31.3555 i
 116.65  30.5096  31.0163 i
 116.7  30.7309  30.6771 i
 116.75  33.5207  30.4636 i
 116.8  24.3649  30.25 i
 116.85  24.2318  30.1045 i
 116.9  39.3442  29.9589 i
 116.95  28.1758  29.8518 i
 117  28.5652  29.7446 i
 117.05  36.484  29.6573 i
 117.1  19.1094  29.5699 i
 117.15  35.8026  29.4863 i
 117.2  27.99  29.4026 i
 117.25  36.2023  29.3367 i
 117.3  27.104  29.2707 i
 117.35  30.1577  29.2222 i
 117.4  25.2757  29.1737 i
 117.45  23.0475  29.1326 i
 117.5  23.6185  29.0914 i
 117.55  34.5154  29.0543 i
 117.6  32.8332  29.0172 i
 117.65  23.2923  28.9826 i
 117.7  31.4391  28.948 i
 117.75  23.9529  28.9149 i
 117.8  29.5111  28.8819 i
 117.85  26.1026  28.8498 i
 117.9  39.0493  28.8177 i
 117.95  39.9875  28.7861 i
 118  36.0221  28.7544 i
 118.05  32.0539  28.7231 i
 118.1  30.796  28.6917 i
 118.15  24.0617  28.6605 i
 118.2  20.586  28.6293 i
 118.25  29.7298  28.5985 i
 118.3  25.7534  28.5676 i
 118.35  26.5424  28.537 i
 118.4  36.5004  28.5065 i
 118.45  35.2296  28.4765 i
 118.5  31.5324  28.4464 i
 118.55  28.3609  28.4167 i
 118.6  22.6857  28.3871 i
 118.65  28.2563  28.3577 i
 118.7  35.1556  28.3283 i
 118.75  36.1356  28.299 i
 118.8  26.5602  28.2697 i
 118.85  25.4171  28.2403 i
 118.9  29.2239  28.2109 i
 118.95  31.0331  28.1813 i
 119  23.3965  28.1517 i
 119.05  33.3556  28.1218 i
 119.1  37.2505  28.0919 i
 119.15  25.6728  28.0618 i
 119.2  27.7494  28.0318 i
 119.25  26.3517  28.0016 i
 119.3  33.8515  27.9715 i
 119.35  26.6498  27.9414 i
 119.4  25.7228  27.9114 i
 119.45  35.301  27.8815 i
 119.5  20.1007  27.8516 i
 119.55  19.1356  27.822 i
 119.6  21.5383  27.7923 i
 119.65  33.3285  27.7628 i
 119.7  24.8916  27.7333 i
 119.75  26.5355  27.7038 i
 119.8  27.6098  27.6743 i
 119.85  25.3246  27.6446 i
 119.9  29.4298  27.615 i
 119.95  28.4909  27.5851 i
 120  34.252  27.5552 i
 120.05  21.6152  27.525 i
 120.1  27.3423  27.4948 i
 120.15  23.7743  27.4645 i
 120.2  22.8007  27.4341 i
 120.25  22.4491  27.4036 i
 120.3  38.5682  27.3731 i
 120.35  31.9475  27.3427 i
 120.4  23.3616  27.3122 i
 120.45  24.535  27.2819 i
 120.5  28.4326  27.2515 i
 120.55  25.9654  27.2214 i
 120.6  25.5815  27.1912 i
 120.65  30.4376  27.1612 i
 120.7  22.3455  27.1311 i
 120.75  23.2065  27.1011 i
 120.8  30.5278  27.0711 i
 120.85  30.2621  27.041 i
 120.9  29.5875  27.0108 i
 120.95  23.0347  26.9805 i
 121  19.9917  26.9502 i
 121.05  35.2773  26.9196 i
 121.1  31.213  26.8891 i
 121.15  25.6331  26.8583 i
 121.2  26.1851  26.8276 i
 121.25  22.0999  26.7967 i
 121.3  25.6882  26.7658 i
 121.35  29.8206  26.735 i
 121.4  26.5452  26.7041 i
 121.45  22.7427  26.6733 i
 121.5  27.5782  26.6425 i
 121.55  29.7882  26.6119 i
 121.6  35.7543  26.5813 i
 121.65  24.4633  26.5507 i
 121.7  22.6855  26.5202 i
 121.75  36.9384  26.4898 i
 121.8  25.4362  26.4593 i
 121.85  24.993  26.4288 i
 121.9  34.472  26.3983 i
 121.95  25.6806  26.3677 i
 122  33.1486  26.337 i
 122.05  34.27  26.3062 i
 122.1  23.219  26.2754 i
 122.15  20.2006  26.2444 i
 122.2  21.9767  26.2134 i
 122.25  31.682  26.1822 i
 122.3  28.1745  26.1511 i
 122.35  29.8133  26.1199 i
 122.4  33.7465  26.0888 i
 122.45  32.9009  26.0577 i
 122.5  37.4687  26.0266 i
 122.55  33.0099  25.9956 i
 122.6  23.7709  25.9646 i
 122.65  31.9646  25.9338 i
 122.7  29.077  25.9029 i
 122.75  25.7536  25.8722 i
 122.8  27.3734  25.8414 i
 122.85  37.2796  25.8107 i
 122.9  34.2224  25.7799 i
 122.95  33.1337  25.7489 i
 123  26.7209  25.7178 i
 123.05  21.4402  25.6869 i
 123.1  32.7513  25.6561 i
 123.15  20.2281  25.6251 i
 123.2  17.2392  25.5941 i
 123.25  30.5351  25.563 i
 123.3  29.8534  25.5319 i
 123.35  37.4153  25.5007 i
 123.4  21.9362  25.4694 i
 123.45  24.1485  25.4382 i
 123.5  31.1761  25.4069 i
 123.55  29.8565  25.3757 i
 123.6  30.445  25.3445 i
 123.65  27.7418  25.3133 i
 123.7  23.0619  25.2822 i
 123.75  25.2135  25.2512 i
 123.8  36.3756  25.2202 i
 123.85  28.0079  25.1894 i
 123.9  24.6892  25.1585 i
 123.95  25.6204  25.1277 i
 124  18.4973  25.0968 i
 124.05  28.5239  25.066 i
 124.1  30.4898  25.0352 i
 124.15  29.2637  25.0043 i
 124.2  22.1927  24.9734 i
 124.25  30.6161  24.9424 i
 124.3  22.0409  24.9114 i
 124.35  32.2578  24.8803 i
 124.4  37.3233  24.8492 i
 124.45  25.3629  24.818 i
 124.5  24.011  24.7869 i
 124.55  37.7854  24.7557 i
 124.6  27.9334  24.7246 i
 124.65  22.6596  24.6935 i
 124.7  25.2765  24.6624 i
 124.75  30.3241  24.6314 i
 124.8  32.4618  24.6004 i
 124.85  29.3643  24.5696 i
 124.9  18.0964  24.5387 i
 124.95  22.7758  24.508 i
 125  28.6632  24.4773 i
 125.05  30.7991  24.4466 i
 125.1  32.1372  24.4159 i
 125.15  26.6041  24.3853 i
 125.2  26.4245  24.3546 i
 125.25  33.4338  24.3239 i
 125.3  26.9248  24.2932 i
 125.35  22.831  24.2625 i
 125.4  23.792  24.2317 i
 125.45  24.1064  24.2009 i
 125.5  29.3169  24.17 i
 125.55  39.0561  24.1392 i
 125.6  30.4863  24.1083 i
 125.65  30.3987  24.0774 i
 125.7  26.8117  24.0466 i
 125.75  29.652  24.0158 i
 125.8  33.0547  23.9851 i
 125.85  33.8441  23.9544 i
 125.9  28.9652  23.9238 i
 125.95  21.8807  23.8933 i
 126  30.3326  23.8628 i
 126.05  27.9172  23.8324 i
 126.1  24.7208  23.802 i
 126.15  21.8144  23.7717 i
 126.2  34.93  23.7415 i
 126.25  34.6121  23.7112 i
 126.3  25.9964  23.681 i
 126.35  28.7269  23.6507 i
 126.4  18.5258  23.6204 i
 126.45  30.786  23.5901 i
 126.5  27.9864  23.5598 i
 126.55  25.1785  23.5295 i
 126.6  39.0431  23.4992 i
 126.65  19.2242  23.4688 i
 126.7  33.5397  23.4385 i
 126.75  35.8698  23.4082 i
 126.8  24.423  23.3778 i
 126.85  33.8856  23.3476 i
 126.9  29.9352  23.3174 i
 126.95  29.3516  23.2873 i
 127  15.3591  23.2572 i
 127.05  25.2289  23.2272 i
 127.1  27.5839  23.1973 i
 127.15  20.2396  23.1675 i
 127.2  27.0598  23.1377 i
 127.25  34.7488  23.108 i
 127.3  33.1073  23.0783 i
 127.35  28.3193  23.0487 i
 127.4  35.2267  23.0191 i
 127.45  26.4503  22.9895 i
 127.5  31.7992  22.9599 i
 127.55  27.5948  22.9303 i
 127.6  37.0528  22.9007 i
 127.65  24.5105  22.8711 i
 127.7  25.3667  22.8415 i
 127.75  29.7392  22.8119 i
 127.8  27.1855  22.7823 i
 127.85  24.5587  22.7527 i
 127.9  32.6241  22.7232 i
 127.95  26.4434  22.6937 i
 128  32.6896  22.6642 i
 128.05  28.2431  22.6349 i
 128.1  21.1026  22.6055 i
 128.15  26.2707  22.5763 i
 128.2  25.3603  22.5472 i
 128.25  27.3882  22.5181 i
 128.3  29.5746  22.4891 i
 128.35  28.7379  22.4602 i
 128.4  31.2443  22.4313 i
 128.45  37.1392  22.4026 i
 128.5  21.4022  22.3738 i
 128.55  38.5442  22.3451 i
 128.6  25.5649  22.3164 i
 128.65  24.5039  22.2878 i
 128.7  34.686  22.2591 i
 128.75  29.8721  22.2305 i
 128.8  30.8749  22.2018 i
 128.85  32.9807  22.1732 i
 128.9  34.5546  22.1446 i
 128.95  21.9973  22.116 i
 129  29.271  22.0875 i
 129.05  31.7743  22.059 i
 129.1  28.5465  22.0305 i
 129.15  28.9152  22.0021 i
 129.2  25.3186  21.9738 i
 129.25  23.372  21.9455 i
 129.3  36.7155  21.9173 i
 129.35  29.2359  21.8892 i
 129.4  36.5041  21.8613 i
 129.45  30.1257  21.8334 i
 129.5  21.2102  21.8055 i
 129.55  18.5405  21.7778 i
 129.6  27.4479  21.7501 i
 129.65  31.6242  21.7225 i
 129.7  31.0695  21.6949 i
 129.75  18.1259  21.6674 i
 129.8  30.2851  21.6399 i
 129.85  20.4947  21.6125 i
 129.9  26.5424  21.5851 i
 129.95  32.4653  21.5934 i
 130  33.2148  21.6017 i

