
#Surface 0 of 1 surfaces

#IsoCurve 0, 1801 points
#x y z type
 40  55.7227  34.259 i
 40.05  28.6826  34.2488 i
 40.1  26.5738  34.2387 i
 40.15  38.7486  34.2284 i
 40.2  33.6936  34.2182 i
 40.25  31.863  34.2079 i
 40.3  31.8983  34.1976 i
 40.35  41.7402  34.1873 i
 40.4  33.4792  34.1769 i
 40.45  22.2887  34.1665 i
 40.5  35.7699  34.1561 i
 40.55  42.149  34.1457 i
 40.6  44.89  34.1352 i
 40.65  36.4175  34.1247 i
 40.7  34.5694  34.1142 i
 40.75  29.5307  34.1036 i
 40.8  33.2739  34.093 i
 40.85  26.0808  34.0825 i
 40.9  39.9849  34.0718 i
 40.95  32.3165  34.0612 i
 41  33.8258  34.0505 i
 41.05  39.5047  34.0398 i
 41.1  31.253  34.0291 i
 41.15  48.0634  34.0183 i
 41.2  40.8305  34.0075 i
 41.25  39.2888  33.9967 i
 41.3  25.9343  33.9859 i
 41.35  39.6463  33.9751 i
 41.4  32.8849  33.9642 i
 41.45  35.4859  33.9533 i
 41.5  48.3811  33.9424 i
 41.55  31.098  33.9314 i
 41.6  32.4965  33.9204 i
 41.65  41.6645  33.9094 i
 41.7  36.258  33.8984 i
 41.75  34.6665  33.8874 i
 41.8  43.3601  33.8763 i
 41.85  30.7606  33.8652 i
 41.9  36.3024  33.8541 i
 41.95  36.746  33.843 i
 42  40.9979  33.8318 i
 42.05  36.8856  33.8206 i
 42.1  31.0777  33.8094 i
 42.15  35.2813  33.7982 i
 42.2  39.0704  33.7869 i
 42.25  35.9462  33.7756 i
 42.3  33.3761  33.7643 i
 42.35  34.917  33.753 i
 42.4  33.0687  33.7417 i
 42.45  34.6104  33.7303 i
 42.5  43.2619  33.7189 i
 42.55  33.5463  33.7075 i
 42.6  27.6201  33.6961 i
 42.65  41.3789  33.6846 i
 42.7  26.4052  33.6731 i
 42.75  28.0191  33.6617 i
 42.8  36.009  33.6501 i
 42.85  40.3983  33.6386 i
 42.9  31.5457  33.627 i
 42.95  36.8714  33.6155 i
 43  41.3278  33.6039 i
 43.05  36.7346  33.5922 i
 43.1  31.1982  33.5806 i
 43.15  31.278  33.5689 i
 43.2  43.2909  33.5572 i
 43.25  32.2588  33.5455 i
 43.3  37.004  33.5338 i
 43.35  28.2428  33.5221 i
 43.4  33.5423  33.5103 i
 43.45  29.3802  33.4985 i
 43.5  32.86  33.4867 i
 43.55  46.7686  33.4749 i
 43.6  45.0218  33.4631 i
 43.65  36.7472  33.4512 i
 43.7  33.4313  33.4393 i
 43.75  38.2312  33.4274 i
 43.8  35.6677  33.4155 i
 43.85  33.6251  33.4036 i
 43.9  35.1907  33.3916 i
 43.95  44.4648  33.3796 i
 44  41.6606  33.3676 i
 44.05  42.297  33.3556 i
 44.1  40.3743  33.3436 i
 44.15  29.365  33.3316 i
 44.2  44.2563  33.3195 i
 44.25  54.9992  33.3074 i
 44.3  57.8887  33.2953 i
 44.35  74.8963  33.2832 i
 44.4  72.7155  33.2711 i
 44.45  168.858  33.2589 i
 44.5  599.097  33.2467 i
 44.55  1606.97  33.2346 i
 44.6  2109.79  33.2224 i
 44.65  1372.2  33.2101 i
 44.7  469.641  33.1979 i
 44.75  151.686  33.1856 i
 44.8  80.5065  33.1734 i
 44.85  60.9408  33.1611 i
 44.9  48.1521  33.1488 i
 44.95  51.4195  33.1365 i
 45  36.7361  33.1241 i
 45.05  46.4061  33.1118 i
 45.1  42.3267  33.0994 i
 45.15  31.9864  33.087 i
 45.2  34.2643  33.0746 i
 45.25  31.6311  33.0622 i
 45.3  40.1556  33.0498 i
 45.35  26.0131  33.0374 i
 45.4  37.9658  33.0249 i
 45.45  34.7544  33.0124 i
 45.5  32.3813  32.9999 i
 45.55  31.736  32.9874 i
 45.6  33.5071  32.9749 i
 45.65  31.6429  32.9624 i
 45.7  32.6337  32.9498 i
 45.75  28.9816  32.9373 i
 45.8  31.7486  32.9247 i
 45.85  34.3914  32.9121 i
 45.9  33.6089  32.8995 i
 45.95  39.6561  32.8869 i
 46  42.4936  32.8743 i
 46.05  37.2302  32.8616 i
 46.1  35.7755  32.849 i
 46.15  39.7924  32.8363 i
 46.2  26.9957  32.8236 i
 46.25  25.9075  32.8109 i
 46.3  20.8216  32.7982 i
 46.35  43.3326  32.7855 i
 46.4  33.3707  32.7728 i
 46.45  31.6212  32.76 i
 46.5  35.7525  32.7473 i
 46.55  35.6168  32.7345 i
 46.6  36.0946  32.7217 i
 46.65  34.0144  32.7089 i
 46.7  37.6392  32.6961 i
 46.75  44.9356  32.6833 i
 46.8  29.6987  32.6705 i
 46.85  35.5425  32.6576 i
 46.9  21.8129  32.6448 i
 46.95  27.0798  32.6319 i
 47  25.8457  32.619 i
 47.05  33.4484  32.6061 i
 47.1  34.717  32.5932 i
 47.15  35.0782  32.5803 i
 47.2  32.2896  32.5674 i
 47.25  31.3516  32.5545 i
 47.3  40.0397  32.5415 i
 47.35  39.73  32.5286 i
 47.4  37.5825  32.5156 i
 47.45  37.7096  32.5027 i
 47.5  38.0474  32.4897 i
 47.55  23.2918  32.4767 i
 47.6  27.9807  32.4637 i
 47.65  24.2463  32.4507 i
 47.7  32.6797  32.4377 i
 47.75  41.193  32.4246 i
 47.8  29.2822  32.4116 i
 47.85  42.3623  32.3985 i
 47.9  35.9084  32.3855 i
 47.95  31.7228  32.3724 i
 48  37.664  32.3593 i
 48.05  32.7183  32.3463 i
 48.1  27.7056  32.3332 i
 48.15  24.5594  32.3201 i
 48.2  27.3137  32.307 i
 48.25  32.8702  32.2938 i
 48.3  42.7607  32.2807 i
 48.35  19.8353  32.2676 i
 48.4  28.5852  32.2544 i
 48.45  21.6735  32.2413 i
 48.5  32.5528  32.2281 i
 48.55  32.2905  32.215 i
 48.6  38.8298  32.2018 i
 48.65  35.9491  32.1886 i
 48.7  29.2283  32.1754 i
 48.75  35.1259  32.1623 i
 48.8  32.5536  32.1491 i
 48.85  32.4112  32.1358 i
 48.9  27.5504  32.1226 i
 48.95  29.4193  32.1094 i
 49  22.2384  32.0962 i
 49.05  31.5896  32.083 i
 49.1  33.8249  32.0697 i
 49.15  36.4132  32.0565 i
 49.2  30.4109  32.0432 i
 49.25  20.0335  32.03 i
 49.3  25.9366  32.0167 i
 49.35  37.1494  32.0035 i
 49.4  25.1495  31.9902 i
 49.45  22.8866  31.9769 i
 49.5  27.5  31.9636 i
 49.55  28.2271  31.9503 i
 49.6  28.2282  31.937 i
 49.65  24.2782  31.9237 i
 49.7  24.7827  31.9104 i
 49.75  30.109  31.8971 i
 49.8  39.8542  31.8838 i
 49.85  34.5648  31.8705 i
 49.9  29.2377  31.8572 i
 49.95  29.1087  31.8439 i
 50  22.5373  31.8305 i
 50.05  35.6871  31.8172 i
 50.1  23.426  31.8039 i
 50.15  38.9089  31.7905 i
 50.2  48.8366  31.7772 i
 50.25  38.8023  31.7638 i
 50.3  29.7623  31.7505 i
 50.35  25.1638  31.7371 i
 50.4  31.7831  31.7238 i
 50.45  28.571  31.7104 i
 50.5  24.3959  31.6971 i
 50.55  29.4049  31.6837 i
 50.6  32.7648  31.6703 i
 50.65  28.239  31.657 i
 50.7  33.6081  31.6436 i
 50.75  42.016  31.6302 i
 50.8  39.4206  31.6169 i
 50.85  34.5228  31.6035 i
 50.9  32.7798  31.5901 i
 50.95  26.7751  31.5767 i
 51  29.9125  31.5633 i
 51.05  27.0416  31.55 i
 51.1  22.2526  31.5366 i
 51.15  27.9885  31.5232 i
 51.2  29.1475  31.5098 i
 51.25  35.6823  31.4964 i
 51.3  26.486  31.483 i
 51.35  30.0686  31.4696 i
 51.4  33.1151  31.4562 i
 51.45  25.9984  31.4429 i
 51.5  26.6738  31.4295 i
 51.55  27.2025  31.4161 i
 51.6  20.7852  31.4027 i
 51.65  30.9938  31.3893 i
 51.7  35.1939  31.3759 i
 51.75  28.9911  31.3625 i
 51.8  32.2528  31.3491 i
 51.85  29.6636  31.3357 i
 51.9  29.7554  31.3223 i
 51.95  20.8289  31.3089 i
 52  31.9077  31.2956 i
 52.05  26.1338  31.2822 i
 52.1  38.349  31.2688 i
 52.15  31.8081  31.2554 i
 52.2  38.335  31.242 i
 52.25  25.0255  31.2286 i
 52.3  24.5313  31.2152 i
 52.35  24.145  31.2019 i
 52.4  34.2513  31.1885 i
 52.45  26.3017  31.1751 i
 52.5  29.6817  31.1617 i
 52.55  31.92  31.1484 i
 52.6  35.2658  31.135 i
 52.65  28.4314  31.1216 i
 52.7  19.0472  31.1083 i
 52.75  31.6919  31.0949 i
 52.8  28.1912  31.0816 i
 52.85  31.0868  31.0682 i
 52.9  33.6036  31.0548 i
 52.95  35.9052  31.0415 i
 53  33.6891  31.0281 i
 53.05  25.9197  31.0148 i
 53.1  32.9452  31.0015 i
 53.15  34.3104  30.9881 i
 53.2  33.2463  30.9748 i
 53.25  32.8923  30.9615 i
 53.3  33.4339  30.9481 i
 53.35  27.4175  30.9348 i
 53.4  37.8184  30.9215 i
 53.45  33.3714  30.9082 i
 53.5  33.4621  30.8949 i
 53.55  26.1158  30.8816 i
 53.6  29.0745  30.8683 i
 53.65  32.6748  30.855 i
 53.7  32.8235  30.8417 i
 53.75  24.8576  30.8284 i
 53.8  28.5277  30.8151 i
 53.85  25.8652  30.8019 i
 53.9  39.6133  30.7886 i
 53.95  41.9358  30.7753 i
 54  35.7307  30.7621 i
 54.05  31.3318  30.7488 i
 54.1  32.4455  30.7356 i
 54.15  28.2511  30.7223 i
 54.2  36.0136  30.7091 i
 54.25  33.1034  30.6959 i
 54.3  26.5916  30.6827 i
 54.35  34.0396  30.6694 i
 54.4  29.0901  30.6562 i
 54.45  46.4141  30.643 i
 54.5  44.7664  30.6298 i
 54.55  39.4566  30.6166 i
 54.6  26.9851  30.6035 i
 54.65  19.8333  30.5903 i
 54.7  30.0497  30.5771 i
 54.75  30.5395  30.564 i
 54.8  28.9863  30.5508 i
 54.85  24.2535  30.5377 i
 54.9  34.653  30.5245 i
 54.95  22.5389  30.5114 i
 55  33.7731  30.4983 i
 55.05  35.7291  30.4852 i
 55.1  38.0601  30.4721 i
 55.15  25.1643  30.459 i
 55.2  32.3021  30.4459 i
 55.25  24.0106  30.4328 i
 55.3  27.8346  30.4197 i
 55.35  21.5658  30.4067 i
 55.4  34.8816  30.3936 i
 55.45  17.0732  30.3806 i
 55.5  32.2814  30.3676 i
 55.55  25.7813  30.3545 i
 55.6  26.7114  30.3415 i
 55.65  35.7612  30.3285 i
 55.7  28.0057  30.3155 i
 55.75  25.4608  30.3025 i
 55.8  39.8375  30.2896 i
 55.85  42.7593  30.2766 i
 55.9  34.2405  30.2636 i
 55.95  31.0758  30.2507 i
 56  26.4171  30.2378 i
 56.05  32.249  30.2248 i
 56.1  29.1533  30.2119 i
 56.15  26.0325  30.199 i
 56.2  32.7729  30.1861 i
 56.25  27.0118  30.1733 i
 56.3  43.3698  30.1604 i
 56.35  32.0899  30.1475 i
 56.4  30.4914  30.1347 i
 56.45  37.6544  30.1218 i
 56.5  37.1683  30.109 i
 56.55  33.8272  30.0962 i
 56.6  45.7764  30.0834 i
 56.65  38.7923  30.0706 i
 56.7  30.6653  30.0578 i
 56.75  32.7747  30.0451 i
 56.8  26.6359  30.0323 i
 56.85  29.6076  30.0196 i
 56.9  23.3628  30.0069 i
 56.95  28.2034  29.9942 i
 57  26.887  29.9815 i
 57.05  39.4313  29.9688 i
 57.1  23.9638  29.9561 i
 57.15  42.5338  29.9434 i
 57.2  39.254  29.9308 i
 57.25  35.5393  29.9182 i
 57.3  28.6665  29.9055 i
 57.35  28.4662  29.8929 i
 57.4  31.2276  29.8803 i
 57.45  35.3085  29.8677 i
 57.5  28.1452  29.8552 i
 57.55  28.6635  29.8426 i
 57.6  29.5091  29.8301 i
 57.65  24.4024  29.8176 i
 57.7  35.8586  29.8051 i
 57.75  33.987  29.7926 i
 57.8  24.9675  29.7801 i
 57.85  35.1365  29.7676 i
 57.9  24.4877  29.7552 i
 57.95  31.2504  29.7427 i
 58  32.813  29.7303 i
 58.05  25.7129  29.7179 i
 58.1  32.5146  29.7055 i
 58.15  33.0604  29.6932 i
 58.2  46.6511  29.6808 i
 58.25  21.2438  29.6685 i
 58.3  28.1842  29.6561 i
 58.35  32.2866  29.6438 i
 58.4  27.24  29.6315 i
 58.45  31.2712  29.6193 i
 58.5  29.6491  29.607 i
 58.55  25.1999  29.5948 i
 58.6  34.3002  29.5825 i
 58.65  27.2395  29.5703 i
 58.7  29.7736  29.5581 i
 58.75  26.6545  29.546 i
 58.8  26.9603  29.5338 i
 58.85  22.5924  29.5217 i
 58.9  28.0361  29.5095 i
 58.95  23.9961  29.4974 i
 59  36.9282  29.4853 i
 59.05  24.7928  29.4733 i
 59.1  28.8686  29.4612 i
 59.15  26.9146  29.4492 i
 59.2  36.8952  29.4372 i
 59.25  25.891  29.4252 i
 59.3  23.8485  29.4132 i
 59.35  27.2015  29.4012 i
 59.4  30.119  29.3893 i
 59.45  21.4791  29.3773 i
 59.5  23.0027  29.3654 i
 59.55  26.1308  29.3535 i
 59.6  26.3654  29.3417 i
 59.65  28.4427  29.3298 i
 59.7  35.6489  29.318 i
 59.75  30.1377  29.3062 i
 59.8  30.9341  29.2944 i
 59.85  43.281  29.2826 i
 59.9  23.3335  29.2709 i
 59.95  31.651  29.2591 i
 60  36.6642  29.2474 i
 60.05  28.6641  29.2357 i
 60.1  39.3226  29.2241 i
 60.15  25.4082  29.2124 i
 60.2  22.0362  29.2008 i
 60.25  27.6109  29.1892 i
 60.3  35.273  29.1776 i
 60.35  38.2964  29.166 i
 60.4  19.7908  29.1545 i
 60.45  31.7876  29.143 i
 60.5  31.2211  29.1314 i
 60.55  27.3334  29.12 i
 60.6  34.9323  29.1085 i
 60.65  20.4746  29.0971 i
 60.7  28.6413  29.0856 i
 60.75  19.8343  29.0742 i
 60.8  29.3831  29.0629 i
 60.85  36.5121  29.0515 i
 60.9  31.7995  29.0402 i
 60.95  18.3093  29.0289 i
 61  21.6002  29.0176 i
 61.05  23.7  29.0063 i
 61.1  25.9622  28.9951 i
 61.15  22.3677  28.9839 i
 61.2  24.7704  28.9727 i
 61.25  31.8411  28.9615 i
 61.3  30.1749  28.9504 i
 61.35  27.2445  28.9392 i
 61.4  28.2259  28.9281 i
 61.45  20.0569  28.9171 i
 61.5  25.9097  28.906 i
 61.55  38.3898  28.895 i
 61.6  30.5221  28.884 i
 61.65  29.6792  28.873 i
 61.7  25.5221  28.862 i
 61.75  35.8097  28.8511 i
 61.8  32.341  28.8402 i
 61.85  24.636  28.8293 i
 61.9  32.1178  28.8184 i
 61.95  21.3482  28.8076 i
 62  24.798  28.7968 i
 62.05  28.6977  28.786 i
 62.1  18.8648  28.7752 i
 62.15  25.9337  28.7645 i
 62.2  26.7748  28.7538 i
 62.25  29.5327  28.7431 i
 62.3  35.5458  28.7324 i
 62.35  27.1094  28.7218 i
 62.4  18.8688  28.7112 i
 62.45  26.3534  28.7006 i
 62.5  29.62  28.69 i
 62.55  21.4214  28.6795 i
 62.6  22.1652  28.669 i
 62.65  23.9468  28.6585 i
 62.7  31.0413  28.6481 i
 62.75  33.0903  28.6377 i
 62.8  25.4034  28.6273 i
 62.85  31.9102  28.6169 i
 62.9  29.4265  28.6065 i
 62.95  24.1254  28.5962 i
 63  30.2606  28.5859 i
 63.05  35.4757  28.5757 i
 63.1  35.7638  28.5654 i
 63.15  37.7686  28.5552 i
 63.2  48.7181  28.545 i
 63.25  41.8503  28.5349 i
 63.3  36.4916  28.5248 i
 63.35  26.9767  28.5147 i
 63.4  39.8937  28.5046 i
 63.45  36.168  28.4946 i
 63.5  25.1634  28.4846 i
 63.55  33.4487  28.4746 i
 63.6  26.051  28.4646 i
 63.65  40.0898  28.4547 i
 63.7  31.1353  28.4448 i
 63.75  36.5723  28.4349 i
 63.8  30.7594  28.4251 i
 63.85  36.2971  28.4153 i
 63.9  30.8288  28.4055 i
 63.95  23.6043  28.3958 i
 64  22.8259  28.386 i
 64.05  27.7867  28.3763 i
 64.1  25.0152  28.3667 i
 64.15  27.8756  28.357 i
 64.2  31.3451  28.3474 i
 64.25  29.4387  28.3379 i
 64.3  30.9132  28.3283 i
 64.35  33.3128  28.3188 i
 64.4  42.1065  28.3093 i
 64.45  29.827  28.2999 i
 64.5  31.4457  28.2905 i
 64.55  28.0751  28.2811 i
 64.6  30.9656  28.2717 i
 64.65  53.9079  28.2624 i
 64.7  50.2476  28.2531 i
 64.75  123.128  28.2439 i
 64.8  278.495  28.2346 i
 64.85  319.345  28.2254 i
 64.9  202.544  28.2163 i
 64.95  113.148  28.2071 i
 65  67.0031  28.198 i
 65.05  56.6338  28.189 i
 65.1  33.7429  28.1799 i
 65.15  33.343  28.1709 i
 65.2  16.8579  28.1619 i
 65.25  19.9799  28.153 i
 65.3  31.0864  28.1441 i
 65.35  33.6517  28.1352 i
 65.4  44.6363  28.1264 i
 65.45  27.0971  28.1176 i
 65.5  37.2924  28.1088 i
 65.55  21.7251  28.1 i
 65.6  25.9729  28.0913 i
 65.65  16.9977  28.0827 i
 65.7  42.6957  28.074 i
 65.75  27.7727  28.0654 i
 65.8  26.8149  28.0568 i
 65.85  28.4693  28.0483 i
 65.9  24.1107  28.0398 i
 65.95  27.4679  28.0313 i
 66  39.3952  28.0229 i
 66.05  20.3093  28.0145 i
 66.1  31.3873  28.0061 i
 66.15  36.0713  27.9978 i
 66.2  37.8309  27.9895 i
 66.25  26.433  27.9812 i
 66.3  30.14  27.973 i
 66.35  31.7602  27.9648 i
 66.4  27.4597  27.9566 i
 66.45  26.5383  27.9485 i
 66.5  21.8372  27.9404 i
 66.55  26.0216  27.9324 i
 66.6  26.3446  27.9244 i
 66.65  20.3692  27.9164 i
 66.7  28.4431  27.9085 i
 66.75  29.9611  27.9005 i
 66.8  30.1033  27.8927 i
 66.85  23.5955  27.8848 i
 66.9  47.421  27.877 i
 66.95  35.0653  27.8693 i
 67  48.8135  27.8616 i
 67.05  25.191  27.8539 i
 67.1  37.9072  27.8462 i
 67.15  33.5524  27.8386 i
 67.2  29.9071  27.831 i
 67.25  23.044  27.8235 i
 67.3  27.4532  27.816 i
 67.35  30.304  27.8085 i
 67.4  27.5635  27.8011 i
 67.45  23.1451  27.7937 i
 67.5  25.0369  27.7864 i
 67.55  37.4878  27.7791 i
 67.6  25.7444  27.7718 i
 67.65  29.5774  27.7646 i
 67.7  21.1046  27.7574 i
 67.75  35.38  27.7502 i
 67.8  26.4784  27.7431 i
 67.85  23.5573  27.736 i
 67.9  27.9191  27.729 i
 67.95  42.7649  27.722 i
 68  37.5497  27.715 i
 68.05  23.222  27.7081 i
 68.1  16.4469  27.7012 i
 68.15  30.4743  27.6944 i
 68.2  23.8272  27.6876 i
 68.25  32.4338  27.6808 i
 68.3  29.7328  27.6741 i
 68.35  19.9612  27.6674 i
 68.4  31.8609  27.6608 i
 68.45  26.9738  27.6542 i
 68.5  40.5937  27.6476 i
 68.55  24.7119  27.6411 i
 68.6  18.7975  27.6346 i
 68.65  25.902  27.6282 i
 68.7  22.7853  27.6218 i
 68.75  29.5259  27.6154 i
 68.8  29.331  27.6091 i
 68.85  32.0853  27.6028 i
 68.9  31.5739  27.5966 i
 68.95  27.6885  27.5904 i
 69  33.6885  27.5842 i
 69.05  29.6757  27.5781 i
 69.1  33.9593  27.572 i
 69.15  22.0269  27.566 i
 69.2  27.4108  27.56 i
 69.25  42.7525  27.5541 i
 69.3  22.7712  27.5482 i
 69.35  25.8423  27.5423 i
 69.4  31.8148  27.5365 i
 69.45  23.8927  27.5308 i
 69.5  32.0989  27.525 i
 69.55  23.4647  27.5193 i
 69.6  19.9443  27.5137 i
 69.65  20.2126  27.5081 i
 69.7  26.7538  27.5025 i
 69.75  22.1394  27.497 i
 69.8  22.751  27.4916 i
 69.85  32.7621  27.4861 i
 69.9  24.095  27.4808 i
 69.95  35.4581  27.4754 i
 70  31.7004  27.4701 i
 70.05  23.7646  27.4649 i
 70.1  36.7332  27.4597 i
 70.15  47.5625  27.4545 i
 70.2  31.0321  27.4494 i
 70.25  32.5863  27.4443 i
 70.3  19.8658  27.4393 i
 70.35  27.4149  27.4343 i
 70.4  33.0166  27.4294 i
 70.45  33.4809  27.4245 i
 70.5  18.4866  27.4196 i
 70.55  21.6745  27.4148 i
 70.6  41.9981  27.4101 i
 70.65  28.85  27.4054 i
 70.7  18.5077  27.4007 i
 70.75  29.2013  27.3961 i
 70.8  34.1034  27.3915 i
 70.85  20.2531  27.387 i
 70.9  20.9002  27.3825 i
 70.95  21.1316  27.3781 i
 71  28.1279  27.3737 i
 71.05  31.3796  27.3693 i
 71.1  24.4889  27.3651 i
 71.15  36.0495  27.3608 i
 71.2  32.9067  27.3566 i
 71.25  33.1951  27.3525 i
 71.3  31.7066  27.3483 i
 71.35  31.6142  27.3443 i
 71.4  23.522  27.3403 i
 71.45  33.8888  27.3363 i
 71.5  27.2872  27.3324 i
 71.55  25.9274  27.3285 i
 71.6  23.5344  27.3247 i
 71.65  20.7438  27.3209 i
 71.7  31.1821  27.3172 i
 71.75  32.5597  27.3135 i
 71.8  32.4321  27.3099 i
 71.85  40.1853  27.3063 i
 71.9  24.3368  27.3028 i
 71.95  18.5864  27.2993 i
 72  26.8555  27.2959 i
 72.05  24.5101  27.2925 i
 72.1  24.1343  27.2892 i
 72.15  22.0057  27.2859 i
 72.2  28.8134  27.2827 i
 72.25  24.5809  27.2796 i
 72.3  32.1399  27.2765 i
 72.35  29.0203  27.2734 i
 72.4  24.3102  27.2704 i
 72.45  27.572  27.2675 i
 72.5  17.0704  27.2646 i
 72.55  27.8202  27.2618 i
 72.6  35.8808  27.259 i
 72.65  36.788  27.2563 i
 72.7  27.7284  27.2536 i
 72.75  26.532  27.251 i
 72.8  29.7456  27.2485 i
 72.85  23.6366  27.246 i
 72.9  30.7818  27.2435 i
 72.95  28.364  27.2411 i
 73  42.942  27.2388 i
 73.05  36.9843  27.2365 i
 73.1  19.4323  27.2343 i
 73.15  32.1943  27.2321 i
 73.2  24.4439  27.2299 i
 73.25  27.9847  27.2279 i
 73.3  31.39  27.2258 i
 73.35  31.0816  27.2239 i
 73.4  32.5224  27.2219 i
 73.45  33.4323  27.2201 i
 73.5  39.7744  27.2182 i
 73.55  39.1373  27.2165 i
 73.6  25.5221  27.2148 i
 73.65  29.8017  27.2131 i
 73.7  27.1773  27.2115 i
 73.75  24.5776  27.2099 i
 73.8  20.7333  27.2084 i
 73.85  26.5804  27.2069 i
 73.9  26.8802  27.2055 i
 73.95  28.237  27.2041 i
 74  28.1055  27.2028 i
 74.05  31.9941  27.2016 i
 74.1  29.9271  27.2004 i
 74.15  27.704  27.1992 i
 74.2  32.1744  27.1981 i
 74.25  28.1024  27.197 i
 74.3  31.0797  27.196 i
 74.35  31.759  27.195 i
 74.4  25.5504  27.1941 i
 74.45  21.7168  27.1933 i
 74.5  33.7006  27.1924 i
 74.55  33.2849  27.1917 i
 74.6  17.8976  27.191 i
 74.65  27.8099  27.1903 i
 74.7  32.6409  27.1897 i
 74.75  25.7494  27.1891 i
 74.8  35.8191  27.1886 i
 74.85  33.9011  27.1881 i
 74.9  31.08  27.1877 i
 74.95  26.3418  27.1873 i
 75  39.9601  27.1869 i
 75.05  32.2741  27.1866 i
 75.1  35.8931  27.1864 i
 75.15  23.7722  27.1862 i
 75.2  25.0495  27.1861 i
 75.25  25.9684  27.186 i
 75.3  23.6309  27.1859 i
 75.35  26.5109  27.1859 i
 75.4  27.1261  27.1859 i
 75.45  33.4275  27.186 i
 75.5  27.2888  27.1862 i
 75.55  29.0887  27.1863 i
 75.6  44.9289  27.1866 i
 75.65  33.4927  27.1868 i
 75.7  29.4801  27.1872 i
 75.75  28.8612  27.1875 i
 75.8  24.1592  27.1879 i
 75.85  30.7464  27.1884 i
 75.9  34.7359  27.1889 i
 75.95  42.3376  27.1894 i
 76  33.1519  27.19 i
 76.05  30.4063  27.1906 i
 76.1  28.4432  27.1913 i
 76.15  35.4408  27.192 i
 76.2  38.2068  27.1928 i
 76.25  20.3035  27.1936 i
 76.3  27.8394  27.1944 i
 76.35  29.3736  27.1953 i
 76.4  30.3126  27.1963 i
 76.45  19.7867  27.1973 i
 76.5  23.2628  27.1983 i
 76.55  19.5063  27.1994 i
 76.6  20.4755  27.2005 i
 76.65  21.4658  27.2016 i
 76.7  34.5072  27.2028 i
 76.75  24.315  27.2041 i
 76.8  34.2117  27.2054 i
 76.85  24.3568  27.2067 i
 76.9  35.1695  27.2081 i
 76.95  45.2513  27.2095 i
 77  25.8536  27.2109 i
 77.05  29.1301  27.2124 i
 77.1  25.2833  27.214 i
 77.15  24.0934  27.2155 i
 77.2  34.093  27.2172 i
 77.25  25.1563  27.2188 i
 77.3  36.9271  27.2205 i
 77.35  32.2156  27.2223 i
 77.4  32.9833  27.2241 i
 77.45  16.7049  27.2259 i
 77.5  30.7896  27.2278 i
 77.55  24.7441  27.2297 i
 77.6  27.8934  27.2316 i
 77.65  26.4839  27.2336 i
 77.7  36.6075  27.2356 i
 77.75  32.0417  27.2377 i
 77.8  29.0322  27.2398 i
 77.85  23.4265  27.242 i
 77.9  32.3666  27.2442 i
 77.95  29.0649  27.2464 i
 78  34.6108  27.2487 i
 78.05  22.1767  27.251 i
 78.1  27.846  27.2533 i
 78.15  28.5152  27.2557 i
 78.2  29.5161  27.2581 i
 78.25  28.7008  27.2606 i
 78.3  27.0416  27.2631 i
 78.35  20.3321  27.2656 i
 78.4  23.5879  27.2682 i
 78.45  30.0433  27.2708 i
 78.5  36.144  27.2735 i
 78.55  18.6517  27.2762 i
 78.6  17.8587  27.2789 i
 78.65  26.3191  27.2817 i
 78.7  25.5136  27.2845 i
 78.75  30.5762  27.2873 i
 78.8  19.4867  27.2902 i
 78.85  25.7977  27.2931 i
 78.9  27.2708  27.2961 i
 78.95  40.6089  27.2991 i
 79  37.8914  27.3021 i
 79.05  27.2899  27.3052 i
 79.1  24.7639  27.3083 i
 79.15  26.91  27.3114 i
 79.2  30.9324  27.3146 i
 79.25  32.1775  27.3178 i
 79.3  28.5635  27.321 i
 79.35  22.7898  27.3243 i
 79.4  24.7804  27.3276 i
 79.45  14.7611  27.331 i
 79.5  26.8751  27.3344 i
 79.55  26.5159  27.3378 i
 79.6  26.7628  27.3412 i
 79.65  24.9192  27.3447 i
 79.7  31.2092  27.3483 i
 79.75  27.3183  27.3518 i
 79.8  33.3291  27.3554 i
 79.85  27.7173  27.359 i
 79.9  23.1806  27.3627 i
 79.95  23.7238  27.3664 i
 80  29.0845  27.3701 i
 80.05  29.4683  27.3739 i
 80.1  33.6157  27.3777 i
 80.15  24.5588  27.3815 i
 80.2  29.2033  27.3854 i
 80.25  42.6542  27.3893 i
 80.3  30.2312  27.3932 i
 80.35  27.5797  27.3972 i
 80.4  33.5899  27.4012 i
 80.45  26.2285  27.4052 i
 80.5  25.0714  27.4093 i
 80.55  21.0025  27.4134 i
 80.6  24.0135  27.4175 i
 80.65  27.3665  27.4217 i
 80.7  27.8732  27.4259 i
 80.75  32.1874  27.4301 i
 80.8  23.8808  27.4344 i
 80.85  33.5351  27.4387 i
 80.9  28.6574  27.443 i
 80.95  39.0599  27.4473 i
 81  21.2137  27.4517 i
 81.05  23.3475  27.4561 i
 81.1  33.5181  27.4606 i
 81.15  28.3824  27.465 i
 81.2  24.109  27.4696 i
 81.25  34.8612  27.4741 i
 81.3  26.669  27.4787 i
 81.35  31.1081  27.4833 i
 81.4  21.5671  27.4879 i
 81.45  23.7248  27.4925 i
 81.5  36.631  27.4972 i
 81.55  30.7954  27.502 i
 81.6  24.5838  27.5067 i
 81.65  21.2864  27.5115 i
 81.7  29.6555  27.5163 i
 81.75  31.2043  27.5211 i
 81.8  33.3823  27.526 i
 81.85  40.4804  27.5309 i
 81.9  40.9304  27.5358 i
 81.95  50.1613  27.5408 i
 82  70.5181  27.5457 i
 82.05  144.601  27.5507 i
 82.1  254.033  27.5558 i
 82.15  229.829  27.5608 i
 82.2  176.514  27.5659 i
 82.25  122.398  27.5711 i
 82.3  75.9303  27.5762 i
 82.35  52.8434  27.5814 i
 82.4  38.9499  27.5866 i
 82.45  43.7196  27.5918 i
 82.5  36.3891  27.5971 i
 82.55  35.2754  27.6024 i
 82.6  32.8863  27.6077 i
 82.65  25.2418  27.613 i
 82.7  25.816  27.6184 i
 82.75  34.2742  27.6238 i
 82.8  22.2622  27.6292 i
 82.85  21.2394  27.6346 i
 82.9  38.4829  27.6401 i
 82.95  20.8952  27.6456 i
 83  31.4522  27.6511 i
 83.05  31.3891  27.6567 i
 83.1  30.7587  27.6622 i
 83.15  25.2803  27.6678 i
 83.2  25.4317  27.6734 i
 83.25  23.3089  27.6791 i
 83.3  26.649  27.6848 i
 83.35  25.461  27.6905 i
 83.4  31.4052  27.6962 i
 83.45  35.7629  27.7019 i
 83.5  27.3343  27.7077 i
 83.55  30.094  27.7135 i
 83.6  26.384  27.7193 i
 83.65  22.3345  27.7252 i
 83.7  18.1831  27.731 i
 83.75  27.1833  27.7369 i
 83.8  28.9474  27.7429 i
 83.85  35.133  27.7488 i
 83.9  24.5154  27.7548 i
 83.95  28.6863  27.7607 i
 84  24.5245  27.7668 i
 84.05  33.3154  27.7728 i
 84.1  26.6259  27.7788 i
 84.15  26.0556  27.7849 i
 84.2  26.7241  27.791 i
 84.25  33.8277  27.7971 i
 84.3  27.0819  27.8033 i
 84.35  35.2082  27.8095 i
 84.4  22.3104  27.8156 i
 84.45  36.2894  27.8219 i
 84.5  28.8583  27.8281 i
 84.55  17.4827  27.8343 i
 84.6  32.1191  27.8406 i
 84.65  21.9307  27.8469 i
 84.7  25.309  27.8532 i
 84.75  25.9019  27.8596 i
 84.8  27.3326  27.8659 i
 84.85  19.0997  27.8723 i
 84.9  27.4175  27.8787 i
 84.95  23.0944  27.8851 i
 85  32.9495  27.8916 i
 85.05  26.1719  27.898 i
 85.1  23.0724  27.9045 i
 85.15  33.265  27.911 i
 85.2  34.5884  27.9176 i
 85.25  26.8687  27.9241 i
 85.3  27.5128  27.9307 i
 85.35  30.8586  27.9372 i
 85.4  12.7598  27.9438 i
 85.45  25.9777  27.9505 i
 85.5  27.0687  27.9571 i
 85.55  25.3635  27.9638 i
 85.6  21.2382  27.9704 i
 85.65  35.0242  27.9771 i
 85.7  25.1153  27.9838 i
 85.75  26.7924  27.9906 i
 85.8  30.1642  27.9973 i
 85.85  43.6933  28.0041 i
 85.9  26.1126  28.0109 i
 85.95  23.1858  28.0177 i
 86  27.8292  28.0245 i
 86.05  32.8274  28.0313 i
 86.1  28.6889  28.0382 i
 86.15  23.6805  28.0451 i
 86.2  34.0148  28.052 i
 86.25  23.6828  28.0589 i
 86.3  25.7853  28.0658 i
 86.35  31.3558  28.0727 i
 86.4  21.9612  28.0797 i
 86.45  25.6279  28.0867 i
 86.5  25.0601  28.0937 i
 86.55  24.9824  28.1007 i
 86.6  24.7628  28.1077 i
 86.65  29.5186  28.1147 i
 86.7  35.0173  28.1218 i
 86.75  22.0223  28.1289 i
 86.8  19.7465  28.1359 i
 86.85  20.8354  28.143 i
 86.9  25.0055  28.1502 i
 86.95  29.1769  28.1573 i
 87  34.4949  28.1644 i
 87.05  40.7591  28.1716 i
 87.1  29.1764  28.1788 i
 87.15  25.5853  28.186 i
 87.2  26.5719  28.1932 i
 87.25  30.8521  28.2004 i
 87.3  32.5074  28.2076 i
 87.35  27.0405  28.2149 i
 87.4  23.9795  28.2221 i
 87.45  23.1922  28.2294 i
 87.5  22.7766  28.2367 i
 87.55  26.1356  28.244 i
 87.6  25.9763  28.2513 i
 87.65  33.2616  28.2586 i
 87.7  23.92  28.266 i
 87.75  31.7661  28.2733 i
 87.8  26.6464  28.2807 i
 87.85  24.669  28.2881 i
 87.9  17.8284  28.2955 i
 87.95  27.2498  28.3029 i
 88  21.2727  28.3103 i
 88.05  20.8525  28.3177 i
 88.1  32.9755  28.3252 i
 88.15  34.9039  28.3326 i
 88.2  29.8812  28.3401 i
 88.25  30.4718  28.3476 i
 88.3  24.08  28.355 i
 88.35  38.0807  28.3625 i
 88.4  32.8856  28.37 i
 88.45  22.9332  28.3776 i
 88.5  38.1254  28.3851 i
 88.55  34.8059  28.3926 i
 88.6  28.0062  28.4002 i
 88.65  26.3006  28.4078 i
 88.7  29.0274  28.4153 i
 88.75  22.5761  28.4229 i
 88.8  22.7803  28.4305 i
 88.85  40.0954  28.4381 i
 88.9  21.8689  28.4457 i
 88.95  37.6408  28.4534 i
 89  28.8244  28.461 i
 89.05  24.3904  28.4686 i
 89.1  26.0496  28.4763 i
 89.15  28.8353  28.4839 i
 89.2  30.6101  28.4916 i
 89.25  23.0617  28.4993 i
 89.3  34.165  28.507 i
 89.35  26.2655  28.5147 i
 89.4  28.9899  28.5224 i
 89.45  42.0543  28.5301 i
 89.5  30.514  28.5378 i
 89.55  17.1647  28.5455 i
 89.6  21.2694  28.5533 i
 89.65  22.8673  28.561 i
 89.7  25.5906  28.5688 i
 89.75  27.9247  28.5765 i
 89.8  19.61  28.5843 i
 89.85  37.6047  28.5921 i
 89.9  23.8629  28.5998 i
 89.95  29.8062  28.6076 i
 90  29.2658  28.6154 i
 90.05  27.6296  28.6232 i
 90.1  20.5897  28.631 i
 90.15  34.7977  28.6388 i
 90.2  25.6564  28.6467 i
 90.25  30.1049  28.6545 i
 90.3  30.9535  28.6623 i
 90.35  42.5121  28.6702 i
 90.4  28.3577  28.678 i
 90.45  36.2826  28.6859 i
 90.5  25.4923  28.6937 i
 90.55  26.1216  28.7016 i
 90.6  25.1237  28.7096 i
 90.65  30.1014  28.7177 i
 90.7  30.3637  28.726 i
 90.75  35.4296  28.7345 i
 90.8  32.7029  28.7431 i
 90.85  28.329  28.7519 i
 90.9  22.6368  28.7608 i
 90.95  21.2067  28.7699 i
 91  26.1303  28.7791 i
 91.05  30.8658  28.7885 i
 91.1  24.254  28.7981 i
 91.15  31.9623  28.8078 i
 91.2  31.7494  28.8176 i
 91.25  27.5243  28.8276 i
 91.3  26.9241  28.8378 i
 91.35  27.9816  28.8481 i
 91.4  24.5597  28.8585 i
 91.45  15.3238  28.8691 i
 91.5  36.0194  28.8798 i
 91.55  25.0408  28.8907 i
 91.6  28.8972  28.9017 i
 91.65  24.767  28.9128 i
 91.7  31.1488  28.9241 i
 91.75  27.3029  28.9355 i
 91.8  27.9962  28.947 i
 91.85  32.6278  28.9587 i
 91.9  26.435  28.9705 i
 91.95  38.7404  28.9825 i
 92  25.8292  28.9945 i
 92.05  33.1966  29.0067 i
 92.1  38.6136  29.0191 i
 92.15  28.5734  29.0315 i
 92.2  31.9888  29.0441 i
 92.25  28.1234  29.0568 i
 92.3  25.0232  29.0696 i
 92.35  30.473  29.0826 i
 92.4  22.7709  29.0956 i
 92.45  18.0112  29.1088 i
 92.5  27.2397  29.1221 i
 92.55  36.6763  29.1355 i
 92.6  22.492  29.149 i
 92.65  25.5257  29.1627 i
 92.7  29.1385  29.1764 i
 92.75  34.5303  29.1903 i
 92.8  34.2405  29.2043 i
 92.85  28.7062  29.2183 i
 92.9  27.8516  29.2325 i
 92.95  25.3378  29.2468 i
 93  22.3345  29.2612 i
 93.05  22.2109  29.2757 i
 93.1  36.0616  29.2903 i
 93.15  40.4101  29.305 i
 93.2  24.3549  29.3198 i
 93.25  27.7812  29.3347 i
 93.3  28.2573  29.3497 i
 93.35  20.5516  29.3648 i
 93.4  24.7205  29.38 i
 93.45  24.6513  29.3953 i
 93.5  20.6024  29.4106 i
 93.55  22.3324  29.4261 i
 93.6  37.5361  29.4417 i
 93.65  28.042  29.4573 i
 93.7  27.1656  29.473 i
 93.75  23.8494  29.4888 i
 93.8  23.5172  29.5047 i
 93.85  25.2002  29.5207 i
 93.9  24.6154  29.5368 i
 93.95  27.3342  29.5529 i
 94  35.3063  29.5692 i
 94.05  32.7997  29.5855 i
 94.1  21.7881  29.6018 i
 94.15  26.5504  29.6183 i
 94.2  28.7991  29.6348 i
 94.25  24.0113  29.6514 i
 94.3  37.2662  29.6681 i
 94.35  31.5799  29.6849 i
 94.4  27.6821  29.7017 i
 94.45  21.7926  29.7186 i
 94.5  30.5608  29.7355 i
 94.55  32.0852  29.7525 i
 94.6  21.8502  29.7696 i
 94.65  31.9765  29.7867 i
 94.7  35.1805  29.804 i
 94.75  22.0039  29.8212 i
 94.8  22.5896  29.8385 i
 94.85  32.2109  29.8559 i
 94.9  32.9523  29.8734 i
 94.95  24.0688  29.8909 i
 95  29.4986  29.9084 i
 95.05  27.372  29.926 i
 95.1  22.7872  29.9437 i
 95.15  23.1652  29.9614 i
 95.2  43.0498  29.9792 i
 95.25  21.3234  29.997 i
 95.3  24.5697  30.0148 i
 95.35  23.5097  30.0327 i
 95.4  21.6654  30.0507 i
 95.45  30.1959  30.0687 i
 95.5  34.0981  30.0867 i
 95.55  24.1851  30.1048 i
 95.6  31.7221  30.1229 i
 95.65  30.4729  30.141 i
 95.7  35.2115  30.1592 i
 95.75  33.0907  30.1774 i
 95.8  21.7955  30.1957 i
 95.85  41.1054  30.214 i
 95.9  21.9973  30.2323 i
 95.95  31.3035  30.2507 i
 96  34.8124  30.269 i
 96.05  24.8114  30.2874 i
 96.1  28.5315  30.3059 i
 96.15  33.168  30.3243 i
 96.2  31.7149  30.3428 i
 96.25  32.7377  30.3614 i
 96.3  26.67  30.3799 i
 96.35  21.3877  30.3984 i
 96.4  24.7807  30.417 i
 96.45  30.843  30.4356 i
 96.5  25.9687  30.4542 i
 96.55  28.1905  30.4728 i
 96.6  35.9452  30.4915 i
 96.65  32.4477  30.5101 i
 96.7  22.4308  30.5288 i
 96.75  28.9586  30.5475 i
 96.8  26.0486  30.5662 i
 96.85  30.8504  30.5849 i
 96.9  31.3176  30.6036 i
 96.95  28.8074  30.6223 i
 97  16.8985  30.641 i
 97.05  35.8772  30.6597 i
 97.1  43.351  30.6784 i
 97.15  33.7756  30.6972 i
 97.2  30.2608  30.7159 i
 97.25  27.9834  30.7346 i
 97.3  16.3904  30.7533 i
 97.35  21.712  30.772 i
 97.4  23.141  30.7907 i
 97.45  36.859  30.8094 i
 97.5  35.7874  30.8281 i
 97.55  39.333  30.8468 i
 97.6  28.9787  30.8655 i
 97.65  21.9945  30.8842 i
 97.7  29.3357  30.9028 i
 97.75  20.3101  30.9214 i
 97.8  22.0185  30.9401 i
 97.85  29.0023  30.9587 i
 97.9  22.1882  30.9772 i
 97.95  28.7961  30.9958 i
 98  20.4339  31.0144 i
 98.05  26.0574  31.0329 i
 98.1  26.74  31.0514 i
 98.15  32.1394  31.0699 i
 98.2  31.2603  31.0883 i
 98.25  29.3094  31.1068 i
 98.3  49.7937  31.1251 i
 98.35  31.2042  31.1435 i
 98.4  43.5115  31.1619 i
 98.45  36.8971  31.1802 i
 98.5  50.6461  31.1984 i
 98.55  67.0707  31.2167 i
 98.6  119.491  31.2349 i
 98.65  158.017  31.2531 i
 98.7  157.778  31.2712 i
 98.75  148.649  31.2893 i
 98.8  115.012  31.3073 i
 98.85  51.2065  31.3254 i
 98.9  50.5172  31.3433 i
 98.95  33.8987  31.3613 i
 99  35.8852  31.3791 i
 99.05  26.1166  31.397 i
 99.1  29.9751  31.4148 i
 99.15  20.7188  31.4325 i
 99.2  28.6663  31.4502 i
 99.25  26.4733  31.4678 i
 99.3  33.8361  31.4854 i
 99.35  25.5479  31.5029 i
 99.4  28.6588  31.5204 i
 99.45  24.1647  31.5378 i
 99.5  32.8057  31.5552 i
 99.55  34.7591  31.5725 i
 99.6  30.1322  31.5897 i
 99.65  28.2662  31.6069 i
 99.7  29.6539  31.624 i
 99.75  21.3768  31.6411 i
 99.8  24.8528  31.6581 i
 99.85  26.8339  31.675 i
 99.9  21.2974  31.6919 i
 99.95  27.1289  31.7086 i
 100  32.1974  31.7254 i
 100.05  36.3309  31.742 i
 100.1  27.9183  31.7586 i
 100.15  27.6962  31.7751 i
 100.2  19.1744  31.7915 i
 100.25  23.7687  31.8078 i
 100.3  27.8768  31.8241 i
 100.35  27.4357  31.8403 i
 100.4  26.9108  31.8564 i
 100.45  27.8344  31.8724 i
 100.5  34.1511  31.8884 i
 100.55  24.1962  31.9043 i
 100.6  26.0352  31.92 i
 100.65  35.4918  31.9357 i
 100.7  27.0333  31.9513 i
 100.75  23.0449  31.9668 i
 100.8  33.203  31.9823 i
 100.85  32.6481  31.9976 i
 100.9  24.9771  32.0128 i
 100.95  33.9687  32.028 i
 101  25.6901  32.043 i
 101.05  24.8406  32.058 i
 101.1  36.1035  32.0729 i
 101.15  28.3767  32.0876 i
 101.2  32.2131  32.1023 i
 101.25  29.0517  32.1168 i
 101.3  22.5542  32.1313 i
 101.35  33.511  32.1456 i
 101.4  37.1252  32.1599 i
 101.45  24.7428  32.174 i
 101.5  40.7565  32.1881 i
 101.55  18.5633  32.202 i
 101.6  25.6145  32.2158 i
 101.65  34.5435  32.2295 i
 101.7  24.2665  32.2431 i
 101.75  22.323  32.2566 i
 101.8  30.1632  32.2699 i
 101.85  23.246  32.2832 i
 101.9  29.0041  32.2963 i
 101.95  29.5667  32.3093 i
 102  18.3969  32.3222 i
 102.05  26.9563  32.335 i
 102.1  26.6351  32.3476 i
 102.15  29.5009  32.3602 i
 102.2  32.9921  32.3726 i
 102.25  28.0922  32.3848 i
 102.3  23.1716  32.397 i
 102.35  26.1752  32.409 i
 102.4  31.4886  32.4209 i
 102.45  37.2619  32.4326 i
 102.5  34.3937  32.4443 i
 102.55  25.784  32.4557 i
 102.6  28.0921  32.4671 i
 102.65  32.66  32.4783 i
 102.7  28.4092  32.4894 i
 102.75  31.7847  32.5003 i
 102.8  28.9068  32.5111 i
 102.85  21.8802  32.5218 i
 102.9  23.5346  32.5323 i
 102.95  27.8277  32.5427 i
 103  22.6803  32.5529 i
 103.05  26.1223  32.563 i
 103.1  25.6616  32.5729 i
 103.15  36.2433  32.5827 i
 103.2  34.2299  32.5924 i
 103.25  30.7326  32.6019 i
 103.3  29.5736  32.6112 i
 103.35  31.5541  32.6204 i
 103.4  29.7848  32.6294 i
 103.45  33.7732  32.6383 i
 103.5  36.1552  32.647 i
 103.55  36.0992  32.6555 i
 103.6  27.0618  32.6639 i
 103.65  24.1567  32.6722 i
 103.7  24.181  32.6802 i
 103.75  30.8501  32.6881 i
 103.8  30.3214  32.6959 i
 103.85  20.1474  32.7035 i
 103.9  25.0625  32.7109 i
 103.95  28.2095  32.7181 i
 104  25.1407  32.7252 i
 104.05  26.6662  32.7321 i
 104.1  26.0158  32.7388 i
 104.15  22.5668  32.7454 i
 104.2  23.1125  32.7517 i
 104.25  35.1644  32.7579 i
 104.3  15.3686  32.764 i
 104.35  30.806  32.7698 i
 104.4  27.9595  32.7755 i
 104.45  35.8482  32.781 i
 104.5  35.2681  32.7863 i
 104.55  27.4538  32.7914 i
 104.6  28.919  32.7963 i
 104.65  32.0123  32.8011 i
 104.7  35.8117  32.8056 i
 104.75  28.7886  32.81 i
 104.8  24.6363  32.8142 i
 104.85  39.684  32.8182 i
 104.9  36.9772  32.822 i
 104.95  29.56  32.8256 i
 105  33.6668  32.829 i
 105.05  28.8701  32.8322 i
 105.1  31.03  32.8352 i
 105.15  32.813  32.8381 i
 105.2  26.8495  32.8407 i
 105.25  26.9485  32.8431 i
 105.3  33.111  32.8453 i
 105.35  37.9994  32.8473 i
 105.4  25.8836  32.8491 i
 105.45  37.5605  32.8507 i
 105.5  32.4144  32.8521 i
 105.55  19.2688  32.8533 i
 105.6  33.1094  32.8543 i
 105.65  30.0458  32.8551 i
 105.7  24.4402  32.8556 i
 105.75  31.5435  32.856 i
 105.8  28.0423  32.8561 i
 105.85  25.7439  32.856 i
 105.9  28.0692  32.8557 i
 105.95  27.3224  32.8552 i
 106  27.2673  32.8544 i
 106.05  31.4749  32.8535 i
 106.1  22.4761  32.8523 i
 106.15  22.623  32.8509 i
 106.2  30.8322  32.8492 i
 106.25  18.153  32.8474 i
 106.3  28.9253  32.8453 i
 106.35  32.8292  32.843 i
 106.4  23.6627  32.8404 i
 106.45  29.846  32.8376 i
 106.5  35.6564  32.8346 i
 106.55  33.816  32.8314 i
 106.6  27.3073  32.8279 i
 106.65  23.4263  32.8242 i
 106.7  29.5872  32.8202 i
 106.75  30.5373  32.816 i
 106.8  15.6452  32.8116 i
 106.85  23.4249  32.8069 i
 106.9  24.8303  32.802 i
 106.95  30.4407  32.7969 i
 107  35.1806  32.7916 i
 107.05  27.1029  32.7861 i
 107.1  30.8057  32.7805 i
 107.15  24.9061  32.7748 i
 107.2  24.4304  32.7689 i
 107.25  25.8438  32.7628 i
 107.3  32.984  32.7566 i
 107.35  17.1043  32.7502 i
 107.4  27.4478  32.7437 i
 107.45  28.7048  32.737 i
 107.5  18.6144  32.7302 i
 107.55  28.7158  32.7232 i
 107.6  36.7863  32.7161 i
 107.65  28.1537  32.7089 i
 107.7  34.6532  32.7014 i
 107.75  28.8334  32.6939 i
 107.8  19.4314  32.6862 i
 107.85  26.8625  32.6783 i
 107.9  34.8003  32.6703 i
 107.95  33.8762  32.6622 i
 108  30.7618  32.6539 i
 108.05  20.1142  32.6455 i
 108.1  25.6871  32.6369 i
 108.15  21.7387  32.6282 i
 108.2  24.4999  32.6193 i
 108.25  22.8829  32.6103 i
 108.3  31.9693  32.6011 i
 108.35  30.3254  32.5918 i
 108.4  38.0771  32.5824 i
 108.45  26.7024  32.5728 i
 108.5  32.683  32.5631 i
 108.55  27.4351  32.5533 i
 108.6  28.7355  32.5433 i
 108.65  22.7972  32.5331 i
 108.7  25.8262  32.5229 i
 108.75  16.1715  32.5125 i
 108.8  26.0915  32.5019 i
 108.85  28.6445  32.4912 i
 108.9  28.6246  32.4804 i
 108.95  30.6209  32.4694 i
 109  23.3787  32.4584 i
 109.05  26.2511  32.4471 i
 109.1  28.9388  32.4358 i
 109.15  34.0374  32.4243 i
 109.2  22.0808  32.4126 i
 109.25  38.6514  32.4009 i
 109.3  25.7183  32.389 i
 109.35  24.9364  32.3769 i
 109.4  37.3909  32.3648 i
 109.45  32.9681  32.3525 i
 109.5  27.0258  32.3401 i
 109.55  30.9007  32.3275 i
 109.6  27.3152  32.3148 i
 109.65  20.8261  32.302 i
 109.7  26.8787  32.289 i
 109.75  32.9971  32.276 i
 109.8  28.2267  32.2628 i
 109.85  28.4025  32.2494 i
 109.9  33.5743  32.236 i
 109.95  22.1555  32.2224 i
 110  26.014  32.2087 i
 110.05  24.1157  32.1948 i
 110.1  25.2783  32.1809 i
 110.15  35.9846  32.1668 i
 110.2  29.0691  32.1526 i
 110.25  30.7149  32.1382 i
 110.3  29.6092  32.1238 i
 110.35  36.758  32.1092 i
 110.4  37.9132  32.0945 i
 110.45  27.2367  32.0796 i
 110.5  38.7749  32.0647 i
 110.55  32.8448  32.0496 i
 110.6  28.2686  32.0344 i
 110.65  31.9426  32.0191 i
 110.7  37.7777  32.0037 i
 110.75  36.4271  31.9881 i
 110.8  25.9544  31.9724 i
 110.85  37.5181  31.9566 i
 110.9  31.3692  31.9407 i
 110.95  22.4559  31.9247 i
 111  22.9232  31.9086 i
 111.05  26.8215  31.8923 i
 111.1  28.9773  31.8759 i
 111.15  22.951  31.8594 i
 111.2  34.7049  31.8428 i
 111.25  27.8861  31.8261 i
 111.3  39.8203  31.8092 i
 111.35  32.889  31.7923 i
 111.4  27.5886  31.7752 i
 111.45  28.6182  31.758 i
 111.5  27.8497  31.7407 i
 111.55  31.6931  31.7233 i
 111.6  31.5521  31.7058 i
 111.65  25.2683  31.6882 i
 111.7  26.9301  31.6704 i
 111.75  41.587  31.6526 i
 111.8  35.4434  31.6346 i
 111.85  30.1967  31.6165 i
 111.9  36.9811  31.5984 i
 111.95  30.0204  31.5801 i
 112  25.6799  31.5617 i
 112.05  37.8199  31.5432 i
 112.1  28.197  31.5246 i
 112.15  33.6295  31.5058 i
 112.2  28.3081  31.487 i
 112.25  32.9798  31.4681 i
 112.3  40.4289  31.449 i
 112.35  26.3053  31.4299 i
 112.4  25.7104  31.4107 i
 112.45  21.6348  31.3913 i
 112.5  25.473  31.3719 i
 112.55  21.7461  31.3523 i
 112.6  22.9951  31.3326 i
 112.65  27.1873  31.3129 i
 112.7  25.6782  31.293 i
 112.75  34.0315  31.2731 i
 112.8  26.1966  31.253 i
 112.85  28.693  31.2328 i
 112.9  24.0664  31.2126 i
 112.95  30.0231  31.1922 i
 113  24.6863  31.1717 i
 113.05  19.1168  31.1512 i
 113.1  26.7025  31.1305 i
 113.15  31.0742  31.1098 i
 113.2  28.7896  31.0889 i
 113.25  30.6546  31.0679 i
 113.3  20.0511  31.0469 i
 113.35  16.531  31.0258 i
 113.4  24.6309  31.0045 i
 113.45  27.0537  30.9832 i
 113.5  35.8163  30.9618 i
 113.55  24.6748  30.9402 i
 113.6  24.6435  30.9186 i
 113.65  34.0679  30.8969 i
 113.7  29.0218  30.8751 i
 113.75  28.8212  30.8532 i
 113.8  32.2813  30.8312 i
 113.85  27.8946  30.8092 i
 113.9  23.8047  30.787 i
 113.95  21.9496  30.7648 i
 114  21.6186  30.7424 i
 114.05  30.489  30.72 i
 114.1  24.2474  30.6975 i
 114.15  28.7949  30.6748 i
 114.2  28.2023  30.6521 i
 114.25  27.2471  30.6294 i
 114.3  28.9241  30.6065 i
 114.35  30.4661  30.5835 i
 114.4  28.0855  30.5605 i
 114.45  22.8286  30.5373 i
 114.5  34.0496  30.5141 i
 114.55  30.8982  30.4908 i
 114.6  29.9646  30.4674 i
 114.65  24.3744  30.444 i
 114.7  23.4444  30.4204 i
 114.75  27.5552  30.3968 i
 114.8  24.1802  30.3731 i
 114.85  20.3839  30.3493 i
 114.9  37.741  30.3254 i
 114.95  30.4569  30.3014 i
 115  33.0686  30.2774 i
 115.05  26.9017  30.2533 i
 115.1  26.1061  30.2291 i
 115.15  30.5969  30.2048 i
 115.2  32.0667  30.1804 i
 115.25  35.288  30.156 i
 115.3  34.7726  30.1315 i
 115.35  37.1889  30.1069 i
 115.4  32.1423  30.0822 i
 115.45  28.0505  30.0575 i
 115.5  24.4849  30.0327 i
 115.55  37.6239  30.0078 i
 115.6  34.1253  29.9828 i
 115.65  48.4538  29.9577 i
 115.7  37.4318  29.9326 i
 115.75  45.2105  29.9074 i
 115.8  67.231  29.8822 i
 115.85  59.4893  29.8568 i
 115.9  94.6601  29.8314 i
 115.95  144.584  29.8059 i
 116  141.757  29.7804 i
 116.05  128.767  29.7548 i
 116.1  94.525  29.7291 i
 116.15  63.7108  29.7033 i
 116.2  61.7448  29.6775 i
 116.25  50.3241  29.6516 i
 116.3  47.7082  29.6256 i
 116.35  34.4564  29.5996 i
 116.4  34.9052  29.5735 i
 116.45  32.8496  29.5473 i
 116.5  29.4739  29.521 i
 116.55  32.0379  29.4947 i
 116.6  22.2187  29.4684 i
 116.65  30.5096  29.4419 i
 116.7  30.7309  29.4154 i
 116.75  33.5207  29.3889 i
 116.8  24.3649  29.3622 i
 116.85  24.2318  29.3355 i
 116.9  39.3442  29.3088 i
 116.95  28.1758  29.282 i
 117  28.5652  29.2551 i
 117.05  36.484  29.2281 i
 117.1  19.1094  29.2011 i
 117.15  35.8026  29.1741 i
 117.2  27.99  29.1469 i
 117.25  36.2023  29.1198 i
 117.3  27.104  29.0925 i
 117.35  30.1577  29.0652 i
 117.4  25.2757  29.0378 i
 117.45  23.0475  29.0104 i
 117.5  23.6185  28.983 i
 117.55  34.5154  28.9554 i
 117.6  32.8332  28.9278 i
 117.65  23.2923  28.9002 i
 117.7  31.4391  28.8725 i
 117.75  23.9529  28.8447 i
 117.8  29.5111  28.8169 i
 117.85  26.1026  28.7891 i
 117.9  39.0493  28.7611 i
 117.95  39.9875  28.7332 i
 118  36.0221  28.7051 i
 118.05  32.0539  28.6771 i
 118.1  30.796  28.6489 i
 118.15  24.0617  28.6208 i
 118.2  20.586  28.5925 i
 118.25  29.7298  28.5642 i
 118.3  25.7534  28.5359 i
 118.35  26.5424  28.5075 i
 118.4  36.5004  28.4791 i
 118.45  35.2296  28.4506 i
 118.5  31.5324  28.4221 i
 118.55  28.3609  28.3935 i
 118.6  22.6857  28.3649 i
 118.65  28.2563  28.3362 i
 118.7  35.1556  28.3075 i
 118.75  36.1356  28.2788 i
 118.8  26.5602  28.25 i
 118.85  25.4171  28.2211 i
 118.9  29.2239  28.1922 i
 118.95  31.0331  28.1633 i
 119  23.3965  28.1343 i
 119.05  33.3556  28.1053 i
 119.1  37.2505  28.0762 i
 119.15  25.6728  28.0471 i
 119.2  27.7494  28.0179 i
 119.25  26.3517  27.9887 i
 119.3  33.8515  27.9595 i
 119.35  26.6498  27.9302 i
 119.4  25.7228  27.9009 i
 119.45  35.301  27.8716 i
 119.5  20.1007  27.8422 i
 119.55  19.1356  27.8127 i
 119.6  21.5383  27.7833 i
 119.65  33.3285  27.7538 i
 119.7  24.8916  27.7242 i
 119.75  26.5355  27.6946 i
 119.8  27.6098  27.665 i
 119.85  25.3246  27.6354 i
 119.9  29.4298  27.6057 i
 119.95  28.4909  27.576 i
 120  34.252  27.5462 i
 120.05  21.6152  27.5164 i
 120.1  27.3423  27.4866 i
 120.15  23.7743  27.4567 i
 120.2  22.8007  27.4268 i
 120.25  22.4491  27.3969 i
 120.3  38.5682  27.367 i
 120.35  31.9475  27.337 i
 120.4  23.3616  27.307 i
 120.45  24.535  27.2769 i
 120.5  28.4326  27.2468 i
 120.55  25.9654  27.2167 i
 120.6  25.5815  27.1866 i
 120.65  30.4376  27.1565 i
 120.7  22.3455  27.1263 i
 120.75  23.2065  27.096 i
 120.8  30.5278  27.0658 i
 120.85  30.2621  27.0355 i
 120.9  29.5875  27.0052 i
 120.95  23.0347  26.9749 i
 121  19.9917  26.9446 i
 121.05  35.2773  26.9142 i
 121.1  31.213  26.8838 i
 121.15  25.6331  26.8534 i
 121.2  26.1851  26.8229 i
 121.25  22.0999  26.7925 i
 121.3  25.6882  26.762 i
 121.35  29.8206  26.7315 i
 121.4  26.5452  26.701 i
 121.45  22.7427  26.6704 i
 121.5  27.5782  26.6398 i
 121.55  29.7882  26.6092 i
 121.6  35.7543  26.5786 i
 121.65  24.4633  26.548 i
 121.7  22.6855  26.5173 i
 121.75  36.9384  26.4867 i
 121.8  25.4362  26.456 i
 121.85  24.993  26.4253 i
 121.9  34.472  26.3946 i
 121.95  25.6806  26.3638 i
 122  33.1486  26.3331 i
 122.05  34.27  26.3023 i
 122.1  23.219  26.2715 i
 122.15  20.2006  26.2407 i
 122.2  21.9767  26.2099 i
 122.25  31.682  26.1791 i
 122.3  28.1745  26.1483 i
 122.35  29.8133  26.1174 i
 122.4  33.7465  26.0866 i
 122.45  32.9009  26.0557 i
 122.5  37.4687  26.0248 i
 122.55  33.0099  25.9939 i
 122.6  23.7709  25.963 i
 122.65  31.9646  25.9321 i
 122.7  29.077  25.9012 i
 122.75  25.7536  25.8702 i
 122.8  27.3734  25.8393 i
 122.85  37.2796  25.8083 i
 122.9  34.2224  25.7774 i
 122.95  33.1337  25.7464 i
 123  26.7209  25.7154 i
 123.05  21.4402  25.6845 i
 123.1  32.7513  25.6535 i
 123.15  20.2281  25.6225 i
 123.2  17.2392  25.5915 i
 123.25  30.5351  25.5605 i
 123.3  29.8534  25.5295 i
 123.35  37.4153  25.4985 i
 123.4  21.9362  25.4675 i
 123.45  24.1485  25.4365 i
 123.5  31.1761  25.4055 i
 123.55  29.8565  25.3744 i
 123.6  30.445  25.3434 i
 123.65  27.7418  25.3124 i
 123.7  23.0619  25.2814 i
 123.75  25.2135  25.2504 i
 123.8  36.3756  25.2194 i
 123.85  28.0079  25.1883 i
 123.9  24.6892  25.1573 i
 123.95  25.6204  25.1263 i
 124  18.4973  25.0953 i
 124.05  28.5239  25.0643 i
 124.1  30.4898  25.0333 i
 124.15  29.2637  25.0023 i
 124.2  22.1927  24.9713 i
 124.25  30.6161  24.9403 i
 124.3  22.0409  24.9093 i
 124.35  32.2578  24.8784 i
 124.4  37.3233  24.8474 i
 124.45  25.3629  24.8164 i
 124.5  24.011  24.7855 i
 124.55  37.7854  24.7545 i
 124.6  27.9334  24.7236 i
 124.65  22.6596  24.6927 i
 124.7  25.2765  24.6617 i
 124.75  30.3241  24.6308 i
 124.8  32.4618  24.5999 i
 124.85  29.3643  24.569 i
 124.9  18.0964  24.5381 i
 124.95  22.7758  24.5073 i
 125  28.6632  24.4764 i
 125.05  30.7991  24.4456 i
 125.1  32.1372  24.4147 i
 125.15  26.6041  24.3839 i
 125.2  26.4245  24.3531 i
 125.25  33.4338  24.3223 i
 125.3  26.9248  24.2915 i
 125.35  22.831  24.2608 i
 125.4  23.792  24.23 i
 125.45  24.1064  24.1993 i
 125.5  29.3169  24.1686 i
 125.55  39.0561  24.1379 i
 125.6  30.4863  24.1072 i
 125.65  30.3987  24.0765 i
 125.7  26.8117  24.0459 i
 125.75  29.652  24.0153 i
 125.8  33.0547  23.9846 i
 125.85  33.8441  23.9541 i
 125.9  28.9652  23.9235 i
 125.95  21.8807  23.8929 i
 126  30.3326  23.8624 i
 126.05  27.9172  23.8319 i
 126.1  24.7208  23.8014 i
 126.15  21.8144  23.771 i
 126.2  34.93  23.7405 i
 126.25  34.6121  23.7101 i
 126.3  25.9964  23.6797 i
 126.35  28.7269  23.6494 i
 126.4  18.5258  23.619 i
 126.45  30.786  23.5887 i
 126.5  27.9864  23.5584 i
 126.55  25.1785  23.5281 i
 126.6  39.0431  23.4979 i
 126.65  19.2242  23.4677 i
 126.7  33.5397  23.4375 i
 126.75  35.8698  23.4074 i
 126.8  24.423  23.3772 i
 126.85  33.8856  23.3471 i
 126.9  29.9352  23.3171 i
 126.95  29.3516  23.287 i
 127  15.3591  23.257 i
 127.05  25.2289  23.227 i
 127.1  27.5839  23.1971 i
 127.15  20.2396  23.1672 i
 127.2  27.0598  23.1373 i
 127.25  34.7488  23.1074 i
 127.3  33.1073  23.0776 i
 127.35  28.3193  23.0478 i
 127.4  35.2267  23.0181 i
 127.45  26.4503  22.9884 i
 127.5  31.7992  22.9587 i
 127.55  27.5948  22.9291 i
 127.6  37.0528  22.8994 i
 127.65  24.5105  22.8699 i
 127.7  25.3667  22.8403 i
 127.75  29.7392  22.8108 i
 127.8  27.1855  22.7814 i
 127.85  24.5587  22.7519 i
 127.9  32.6241  22.7226 i
 127.95  26.4434  22.6932 i
 128  32.6896  22.6639 i
 128.05  28.2431  22.6346 i
 128.1  21.1026  22.6054 i
 128.15  26.2707  22.5762 i
 128.2  25.3603  22.5471 i
 128.25  27.3882  22.518 i
 128.3  29.5746  22.4889 i
 128.35  28.7379  22.4599 i
 128.4  31.2443  22.4309 i
 128.45  37.1392  22.402 i
 128.5  21.4022  22.3731 i
 128.55  38.5442  22.3443 i
 128.6  25.5649  22.3155 i
 128.65  24.5039  22.2867 i
 128.7  34.686  22.258 i
 128.75  29.8721  22.2294 i
 128.8  30.8749  22.2008 i
 128.85  32.9807  22.1722 i
 128.9  34.5546  22.1437 i
 128.95  21.9973  22.1152 i
 129  29.271  22.0868 i
 129.05  31.7743  22.0584 i
 129.1  28.5465  22.0301 i
 129.15  28.9152  22.0018 i
 129.2  25.3186  21.9736 i
 129.25  23.372  21.9454 i
 129.3  36.7155  21.9173 i
 129.35  29.2359  21.8892 i
 129.4  36.5041  21.8612 i
 129.45  30.1257  21.8333 i
 129.5  21.2102  21.8054 i
 129.55  18.5405  21.7775 i
 129.6  27.4479  21.7497 i
 129.65  31.6242  21.722 i
 129.7  31.0695  21.6943 i
 129.75  18.1259  21.6666 i
 129.8  30.2851  21.6391 i
 129.85  20.4947  21.6115 i
 129.9  26.5424  21.5841 i
 129.95  32.4653  21.5567 i
 130  33.2148  21.5293 i

