40 55.7227 34.2716 21.4511
40.05 28.6826 34.2633 -5.5807
40.1 26.5738 34.2547 -7.6809
40.15 38.7486 34.2452 4.5034
40.2 33.6936 34.2357 -0.5421
40.25 31.863 34.2247 -2.3617
40.3 31.8983 34.2136 -2.3153
40.35 41.7402 34.2024 7.5378
40.4 33.4792 34.1911 -0.7119
40.45 22.2887 34.1812 -11.8925
40.5 35.7699 34.1714 1.5985
40.55 42.149 34.1628 7.9862
40.6 44.89 34.1542 10.7358
40.65 36.4175 34.1453 2.2722
40.7 34.5694 34.1363 0.4331
40.75 29.5307 34.1256 -4.5949
40.8 33.2739 34.115 -0.8411
40.85 26.0808 34.1033 -8.0225
40.9 39.9849 34.0917 5.8932
40.95 32.3165 34.0809 -1.7644
41 33.8258 34.0702 -0.2444
41.05 39.5047 34.0613 5.4434
41.1 31.253 34.0523 -2.7993
41.15 48.0634 34.0439 14.0195
41.2 40.8305 34.0354 6.7951
41.25 39.2888 34.0256 5.2632
41.3 25.9343 34.0157 -8.0814
41.35 39.6463 34.0041 5.6422
41.4 32.8849 33.9926 -1.1077
41.45 35.4859 33.9811 1.5048
41.5 48.3811 33.9697 14.4114
41.55 31.098 33.9602 -2.8622
41.6 32.4965 33.9507 -1.4542
41.65 41.6645 33.9427 7.7218
41.7 36.258 33.9346 2.3234
41.75 34.6665 33.926 0.7405
41.8 43.3601 33.9173 9.4428
41.85 30.7606 33.9066 -3.146
41.9 36.3024 33.896 2.4064
41.95 36.746 33.8845 2.8615
42 40.9979 33.8729 7.125
42.05 36.8856 33.863 3.0226
42.1 31.0777 33.853 -2.7753
42.15 35.2813 33.8455 1.4358
42.2 39.0704 33.838 5.2324
42.25 35.9462 33.8312 2.115
42.3 33.3761 33.8244 -0.4483
42.35 34.917 33.816 1.101
42.4 33.0687 33.8076 -0.7389
42.45 34.6104 33.7976 0.8128
42.5 43.2619 33.7877 9.4742
42.55 33.5463 33.7785 -0.2322
42.6 27.6201 33.7694 -6.1493
42.65 41.3789 33.7635 7.6154
42.7 26.4052 33.7575 -7.3523
42.75 28.0191 33.7544 -5.7353
42.8 36.009 33.7512 2.2578
42.85 40.3983 33.7483 6.65
42.9 31.5457 33.7455 -2.1998
42.95 36.8714 33.7416 3.1298
43 41.3278 33.7377 7.5901
43.05 36.7346 33.7347 2.9999
43.1 31.1982 33.7317 -2.5335
43.15 31.278 33.7336 -2.4556
43.2 43.2909 33.7356 9.5553
43.25 32.2588 33.7459 -1.4871
43.3 37.004 33.7561 3.2479
43.35 28.2428 33.7946 -5.5518
43.4 33.5423 33.833 -0.2907
43.45 29.3802 34.0873 -4.7071
43.5 32.86 34.3415 -1.4815
43.55 46.7686 34.4267 12.3419
43.6 45.0218 34.5118 10.51
43.65 36.7472 34.6281 2.1191
43.7 33.4313 34.7444 -1.3131
43.75 38.2312 34.9186 3.3126
43.8 35.6677 35.0928 0.5749
43.85 33.6251 35.3626 -1.7375
43.9 35.1907 35.6324 -0.4417
43.95 44.4648 36.0707 8.3941
44 41.6606 36.5091 5.1515
44.05 42.297 37.2852 5.0118
44.1 40.3743 38.0613 2.313
44.15 29.365 39.6308 -10.2658
44.2 44.2563 41.2004 3.0559
44.25 54.9992 44.16 10.8392
44.3 57.8887 49.3908 8.4979
44.35 74.8963 61.627 13.2693
44.4 72.7155 102.706 -29.9905
44.45 168.858 253.411 -84.553
44.5 599.097 681.74 -82.643
44.55 1606.97 1459.72 147.25
44.6 2109.79 2170.32 -60.53
44.65 1372.2 1691.49 -319.29
44.7 469.641 335.75 133.891
44.75 151.686 94.3915 57.2945
44.8 80.5065 59.8391 20.6674
44.85 60.9408 48.2882 12.6526
44.9 48.1521 42.4211 5.731
44.95 51.4195 39.3986 12.0209
45 36.7361 37.5936 -0.8575
45.05 46.4061 36.6299 9.7762
45.1 42.3267 35.6663 6.6604
45.15 31.9864 35.196 -3.2096
45.2 34.2643 34.7257 -0.4614
45.25 31.6311 34.4613 -2.8302
45.3 40.1556 34.1969 5.9587
45.35 26.0131 34.0334 -8.0203
45.4 37.9658 33.8698 4.096
45.45 34.7544 33.7629 0.9915
45.5 32.3813 33.6561 -1.2748
45.55 31.736 33.5828 -1.8468
45.6 33.5071 33.5095 -0.0024
45.65 31.6429 33.4542 -1.8113
45.7 32.6337 33.399 -0.7653
45.75 28.9816 33.3472 -4.3656
45.8 31.7486 33.2954 -1.5468
45.85 34.3914 33.2044 1.187
45.9 33.6089 33.1134 0.4955
45.95 39.6561 33.0808 6.5753
46 42.4936 33.0483 9.4453
46.05 37.2302 33.0228 4.2074
46.1 35.7755 32.9974 2.7781
46.15 39.7924 32.9762 6.8162
46.2 26.9957 32.9549 -5.9592
46.25 25.9075 32.9345 -7.027
46.3 20.8216 32.914 -12.0924
46.35 43.3326 32.8929 10.4397
46.4 33.3707 32.8717 0.499
46.45 31.6212 32.8512 -1.23
46.5 35.7525 32.8308 2.9217
46.55 35.6168 32.8134 2.8034
46.6 36.0946 32.7959 3.2987
46.65 34.0144 32.7816 1.2328
46.7 37.6392 32.7673 4.8719
46.75 44.9356 32.7537 12.1819
46.8 29.6987 32.74 -3.0413
46.85 35.5425 32.7244 2.8181
46.9 21.8129 32.7088 -10.8959
46.95 27.0798 32.6912 -5.6114
47 25.8457 32.6735 -6.8278
47.05 33.4484 32.6561 0.7923
47.1 34.717 32.6386 2.0784
47.15 35.0782 32.6236 2.4546
47.2 32.2896 32.6085 -0.3189
47.25 31.3516 32.5954 -1.2438
47.3 40.0397 32.5824 7.4573
47.35 39.73 32.5693 7.1607
47.4 37.5825 32.5561 5.0264
47.45 37.7096 32.5415 5.1681
47.5 38.0474 32.5268 5.5206
47.55 23.2918 32.5113 -9.2195
47.6 27.9807 32.4959 -4.5152
47.65 24.2463 32.4813 -8.235
47.7 32.6797 32.4668 0.2129
47.75 41.193 32.4539 8.7391
47.8 29.2822 32.4409 -3.1587
47.85 42.3623 32.4282 9.9341
47.9 35.9084 32.4156 3.4928
47.95 31.7228 32.4015 -0.6787
48 37.664 32.3874 5.2766
48.05 32.7183 32.3719 0.3464
48.1 27.7056 32.3564 -4.6508
48.15 24.5594 32.3412 -7.7818
48.2 27.3137 32.3261 -5.0124
48.25 32.8702 32.3128 0.5574
48.3 42.7607 32.2996 10.4611
48.35 19.8353 32.2878 -12.4525
48.4 28.5852 32.2761 -3.6909
48.45 21.6735 32.2638 -10.5903
48.5 32.5528 32.2515 0.3013
48.55 32.2905 32.2373 0.0532
48.6 38.8298 32.223 6.6068
48.65 35.9491 32.2075 3.7416
48.7 29.2283 32.1919 -2.9636
48.75 35.1259 32.177 2.9489
48.8 32.5536 32.1622 0.3914
48.85 32.4112 32.1492 0.262
48.9 27.5504 32.1363 -4.5859
48.95 29.4193 32.1245 -2.7052
49 22.2384 32.1127 -9.8743
49.05 31.5896 32.1002 -0.5106
49.1 33.8249 32.0876 1.7373
49.15 36.4132 32.0733 4.3399
49.2 30.4109 32.059 -1.6481
49.25 20.0335 32.0442 -12.0107
49.3 25.9366 32.0295 -6.0929
49.35 37.1494 32.0151 5.1343
49.4 25.1495 32.0007 -6.8512
49.45 22.8866 31.9879 -9.1013
49.5 27.5 31.9751 -4.4751
49.55 28.2271 31.9629 -3.7358
49.6 28.2282 31.9507 -3.7225
49.65 24.2782 31.9377 -7.6595
49.7 24.7827 31.9247 -7.142
49.75 30.109 31.9104 -1.8014
49.8 39.8542 31.8961 7.9581
49.85 34.5648 31.8814 2.6834
49.9 29.2377 31.8668 -2.6291
49.95 29.1087 31.8531 -2.7444
50 22.5373 31.8394 -9.3021
50.05 35.6871 31.8267 3.8604
50.1 23.426 31.8141 -8.3881
50.15 38.9089 31.8015 7.1074
50.2 48.8366 31.7889 17.0477
50.25 38.8023 31.7754 7.0269
50.3 29.7623 31.7618 -1.9995
50.35 25.1638 31.7474 -6.5836
50.4 31.7831 31.733 0.0501
50.45 28.571 31.7188 -3.1478
50.5 24.3959 31.7046 -7.3087
50.55 29.4049 31.6913 -2.2864
50.6 32.7648 31.6781 1.0867
50.65 28.239 31.6655 -3.4265
50.7 33.6081 31.653 1.9551
50.75 42.016 31.64 10.376
50.8 39.4206 31.6271 7.7935
50.85 34.5228 31.6131 2.9097
50.9 32.7798 31.5992 1.1806
50.95 26.7751 31.5848 -4.8097
51 29.9125 31.5703 -1.6578
51.05 27.0416 31.5565 -4.5149
51.1 22.2526 31.5426 -9.29
51.15 27.9885 31.5297 -3.5412
51.2 29.1475 31.5169 -2.3694
51.25 35.6823 31.5044 4.1779
51.3 26.486 31.4919 -5.0059
51.35 30.0686 31.4786 -1.41
51.4 33.1151 31.4653 1.6498
51.45 25.9984 31.451 -5.4526
51.5 26.6738 31.4367 -4.7629
51.55 27.2025 31.4223 -4.2198
51.6 20.7852 31.4079 -10.6227
51.65 30.9938 31.3944 -0.4006
51.7 35.1939 31.381 3.8129
51.75 28.9911 31.3686 -2.3775
51.8 32.2528 31.3562 0.8966
51.85 29.6636 31.3436 -1.68
51.9 29.7554 31.331 -1.5756
51.95 20.8289 31.3172 -10.4883
52 31.9077 31.3033 0.6044
52.05 26.1338 31.2887 -5.1549
52.1 38.349 31.274 7.075
52.15 31.8081 31.2599 0.5482
52.2 38.335 31.2458 7.0892
52.25 25.0255 31.2332 -6.2077
52.3 24.5313 31.2205 -6.6892
52.35 24.145 31.2083 -7.0633
52.4 34.2513 31.1961 3.0552
52.45 26.3017 31.1829 -4.8812
52.5 29.6817 31.1697 -1.488
52.55 31.92 31.1552 0.7648
52.6 35.2658 31.1407 4.1251
52.65 28.4314 31.1263 -2.6949
52.7 19.0472 31.1119 -12.0647
52.75 31.6919 31.0987 0.5932
52.8 28.1912 31.0856 -2.8944
52.85 31.0868 31.0733 0.0135
52.9 33.6036 31.0609 2.5427
52.95 35.9052 31.0481 4.8571
53 33.6891 31.0353 2.6538
53.05 25.9197 31.0214 -5.1017
53.1 32.9452 31.0076 1.9376
53.15 34.3104 30.9934 3.317
53.2 33.2463 30.9792 2.2671
53.25 32.8923 30.9655 1.9268
53.3 33.4339 30.9519 2.482
53.35 27.4175 30.9388 -3.5213
53.4 37.8184 30.9258 6.8926
53.45 33.3714 30.9131 2.4583
53.5 33.4621 30.9004 2.5617
53.55 26.1158 30.8875 -4.7717
53.6 29.0745 30.8746 -1.8001
53.65 32.6748 30.861 1.8138
53.7 32.8235 30.8475 1.976
53.75 24.8576 30.8333 -5.9757
53.8 28.5277 30.8192 -2.2915
53.85 25.8652 30.8053 -4.9401
53.9 39.6133 30.7915 8.8218
53.95 41.9358 30.7788 11.157
54 35.7307 30.766 4.9647
54.05 31.3318 30.7538 0.578
54.1 32.4455 30.7416 1.7039
54.15 28.2511 30.7286 -2.4775
54.2 36.0136 30.7155 5.2981
54.25 33.1034 30.7013 2.4021
54.3 26.5916 30.6871 -4.0955
54.35 34.0396 30.6731 3.3665
54.4 29.0901 30.659 -1.5689
54.45 46.4141 30.6459 15.7682
54.5 44.7664 30.6331 14.1333
54.55 39.4566 30.6207 8.8359
54.6 26.9851 30.6083 -3.6232
54.65 19.8333 30.5955 -10.7622
54.7 30.0497 30.5828 -0.5331
54.75 30.5395 30.5695 -0.03
54.8 28.9863 30.5562 -1.5699
54.85 24.2535 30.5424 -6.2889
54.9 34.653 30.5287 4.1243
54.95 22.5389 30.5149 -7.976
55 33.7731 30.5011 3.272
55.05 35.7291 30.4881 5.241
55.1 38.0601 30.475 7.5851
55.15 25.1643 30.4629 -5.2986
55.2 32.3021 30.4507 1.8514
55.25 24.0106 30.4382 -6.4276
55.3 27.8346 30.4258 -2.5912
55.35 21.5658 30.4121 -8.8463
55.4 34.8816 30.3985 4.4831
55.45 17.0732 30.3845 -13.3113
55.5 32.2814 30.3706 1.9108
55.55 25.7813 30.3574 -4.5761
55.6 26.7114 30.3442 -3.6328
55.65 35.7612 30.3317 5.4295
55.7 28.0057 30.3192 -2.3135
55.75 25.4608 30.3068 -4.846
55.8 39.8375 30.2945 9.543
55.85 42.7593 30.2818 12.4775
55.9 34.2405 30.2691 3.9714
55.95 31.0758 30.2557 0.8201
56 26.4171 30.2423 -3.8252
56.05 32.249 30.2285 2.0205
56.1 29.1533 30.2147 -1.0614
56.15 26.0325 30.2016 -4.1691
56.2 32.7729 30.1885 2.5844
56.25 27.0118 30.1765 -3.1647
56.3 43.3698 30.1644 13.2054
56.35 32.0899 30.1522 1.9377
56.4 30.4914 30.1401 0.3513
56.45 37.6544 30.1271 7.5273
56.5 37.1683 30.1141 7.0542
56.55 33.8272 30.1007 3.7265
56.6 45.7764 30.0873 15.6891
56.65 38.7923 30.0739 8.7184
56.7 30.6653 30.0605 0.6048
56.75 32.7747 30.0478 2.7269
56.8 26.6359 30.035 -3.3991
56.85 29.6076 30.023 -0.4154
56.9 23.3628 30.0111 -6.6483
56.95 28.2034 29.9991 -1.7957
57 26.887 29.987 -3.1
57.05 39.4313 29.974 9.4573
57.1 23.9638 29.961 -5.9972
57.15 42.5338 29.9479 12.5859
57.2 39.254 29.9342 9.3198
57.25 35.5393 29.9211 5.6182
57.3 28.6665 29.9081 -1.2416
57.35 28.4662 29.8957 -1.4295
57.4 31.2276 29.8834 1.3442
57.45 35.3085 29.8716 5.4369
57.5 28.1452 29.8597 -1.7145
57.55 28.6635 29.8477 -1.1842
57.6 29.5091 29.8357 -0.3266
57.65 24.4024 29.8228 -5.4204
57.7 35.8586 29.8098 6.0488
57.75 33.987 29.7965 4.1905
57.8 24.9675 29.7832 -4.8157
57.85 35.1365 29.7705 5.366
57.9 24.4877 29.7578 -5.2701
57.95 31.2504 29.7458 1.5046
58 32.813 29.7338 3.0792
58.05 25.7129 29.7221 -4.0092
58.1 32.5146 29.7105 2.8041
58.15 33.0604 29.6985 3.3619
58.2 46.6511 29.6865 16.9646
58.25 21.2438 29.6736 -8.4298
58.3 28.1842 29.6607 -1.4765
58.35 32.2866 29.6476 2.639
58.4 27.24 29.6346 -2.3946
58.45 31.2712 29.6222 1.649
58.5 29.6491 29.6098 0.0393
58.55 25.1999 29.5981 -4.3982
58.6 34.3002 29.5864 4.7138
58.65 27.2395 29.575 -2.3355
58.7 29.7736 29.5635 0.2101
58.75 26.6545 29.5515 -2.897
58.8 26.9603 29.5395 -2.5792
58.85 22.5924 29.5267 -6.9343
58.9 28.0361 29.514 -1.4779
58.95 23.9961 29.5012 -5.5051
59 36.9282 29.4884 7.4398
59.05 24.7928 29.4764 -4.6836
59.1 28.8686 29.4643 -0.5957
59.15 26.9146 29.453 -2.5384
59.2 36.8952 29.4416 7.4536
59.25 25.891 29.4303 -3.5393
59.3 23.8485 29.4191 -5.5706
59.35 27.2015 29.4071 -2.2056
59.4 30.119 29.3952 0.7238
59.45 21.4791 29.3826 -7.9035
59.5 23.0027 29.37 -6.3673
59.55 26.1308 29.3575 -3.2267
59.6 26.3654 29.345 -2.9796
59.65 28.4427 29.3333 -0.8906
59.7 35.6489 29.3216 6.3273
59.75 30.1377 29.3106 0.8271
59.8 30.9341 29.2996 1.6345
59.85 43.281 29.2884 13.9926
59.9 23.3335 29.2773 -5.9438
59.95 31.651 29.2639 2.3871
60 36.6642 29.2504 7.4138
60.05 28.6641 29.2387 -0.5746
60.1 39.3226 29.227 10.0956
60.15 25.4082 29.2151 -3.8069
60.2 22.0362 29.2031 -7.1669
60.25 27.6109 29.1913 -1.5804
60.3 35.273 29.1794 6.0936
60.35 38.2964 29.1681 9.1283
60.4 19.7908 29.1567 -9.3659
60.45 31.7876 29.1456 2.642
60.5 31.2211 29.1346 2.0865
60.55 27.3334 29.1235 -1.7901
60.6 34.9323 29.1124 5.8199
60.65 20.4746 29.1009 -8.6263
60.7 28.6413 29.0894 -0.4481
60.75 19.8343 29.0776 -9.2433
60.8 29.3831 29.0659 0.3172
60.85 36.5121 29.0544 7.4577
60.9 31.7995 29.0429 2.7566
60.95 18.3093 29.0319 -10.7226
61 21.6002 29.0209 -7.4207
61.05 23.7 29.0102 -5.3102
61.1 25.9622 28.9995 -3.0373
61.15 22.3677 28.9887 -6.621
61.2 24.7704 28.9779 -4.2075
61.25 31.8411 28.9666 2.8745
61.3 30.1749 28.9554 1.2195
61.35 27.2445 28.944 -1.6995
61.4 28.2259 28.9325 -0.7066
61.45 20.0569 28.9213 -8.8644
61.5 25.9097 28.9102 -3.0005
61.55 38.3898 28.8996 9.4902
61.6 30.5221 28.889 1.6331
61.65 29.6792 28.8788 0.8004
61.7 25.5221 28.8685 -3.3464
61.75 35.8097 28.8581 6.9516
61.8 32.341 28.8476 3.4934
61.85 24.636 28.8368 -4.2008
61.9 32.1178 28.8259 3.2919
61.95 21.3482 28.8148 -7.4666
62 24.798 28.8037 -4.0057
62.05 28.6977 28.793 -0.0953
62.1 18.8648 28.7823 -9.9175
62.15 25.9337 28.7722 -2.8385
62.2 26.7748 28.7622 -1.9874
62.25 29.5327 28.7525 0.7802
62.3 35.5458 28.7428 6.803
62.35 27.1094 28.733 -1.6236
62.4 18.8688 28.7231 -9.8543
62.45 26.3534 28.7128 -2.3594
62.5 29.62 28.7025 0.9175
62.55 21.4214 28.692 -7.2706
62.6 22.1652 28.6815 -6.5163
62.65 23.9468 28.6715 -4.7247
62.7 31.0413 28.6615 2.3798
62.75 33.0903 28.6524 4.4379
62.8 25.4034 28.6432 -3.2398
62.85 31.9102 28.6346 3.2756
62.9 29.4265 28.626 0.8005
62.95 24.1254 28.6174 -4.492
63 30.2606 28.6087 1.6519
63.05 35.4757 28.5997 6.876
63.1 35.7638 28.5908 7.173
63.15 37.7686 28.5818 9.1868
63.2 48.7181 28.573 20.1451
63.25 41.8503 28.5647 13.2856
63.3 36.4916 28.5572 7.9344
63.35 26.9767 28.551 -1.5743
63.4 39.8937 28.5447 11.349
63.45 36.168 28.5407 7.6273
63.5 25.1634 28.5367 -3.3733
63.55 33.4487 28.5406 4.9081
63.6 26.051 28.5445 -2.4935
63.65 40.0898 28.601 11.4888
63.7 31.1353 28.6576 2.4777
63.75 36.5723 28.6752 7.8971
63.8 30.7594 28.6928 2.0666
63.85 36.2971 28.7158 7.5813
63.9 30.8288 28.7388 2.09
63.95 23.6043 28.7757 -5.1714
64 22.8259 28.8126 -5.9867
64.05 27.7867 28.8724 -1.0857
64.1 25.0152 28.9322 -3.917
64.15 27.8756 29.0312 -1.1556
64.2 31.3451 29.1303 2.2148
64.25 29.4387 29.3043 0.1344
64.3 30.9132 29.4783 1.4349
64.35 33.3128 29.814 3.4988
64.4 42.1065 30.1497 11.9568
64.45 29.827 30.8971 -1.0701
64.5 31.4457 31.6445 -0.1988
64.55 28.0751 33.8507 -5.7756
64.6 30.9656 36.057 -5.0914
64.65 53.9079 42.9681 10.9398
64.7 50.2476 63.764 -13.5164
64.75 123.128 122.27 0.858
64.8 278.495 230.244 48.251
64.85 319.345 314.842 4.503
64.9 202.544 242.992 -40.448
64.95 113.148 104.879 8.269
65 67.0031 51.5492 15.4539
65.05 56.6338 38.6948 17.939
65.1 33.7429 33.7596 -0.0167
65.15 33.343 32.1293 1.2137
65.2 16.8579 30.499 -13.6411
65.25 19.9799 29.935 -9.9551
65.3 31.0864 29.371 1.7154
65.35 33.6517 29.1187 4.533
65.4 44.6363 28.8665 15.7698
65.45 27.0971 28.7336 -1.6365
65.5 37.2924 28.6007 8.6917
65.55 21.7251 28.5211 -6.796
65.6 25.9729 28.4415 -2.4686
65.65 16.9977 28.3889 -11.3912
65.7 42.6957 28.3363 14.3594
65.75 27.7727 28.2992 -0.5265
65.8 26.8149 28.2621 -1.4472
65.85 28.4693 28.2346 0.2347
65.9 24.1107 28.2071 -4.0964
65.95 27.4679 28.1836 -0.7157
66 39.3952 28.1601 11.2351
66.05 20.3093 28.117 -7.8077
66.1 31.3873 28.074 3.3133
66.15 36.0713 28.0568 8.0145
66.2 37.8309 28.0395 9.7914
66.25 26.433 28.026 -1.593
66.3 30.14 28.0125 2.1275
66.35 31.7602 28.0005 3.7597
66.4 27.4597 27.9885 -0.5288
66.45 26.5383 27.9782 -1.4399
66.5 21.8372 27.9679 -6.1307
66.55 26.0216 27.9587 -1.9371
66.6 26.3446 27.9496 -1.605
66.65 20.3692 27.9407 -7.5715
66.7 28.4431 27.9318 0.5113
66.75 29.9611 27.9225 2.0386
66.8 30.1033 27.9132 2.1901
66.85 23.5955 27.9035 -4.308
66.9 47.421 27.8939 19.5271
66.95 35.0653 27.8844 7.1809
67 48.8135 27.8753 20.9382
67.05 25.191 27.8669 -2.6759
67.1 37.9072 27.8586 10.0486
67.15 33.5524 27.851 5.7014
67.2 29.9071 27.8435 2.0636
67.25 23.044 27.8361 -4.7921
67.3 27.4532 27.8287 -0.3755
67.35 30.304 27.8207 2.4833
67.4 27.5635 27.8128 -0.2493
67.45 23.1451 27.8044 -4.6593
67.5 25.0369 27.796 -2.7591
67.55 37.4878 27.7876 9.7002
67.6 25.7444 27.7793 -2.0349
67.65 29.5774 27.7717 1.8057
67.7 21.1046 27.7641 -6.6595
67.75 35.38 27.7572 7.6228
67.8 26.4784 27.7504 -1.272
67.85 23.5573 27.7438 -4.1865
67.9 27.9191 27.7371 0.182
67.95 42.7649 27.73 15.0349
68 37.5497 27.7229 9.8268
68.05 23.222 27.7153 -4.4933
68.1 16.4469 27.7076 -11.2607
68.15 30.4743 27.7 2.7743
68.2 23.8272 27.6923 -3.8651
68.25 32.4338 27.6852 4.7486
68.3 29.7328 27.6781 2.0547
68.35 19.9612 27.6718 -7.7106
68.4 31.8609 27.6655 4.1954
68.45 26.9738 27.6594 -0.6856
68.5 40.5937 27.6533 12.9404
68.55 24.7119 27.6469 -2.935
68.6 18.7975 27.6405 -8.843
68.65 25.902 27.6336 -1.7316
68.7 22.7853 27.6266 -4.8413
68.75 29.5259 27.6195 1.9064
68.8 29.331 27.6124 1.7186
68.85 32.0853 27.6058 4.4795
68.9 31.5739 27.5992 3.9747
68.95 27.6885 27.5933 0.0952
69 33.6885 27.5874 6.1011
69.05 29.6757 27.5819 2.0938
69.1 33.9593 27.5764 6.3829
69.15 22.0269 27.5706 -5.5437
69.2 27.4108 27.5648 -0.154
69.25 42.7525 27.5585 15.194
69.3 22.7712 27.5522 -4.781
69.35 25.8423 27.5457 -1.7034
69.4 31.8148 27.5391 4.2757
69.45 23.8927 27.533 -3.6403
69.5 32.0989 27.5269 4.572
69.55 23.4647 27.5214 -4.0567
69.6 19.9443 27.5159 -7.5716
69.65 20.2126 27.5109 -7.2983
69.7 26.7538 27.5059 -0.7521
69.75 22.1394 27.5007 -5.3613
69.8 22.751 27.4956 -4.7446
69.85 32.7621 27.4899 5.2722
69.9 24.095 27.4843 -3.3893
69.95 35.4581 27.4783 7.9798
70 31.7004 27.4724 4.228
70.05 23.7646 27.4667 -3.7021
70.1 36.7332 27.461 9.2722
70.15 47.5625 27.4558 20.1067
70.2 31.0321 27.451 3.5811
70.25 32.5863 27.4464 5.1399
70.3 19.8658 27.4419 -7.5761
70.35 27.4149 27.4374 -0.0225
70.4 33.0166 27.4328 5.5838
70.45 33.4809 27.4278 6.0531
70.5 18.4866 27.4229 -8.9363
70.55 21.6745 27.4175 -5.743
70.6 41.9981 27.4122 14.5859
70.65 28.85 27.407 1.443
70.7 18.5077 27.4018 -8.8941
70.75 29.2013 27.3972 1.8041
70.8 34.1034 27.3926 6.7108
70.85 20.2531 27.3886 -7.1355
70.9 20.9002 27.3846 -6.4844
70.95 21.1316 27.3806 -6.249
71 28.1279 27.3767 0.7512
71.05 31.3796 27.3724 4.0072
71.1 24.4889 27.3681 -2.8792
71.15 36.0495 27.3634 8.6861
71.2 32.9067 27.3587 5.548
71.25 33.1951 27.3541 5.841
71.3 31.7066 27.3494 4.3572
71.35 31.6142 27.3452 4.269
71.4 23.522 27.3411 -3.8191
71.45 33.8888 27.3375 6.5513
71.5 27.2872 27.334 -0.0468
71.55 25.9274 27.3307 -1.4033
71.6 23.5344 27.3273 -3.7929
71.65 20.7438 27.3237 -6.5799
71.7 31.1821 27.3201 3.862
71.75 32.5597 27.3161 5.2436
71.8 32.4321 27.3121 5.12
71.85 40.1853 27.308 12.8773
71.9 24.3368 27.3039 -2.9671
71.95 18.5864 27.3002 -8.7138
72 26.8555 27.2965 -0.441
72.05 24.5101 27.2934 -2.7833
72.1 24.1343 27.2904 -3.1561
72.15 22.0057 27.2877 -5.282
72.2 28.8134 27.285 1.5284
72.25 24.5809 27.2821 -2.7012
72.3 32.1399 27.2793 4.8606
72.35 29.0203 27.276 1.7443
72.4 24.3102 27.2728 -2.9626
72.45 27.572 27.2693 0.3027
72.5 17.0704 27.2659 -10.1955
72.55 27.8202 27.2628 0.5574
72.6 35.8808 27.2596 8.6212
72.65 36.788 27.2571 9.5309
72.7 27.7284 27.2545 0.4739
72.75 26.532 27.2525 -0.7205
72.8 29.7456 27.2504 2.4952
72.85 23.6366 27.2483 -3.6117
72.9 30.7818 27.2462 3.5356
72.95 28.364 27.2438 1.1202
73 42.942 27.2413 15.7007
73.05 36.9843 27.2386 9.7457
73.1 19.4323 27.2358 -7.8035
73.15 32.1943 27.2332 4.9611
73.2 24.4439 27.2306 -2.7867
73.25 27.9847 27.2285 0.7562
73.3 31.39 27.2265 4.1635
73.35 31.0816 27.225 3.8566
73.4 32.5224 27.2235 5.2989
73.45 33.4323 27.2221 6.2102
73.5 39.7744 27.2208 12.5536
73.55 39.1373 27.2191 11.9182
73.6 25.5221 27.2175 -1.6954
73.65 29.8017 27.2154 2.5863
73.7 27.1773 27.2134 -0.0361
73.75 24.5776 27.2113 -2.6337
73.8 20.7333 27.2093 -6.476
73.85 26.5804 27.2077 -0.6273
73.9 26.8802 27.2061 -0.3259
73.95 28.237 27.2051 1.0319
74 28.1055 27.2041 0.9014
74.05 31.9941 27.2034 4.7907
74.1 29.9271 27.2027 2.7244
74.15 27.704 27.2018 0.5022
74.2 32.1744 27.2009 4.9735
74.25 28.1024 27.1996 0.9028
74.3 31.0797 27.1983 3.8814
74.35 31.759 27.1969 4.5621
74.4 25.5504 27.1954 -1.645
74.45 21.7168 27.1942 -5.4774
74.5 33.7006 27.1931 6.5075
74.55 33.2849 27.1925 6.0924
74.6 17.8976 27.1919 -9.2943
74.65 27.8099 27.1918 0.6181
74.7 32.6409 27.1917 5.4492
74.75 25.7494 27.1916 -1.4422
74.8 35.8191 27.1915 8.6276
74.85 33.9011 27.1909 6.7102
74.9 31.08 27.1904 3.8896
74.95 26.3418 27.1896 -0.8478
75 39.9601 27.1887 12.7714
75.05 32.2741 27.188 5.0861
75.1 35.8931 27.1873 8.7058
75.15 23.7722 27.1871 -3.4149
75.2 25.0495 27.1869 -2.1374
75.25 25.9684 27.1873 -1.2189
75.3 23.6309 27.1877 -3.5568
75.35 26.5109 27.1882 -0.6773
75.4 27.1261 27.1888 -0.0627
75.45 33.4275 27.1891 6.2384
75.5 27.2888 27.1893 0.0995
75.55 29.0887 27.1891 1.8996
75.6 44.9289 27.189 17.7399
75.65 33.4927 27.1887 6.304
75.7 29.4801 27.1885 2.2916
75.75 28.8612 27.1887 1.6725
75.8 24.1592 27.1888 -3.0296
75.85 30.7464 27.1896 3.5568
75.9 34.7359 27.1904 7.5455
75.95 42.3376 27.1916 15.146
76 33.1519 27.1927 5.9592
76.05 30.4063 27.1938 3.2125
76.1 28.4432 27.1948 1.2484
76.15 35.4408 27.1954 8.2454
76.2 38.2068 27.196 11.0108
76.25 20.3035 27.1962 -6.8927
76.3 27.8394 27.1965 0.6429
76.35 29.3736 27.1971 2.1765
76.4 30.3126 27.1976 3.115
76.45 19.7867 27.1987 -7.412
76.5 23.2628 27.1998 -3.937
76.55 19.5063 27.2014 -7.6951
76.6 20.4755 27.2031 -6.7276
76.65 21.4658 27.2048 -5.739
76.7 34.5072 27.2066 7.3006
76.75 24.315 27.208 -2.893
76.8 34.2117 27.2093 7.0024
76.85 24.3568 27.2103 -2.8535
76.9 35.1695 27.2112 7.9583
76.95 45.2513 27.212 18.0393
77 25.8536 27.213 -1.3594
77.05 29.1301 27.2143 1.9158
77.1 25.2833 27.2157 -1.9324
77.15 24.0934 27.2177 -3.1243
77.2 34.093 27.2198 6.8732
77.25 25.1563 27.2221 -2.0658
77.3 36.9271 27.2245 9.7026
77.35 32.2156 27.2267 4.9889
77.4 32.9833 27.2288 5.7545
77.45 16.7049 27.2305 -10.5256
77.5 30.7896 27.2322 3.5574
77.55 24.7441 27.2336 -2.4895
77.6 27.8934 27.235 0.6584
77.65 26.4839 27.2366 -0.7527
77.7 36.6075 27.2382 9.3693
77.75 32.0417 27.2405 4.8012
77.8 29.0322 27.2427 1.7895
77.85 23.4265 27.2456 -3.8191
77.9 32.3666 27.2484 5.1182
77.95 29.0649 27.2514 1.8135
78 34.6108 27.2543 7.3565
78.05 22.1767 27.2568 -5.0801
78.1 27.846 27.2594 0.5866
78.15 28.5152 27.2614 1.2538
78.2 29.5161 27.2634 2.2527
78.25 28.7008 27.2654 1.4354
78.3 27.0416 27.2673 -0.2257
78.35 20.3321 27.2698 -6.9377
78.4 23.5879 27.2722 -3.6843
78.45 30.0433 27.2754 2.7679
78.5 36.144 27.2786 8.8654
78.55 18.6517 27.2822 -8.6305
78.6 17.8587 27.2858 -9.4271
78.65 26.3191 27.2892 -0.9701
78.7 25.5136 27.2926 -1.779
78.75 30.5762 27.2955 3.2807
78.8 19.4867 27.2984 -7.8117
78.85 25.7977 27.3009 -1.5032
78.9 27.2708 27.3034 -0.0326
78.95 40.6089 27.3061 13.3028
79 37.8914 27.3088 10.5826
79.05 27.2899 27.3121 -0.0222
79.1 24.7639 27.3155 -2.5516
79.15 26.91 27.3196 -0.4096
79.2 30.9324 27.3238 3.6086
79.25 32.1775 27.3281 4.8494
79.3 28.5635 27.3325 1.231
79.35 22.7898 27.3365 -4.5467
79.4 24.7804 27.3405 -2.5601
79.45 14.7611 27.3442 -12.5831
79.5 26.8751 27.3479 -0.4728
79.55 26.5159 27.3509 -0.835
79.6 26.7628 27.354 -0.5912
79.65 24.9192 27.3576 -2.4384
79.7 31.2092 27.3611 3.8481
79.75 27.3183 27.3657 -0.0474
79.8 33.3291 27.3703 5.9588
79.85 27.7173 27.3758 0.3415
79.9 23.1806 27.3813 -4.2007
79.95 23.7238 27.387 -3.6632
80 29.0845 27.3927 1.6918
80.05 29.4683 27.3979 2.0704
80.1 33.6157 27.4031 6.2126
80.15 24.5588 27.4077 -2.8489
80.2 29.2033 27.4123 1.791
80.25 42.6542 27.4172 15.237
80.3 30.2312 27.422 2.8092
80.35 27.5797 27.4279 0.1518
80.4 33.5899 27.4338 6.1561
80.45 26.2285 27.4414 -1.2129
80.5 25.0714 27.4489 -2.3775
80.55 21.0025 27.458 -6.4555
80.6 24.0135 27.467 -3.4535
80.65 27.3665 27.4771 -0.1106
80.7 27.8732 27.4872 0.386
80.75 32.1874 27.4989 4.6885
80.8 23.8808 27.5106 -3.6298
80.85 33.5351 27.5292 6.0059
80.9 28.6574 27.5478 1.1096
80.95 39.0599 27.6164 11.4435
81 21.2137 27.685 -6.4713
81.05 23.3475 27.7287 -4.3812
81.1 33.5181 27.7724 5.7457
81.15 28.3824 27.8193 0.5631
81.2 24.109 27.8662 -3.7572
81.25 34.8612 27.9307 6.9305
81.3 26.669 27.9952 -1.3262
81.35 31.1081 28.0899 3.0182
81.4 21.5671 28.1845 -6.6174
81.45 23.7248 28.3338 -4.609
81.5 36.631 28.4831 8.1479
81.55 30.7954 28.7409 2.0545
81.6 24.5838 28.9988 -4.415
81.65 21.2864 29.4971 -8.2107
81.7 29.6555 29.9954 -0.3399
81.75 31.2043 31.1227 0.0816
81.8 33.3823 32.25 1.1323
81.85 40.4804 34.5922 5.8882
81.9 40.9304 39.0866 1.8438
81.95 50.1613 50.5015 -0.3402
82 70.5181 78.2433 -7.7252
82.05 144.601 148.006 -3.405
82.1 254.033 250.476 3.557
82.15 229.829 289.375 -59.546
82.2 176.514 196.152 -19.638
82.25 122.398 94.6079 27.7901
82.3 75.9303 53.145 22.7853
82.35 52.8434 40.2801 12.5633
82.4 38.9499 34.6668 4.2831
82.45 43.7196 32.1037 11.6159
82.5 36.3891 30.6704 5.7187
82.55 35.2754 29.9552 5.3202
82.6 32.8863 29.24 3.6463
82.65 25.2418 28.9212 -3.6794
82.7 25.816 28.6023 -2.7863
82.75 34.2742 28.4404 5.8338
82.8 22.2622 28.2784 -6.0162
82.85 21.2394 28.1881 -6.9487
82.9 38.4829 28.0978 10.3851
82.95 20.8952 28.044 -7.1488
83 31.4522 27.9901 3.4621
83.05 31.3891 27.9568 3.4323
83.1 30.7587 27.9234 2.8353
83.15 25.2803 27.9022 -2.6219
83.2 25.4317 27.881 -2.4493
83.25 23.3089 27.86 -4.5511
83.3 26.649 27.839 -1.19
83.35 25.461 27.8117 -2.3507
83.4 31.4052 27.7844 3.6208
83.45 35.7629 27.7807 7.9822
83.5 27.3343 27.7771 -0.4428
83.55 30.094 27.7764 2.3176
83.6 26.384 27.7758 -1.3918
83.65 22.3345 27.7763 -5.4418
83.7 18.1831 27.7768 -9.5937
83.75 27.1833 27.7785 -0.5952
83.8 28.9474 27.7802 1.1672
83.85 35.133 27.7834 7.3496
83.9 24.5154 27.7865 -3.2711
83.95 28.6863 27.7909 0.8954
84 24.5245 27.7953 -3.2708
84.05 33.3154 27.8004 5.515
84.1 26.6259 27.8055 -1.1796
84.15 26.0556 27.8105 -1.7549
84.2 26.7241 27.8155 -1.0914
84.25 33.8277 27.82 6.0077
84.3 27.0819 27.8246 -0.7427
84.35 35.2082 27.829 7.3792
84.4 22.3104 27.8334 -5.523
84.45 36.2894 27.8381 8.4513
84.5 28.8583 27.8428 1.0155
84.55 17.4827 27.8483 -10.3656
84.6 32.1191 27.8538 4.2653
84.65 21.9307 27.86 -5.9293
84.7 25.309 27.8662 -2.5572
84.75 25.9019 27.8727 -1.9708
84.8 27.3326 27.8792 -0.5466
84.85 19.0997 27.8853 -8.7856
84.9 27.4175 27.8915 -0.474
84.95 23.0944 27.8972 -4.8028
85 32.9495 27.9028 5.0467
85.05 26.1719 27.9083 -1.7364
85.1 23.0724 27.9137 -4.8413
85.15 33.265 27.9194 5.3456
85.2 34.5884 27.9251 6.6633
85.25 26.8687 27.9313 -1.0626
85.3 27.5128 27.9376 -0.4248
85.35 30.8586 27.9445 2.9141
85.4 12.7598 27.9513 -15.1915
85.45 25.9777 27.9583 -1.9806
85.5 27.0687 27.9653 -0.8966
85.55 25.3635 27.9719 -2.6084
85.6 21.2382 27.9785 -6.7403
85.65 35.0242 27.9847 7.0395
85.7 25.1153 27.9909 -2.8756
85.75 26.7924 27.9969 -1.2045
85.8 30.1642 28.0028 2.1614
85.85 43.6933 28.0091 15.6842
85.9 26.1126 28.0153 -1.9027
85.95 23.1858 28.022 -4.8362
86 27.8292 28.0288 -0.1996
86.05 32.8274 28.036 4.7914
86.1 28.6889 28.0432 0.6457
86.15 23.6805 28.0505 -4.37
86.2 34.0148 28.0577 5.9571
86.25 23.6828 28.0647 -4.3819
86.3 25.7853 28.0716 -2.2863
86.35 31.3558 28.0781 3.2777
86.4 21.9612 28.0846 -6.1234
86.45 25.6279 28.091 -2.4631
86.5 25.0601 28.0973 -3.0372
86.55 24.9824 28.1039 -3.1215
86.6 24.7628 28.1106 -3.3478
86.65 29.5186 28.1176 1.401
86.7 35.0173 28.1247 6.8926
86.75 22.0223 28.1322 -6.1099
86.8 19.7465 28.1396 -8.3931
86.85 20.8354 28.1471 -7.3117
86.9 25.0055 28.1546 -3.1491
86.95 29.1769 28.1618 1.0151
87 34.4949 28.1689 6.326
87.05 40.7591 28.1757 12.5834
87.1 29.1764 28.1825 0.9939
87.15 25.5853 28.1892 -2.6039
87.2 26.5719 28.1958 -1.6239
87.25 30.8521 28.2027 2.6494
87.3 32.5074 28.2096 4.2978
87.35 27.0405 28.217 -1.1765
87.4 23.9795 28.2243 -4.2448
87.45 23.1922 28.232 -5.0398
87.5 22.7766 28.2396 -5.463
87.55 26.1356 28.2473 -2.1117
87.6 25.9763 28.255 -2.2787
87.65 33.2616 28.2623 4.9993
87.7 23.92 28.2697 -4.3497
87.75 31.7661 28.2767 3.4894
87.8 26.6464 28.2837 -1.6373
87.85 24.669 28.2906 -3.6216
87.9 17.8284 28.2975 -10.4691
87.95 27.2498 28.3047 -1.0549
88 21.2727 28.3118 -7.0391
88.05 20.8525 28.3194 -7.4669
88.1 32.9755 28.3269 4.6486
88.15 34.9039 28.3347 6.5692
88.2 29.8812 28.3426 1.5386
88.25 30.4718 28.3504 2.1214
88.3 24.08 28.3582 -4.2782
88.35 38.0807 28.3657 9.715
88.4 32.8856 28.3732 4.5124
88.45 22.9332 28.3805 -5.4473
88.5 38.1254 28.3877 9.7377
88.55 34.8059 28.3948 6.4111
88.6 28.0062 28.4019 -0.3957
88.65 26.3006 28.4092 -2.1086
88.7 29.0274 28.4166 0.6108
88.75 22.5761 28.4243 -5.8482
88.8 22.7803 28.432 -5.6517
88.85 40.0954 28.4399 11.6555
88.9 21.8689 28.4479 -6.579
88.95 37.6408 28.4559 9.1849
89 28.8244 28.4638 0.3606
89.05 24.3904 28.4715 -4.0811
89.1 26.0496 28.4792 -2.4296
89.15 28.8353 28.4866 0.3487
89.2 30.6101 28.4939 2.1162
89.25 23.0617 28.5012 -5.4395
89.3 34.165 28.5085 5.6565
89.35 26.2655 28.516 -2.2505
89.4 28.9899 28.5234 0.4665
89.45 42.0543 28.5313 13.523
89.5 30.514 28.5391 1.9749
89.55 17.1647 28.5472 -11.3825
89.6 21.2694 28.5552 -7.2858
89.65 22.8673 28.5633 -5.696
89.7 25.5906 28.5714 -2.9808
89.75 27.9247 28.5792 -0.6545
89.8 19.61 28.587 -8.977
89.85 37.6047 28.5946 9.0101
89.9 23.8629 28.6021 -4.7392
89.95 29.8062 28.6095 1.1967
90 29.2658 28.6169 0.6489
90.05 27.6296 28.6245 -0.9949
90.1 20.5897 28.632 -8.0423
90.15 34.7977 28.6399 6.1578
90.2 25.6564 28.6478 -2.9914
90.25 30.1049 28.656 1.4489
90.3 30.9535 28.6642 2.2893
90.35 42.5121 28.6723 13.8398
90.4 28.3577 28.6805 -0.3228
90.45 36.2826 28.6885 7.5941
90.5 25.4923 28.6964 -3.2041
90.55 26.1216 28.7041 -2.5825
90.6 25.1237 28.7118 -3.5881
90.65 30.1014 28.7197 1.3817
90.7 30.3637 28.7275 1.6362
90.75 35.4296 28.7358 6.6938
90.8 32.7029 28.7441 3.9588
90.85 28.329 28.753 -0.424
90.9 22.6368 28.7619 -6.1251
90.95 21.2067 28.7714 -7.5647
91 26.1303 28.7809 -2.6506
91.05 30.8658 28.7907 2.0751
91.1 24.254 28.8006 -4.5466
91.15 31.9623 28.8105 3.1518
91.2 31.7494 28.8204 2.929
91.25 27.5243 28.8303 -1.306
91.3 26.9241 28.8402 -1.9161
91.35 27.9816 28.8502 -0.8686
91.4 24.5597 28.8602 -4.3005
91.45 15.3238 28.8706 -13.5468
91.5 36.0194 28.8809 7.1385
91.55 25.0408 28.8919 -3.8511
91.6 28.8972 28.9028 -0.0056
91.65 24.767 28.9143 -4.1473
91.7 31.1488 28.9258 2.223
91.75 27.3029 28.9377 -1.6348
91.8 27.9962 28.9496 -0.9534
91.85 32.6278 28.9615 3.6663
91.9 26.435 28.9735 -2.5385
91.95 38.7404 28.9853 9.7551
92 25.8292 28.9972 -3.168
92.05 33.1966 29.0091 4.1875
92.1 38.6136 29.0211 9.5925
92.15 28.5734 29.0333 -0.4599
92.2 31.9888 29.0455 2.9433
92.25 28.1234 29.0582 -0.9348
92.3 25.0232 29.0709 -4.0477
92.35 30.473 29.0841 1.3889
92.4 22.7709 29.0974 -6.3265
92.45 18.0112 29.1111 -11.0999
92.5 27.2397 29.1247 -1.885
92.55 36.6763 29.1385 7.5378
92.6 22.492 29.1522 -6.6602
92.65 25.5257 29.1659 -3.6402
92.7 29.1385 29.1796 -0.0411
92.75 34.5303 29.1932 5.3371
92.8 34.2405 29.2068 5.0337
92.85 28.7062 29.2205 -0.5143
92.9 27.8516 29.2343 -1.3827
92.95 25.3378 29.2485 -3.9107
93 22.3345 29.2628 -6.9283
93.05 22.2109 29.2775 -7.0666
93.1 36.0616 29.2923 6.7693
93.15 40.4101 29.3075 11.1026
93.2 24.3549 29.3227 -4.9678
93.25 27.7812 29.338 -1.5568
93.3 28.2573 29.3533 -1.096
93.35 20.5516 29.3686 -8.817
93.4 24.7205 29.3838 -4.6633
93.45 24.6513 29.3992 -4.7479
93.5 20.6024 29.4145 -8.8121
93.55 22.3324 29.4296 -7.0972
93.6 37.5361 29.4447 8.0914
93.65 28.042 29.46 -1.418
93.7 27.1656 29.4753 -2.3097
93.75 23.8494 29.4912 -5.6418
93.8 23.5172 29.507 -5.9898
93.85 25.2002 29.5235 -4.3233
93.9 24.6154 29.5399 -4.9245
93.95 27.3342 29.5567 -2.2225
94 35.3063 29.5735 5.7328
94.05 32.7997 29.5902 3.2095
94.1 21.7881 29.607 -7.8189
94.15 26.5504 29.6235 -3.0731
94.2 28.7991 29.6399 -0.8408
94.25 24.0113 29.6562 -5.6449
94.3 37.2662 29.6725 7.5937
94.35 31.5799 29.6888 1.8911
94.4 27.6821 29.7052 -2.0231
94.45 21.7926 29.722 -7.9294
94.5 30.5608 29.7388 0.822
94.55 32.0852 29.7562 2.329
94.6 21.8502 29.7736 -7.9234
94.65 31.9765 29.7915 2.185
94.7 35.1805 29.8093 5.3712
94.75 22.0039 29.8272 -7.8233
94.8 22.5896 29.8451 -7.2555
94.85 32.2109 29.8628 2.3481
94.9 32.9523 29.8804 3.0719
94.95 24.0688 29.8978 -5.829
95 29.4986 29.9151 -0.4165
95.05 27.372 29.9323 -2.5603
95.1 22.7872 29.9496 -7.1624
95.15 23.1652 29.9671 -6.8019
95.2 43.0498 29.9846 13.0652
95.25 21.3234 30.0027 -8.6793
95.3 24.5697 30.0208 -5.4511
95.35 23.5097 30.0395 -6.5298
95.4 21.6654 30.0581 -8.3927
95.45 30.1959 30.077 0.1189
95.5 34.0981 30.096 4.0021
95.55 24.1851 30.1147 -5.9296
95.6 31.7221 30.1334 1.5887
95.65 30.4729 30.1518 0.3211
95.7 35.2115 30.1702 5.0413
95.75 33.0907 30.1882 2.9025
95.8 21.7955 30.2063 -8.4108
95.85 41.1054 30.2245 10.8809
95.9 21.9973 30.2426 -8.2453
95.95 31.3035 30.2613 1.0422
96 34.8124 30.2799 4.5325
96.05 24.8114 30.2993 -5.4879
96.1 28.5315 30.3186 -1.7871
96.15 33.168 30.3385 2.8295
96.2 31.7149 30.3583 1.3566
96.25 32.7377 30.3783 2.3594
96.3 26.67 30.3982 -3.7282
96.35 21.3877 30.4179 -9.0302
96.4 24.7807 30.4376 -5.6569
96.45 30.843 30.4569 0.3861
96.5 25.9687 30.4762 -4.5075
96.55 28.1905 30.4955 -2.305
96.6 35.9452 30.5147 5.4305
96.65 32.4477 30.5345 1.9132
96.7 22.4308 30.5542 -8.1234
96.75 28.9586 30.5748 -1.6162
96.8 26.0486 30.5954 -4.5468
96.85 30.8504 30.6171 0.2333
96.9 31.3176 30.6388 0.6788
96.95 28.8074 30.6614 -1.854
97 16.8985 30.6839 -13.7854
97.05 35.8772 30.7071 5.1701
97.1 43.351 30.7303 12.6207
97.15 33.7756 30.754 3.0216
97.2 30.2608 30.7778 -0.517
97.25 27.9834 30.8029 -2.8195
97.3 16.3904 30.8279 -14.4375
97.35 21.712 30.8565 -9.1445
97.4 23.141 30.8851 -7.7441
97.45 36.859 30.9285 5.9305
97.5 35.7874 30.9718 4.8156
97.55 39.333 31.028 8.305
97.6 28.9787 31.0842 -2.1055
97.65 21.9945 31.137 -9.1425
97.7 29.3357 31.1897 -1.854
97.75 20.3101 31.2547 -10.9446
97.8 22.0185 31.3196 -9.3011
97.85 29.0023 31.407 -2.4047
97.9 22.1882 31.4944 -9.3062
97.95 28.7961 31.6218 -2.8257
98 20.4339 31.7492 -11.3153
98.05 26.0574 31.9532 -5.8958
98.1 26.74 32.1572 -5.4172
98.15 32.1394 32.521 -0.3816
98.2 31.2603 32.8848 -1.6245
98.25 29.3094 33.6282 -4.3188
98.3 49.7937 34.3715 15.4222
98.35 31.2042 36.2368 -5.0326
98.4 43.5115 38.1021 5.4094
98.45 36.8971 42.4789 -5.5818
98.5 50.6461 51.8191 -1.173
98.55 67.0707 73.6736 -6.6029
98.6 119.491 115.805 3.686
98.65 158.017 170.155 -12.138
98.7 157.778 191.615 -33.837
98.75 148.649 153.41 -4.761
98.8 115.012 98.6032 16.4088
98.85 51.2065 64.9121 -13.7056
98.9 50.5172 49.5555 0.9617
98.95 33.8987 44.1293 -10.2306
99 35.8852 38.703 -2.8178
99.05 26.1166 36.9336 -10.817
99.1 29.9751 35.1642 -5.1891
99.15 20.7188 34.4076 -13.6888
99.2 28.6663 33.6511 -4.9848
99.25 26.4733 33.2769 -6.8036
99.3 33.8361 32.9028 0.9333
99.35 25.5479 32.7003 -7.1524
99.4 28.6588 32.4979 -3.8391
99.45 24.1647 32.3815 -8.2168
99.5 32.8057 32.2651 0.5406
99.55 34.7591 32.1952 2.5639
99.6 30.1322 32.1252 -1.993
99.65 28.2662 32.0813 -3.8151
99.7 29.6539 32.0375 -2.3836
99.75 21.3768 32.005 -10.6282
99.8 24.8528 31.9725 -7.1197
99.85 26.8339 31.9201 -5.0862
99.9 21.2974 31.8676 -10.5702
99.95 27.1289 31.8486 -4.7197
100 32.1974 31.8296 0.3678
100.05 36.3309 31.8338 4.4971
100.1 27.9183 31.838 -3.9197
100.15 27.6962 31.8474 -4.1512
100.2 19.1744 31.8568 -12.6824
100.25 23.7687 31.868 -8.0993
100.3 27.8768 31.8792 -4.0024
100.35 27.4357 31.891 -4.4553
100.4 26.9108 31.9028 -4.992
100.45 27.8344 31.9147 -4.0803
100.5 34.1511 31.9267 2.2244
100.55 24.1962 31.9391 -7.7429
100.6 26.0352 31.9515 -5.9163
100.65 35.4918 31.9646 3.5272
100.7 27.0333 31.9777 -4.9444
100.75 23.0449 31.9916 -8.9467
100.8 33.203 32.0055 1.1975
100.85 32.6481 32.0201 0.628
100.9 24.9771 32.0347 -7.0576
100.95 33.9687 32.0495 1.9192
101 25.6901 32.0642 -6.3741
101.05 24.8406 32.0786 -7.238
101.1 36.1035 32.093 4.0105
101.15 28.3767 32.1066 -3.7299
101.2 32.2131 32.1203 0.0928
101.25 29.0517 32.1334 -3.0817
101.3 22.5542 32.1465 -9.5923
101.35 33.511 32.1593 1.3517
101.4 37.1252 32.1722 4.953
101.45 24.7428 32.1853 -7.4425
101.5 40.7565 32.1983 8.5582
101.55 18.5633 32.2117 -13.6484
101.6 25.6145 32.2253 -6.6108
101.65 34.5435 32.2392 2.3043
101.7 24.2665 32.2531 -7.9866
101.75 22.323 32.2669 -9.9439
101.8 30.1632 32.2807 -2.1175
101.85 23.246 32.294 -9.048
101.9 29.0041 32.3073 -3.3032
101.95 29.5667 32.3195 -2.7528
102 18.3969 32.3317 -13.9348
102.05 26.9563 32.3437 -5.3874
102.1 26.6351 32.3557 -5.7206
102.15 29.5009 32.3673 -2.8664
102.2 32.9921 32.3789 0.6132
102.25 28.0922 32.3905 -4.2983
102.3 23.1716 32.4021 -9.2305
102.35 26.1752 32.4139 -6.2387
102.4 31.4886 32.4257 -0.9371
102.45 37.2619 32.4376 4.8243
102.5 34.3937 32.4495 1.9442
102.55 25.784 32.4614 -6.6774
102.6 28.0921 32.4732 -4.3811
102.65 32.66 32.4846 0.1754
102.7 28.4092 32.496 -4.0868
102.75 31.7847 32.5067 -0.722
102.8 28.9068 32.5175 -3.6107
102.85 21.8802 32.5276 -10.6474
102.9 23.5346 32.5376 -9.003
102.95 27.8277 32.5473 -4.7196
103 22.6803 32.5569 -9.8766
103.05 26.1223 32.5664 -6.4441
103.1 25.6616 32.5759 -6.9143
103.15 36.2433 32.5855 3.6578
103.2 34.2299 32.5951 1.6348
103.25 30.7326 32.6048 -1.8722
103.3 29.5736 32.6144 -3.0408
103.35 31.5541 32.624 -1.0699
103.4 29.7848 32.6335 -2.8487
103.45 33.7732 32.6426 1.1306
103.5 36.1552 32.6517 3.5035
103.55 36.0992 32.6602 3.439
103.6 27.0618 32.6687 -5.6069
103.65 24.1567 32.6765 -8.5198
103.7 24.181 32.6843 -8.5033
103.75 30.8501 32.6916 -1.8415
103.8 30.3214 32.6988 -2.3774
103.85 20.1474 32.7058 -12.5584
103.9 25.0625 32.7129 -7.6504
103.95 28.2095 32.7199 -4.5104
104 25.1407 32.7268 -7.5861
104.05 26.6662 32.7339 -6.0677
104.1 26.0158 32.7409 -6.7251
104.15 22.5668 32.7478 -10.181
104.2 23.1125 32.7547 -9.6422
104.25 35.1644 32.7612 2.4032
104.3 15.3686 32.7677 -17.3991
104.35 30.806 32.7735 -1.9675
104.4 27.9595 32.7794 -4.8199
104.45 35.8482 32.7846 3.0636
104.5 35.2681 32.7897 2.4784
104.55 27.4538 32.7943 -5.3405
104.6 28.919 32.7988 -3.8798
104.65 32.0123 32.803 -0.7907
104.7 35.8117 32.8072 3.0045
104.75 28.7886 32.8112 -4.0226
104.8 24.6363 32.8153 -8.179
104.85 39.684 32.8193 6.8647
104.9 36.9772 32.8233 4.1539
104.95 29.56 32.8272 -3.2672
105 33.6668 32.8311 0.8357
105.05 28.8701 32.8347 -3.9646
105.1 31.03 32.8382 -1.8082
105.15 32.813 32.8412 -0.0282
105.2 26.8495 32.8441 -5.9946
105.25 26.9485 32.8463 -5.8978
105.3 33.111 32.8485 0.2625
105.35 37.9994 32.85 5.1494
105.4 25.8836 32.8515 -6.9679
105.45 37.5605 32.8526 4.7079
105.5 32.4144 32.8536 -0.4392
105.55 19.2688 32.8544 -13.5856
105.6 33.1094 32.8552 0.2542
105.65 30.0458 32.8558 -2.81
105.7 24.4402 32.8565 -8.4163
105.75 31.5435 32.8571 -1.3136
105.8 28.0423 32.8576 -4.8153
105.85 25.7439 32.8579 -7.114
105.9 28.0692 32.8581 -4.7889
105.95 27.3224 32.8578 -5.5354
106 27.2673 32.8575 -5.5902
106.05 31.4749 32.8564 -1.3815
106.1 22.4761 32.8554 -10.3793
106.15 22.623 32.8535 -10.2305
106.2 30.8322 32.8517 -2.0195
106.25 18.153 32.8493 -14.6963
106.3 28.9253 32.8469 -3.9216
106.35 32.8292 32.8441 -0.0149
106.4 23.6627 32.8413 -9.1786
106.45 29.846 32.8383 -2.9923
106.5 35.6564 32.8353 2.8211
106.55 33.816 32.8321 0.9839
106.6 27.3073 32.829 -5.5217
106.65 23.4263 32.8256 -9.3993
106.7 29.5872 32.8222 -3.235
106.75 30.5373 32.8182 -2.2809
106.8 15.6452 32.8143 -17.1691
106.85 23.4249 32.8099 -9.385
106.9 24.8303 32.8051 -7.9748
106.95 30.4407 32.7997 -2.359
107 35.1806 32.7943 2.3863
107.05 27.1029 32.7884 -5.6855
107.1 30.8057 32.7825 -1.9768
107.15 24.9061 32.7762 -7.8701
107.2 24.4304 32.77 -8.3396
107.25 25.8438 32.7636 -6.9198
107.3 32.984 32.7572 0.2268
107.35 17.1043 32.7508 -15.6465
107.4 27.4478 32.7445 -5.2967
107.45 28.7048 32.7381 -4.0333
107.5 18.6144 32.7317 -14.1173
107.55 28.7158 32.7251 -4.0093
107.6 36.7863 32.7185 4.0678
107.65 28.1537 32.7115 -4.5578
107.7 34.6532 32.7044 1.9488
107.75 28.8334 32.6968 -3.8634
107.8 19.4314 32.6892 -13.2578
107.85 26.8625 32.681 -5.8185
107.9 34.8003 32.6728 2.1275
107.95 33.8762 32.6642 1.212
108 30.7618 32.6555 -1.8937
108.05 20.1142 32.6467 -12.5325
108.1 25.6871 32.6378 -6.9507
108.15 21.7387 32.6289 -10.8902
108.2 24.4999 32.62 -8.1201
108.25 22.8829 32.6111 -9.7282
108.3 31.9693 32.6023 -0.633
108.35 30.3254 32.5933 -2.2679
108.4 38.0771 32.5844 5.4927
108.45 26.7024 32.5752 -5.8728
108.5 32.683 32.566 0.117
108.55 27.4351 32.5563 -5.1212
108.6 28.7355 32.5466 -3.8111
108.65 22.7972 32.5363 -9.7391
108.7 25.8262 32.526 -6.6998
108.75 16.1715 32.5153 -16.3438
108.8 26.0915 32.5043 -6.4128
108.85 28.6445 32.4932 -3.8487
108.9 28.6246 32.482 -3.8574
108.95 30.6209 32.4707 -1.8498
109 23.3787 32.4594 -9.0807
109.05 26.2511 32.4481 -6.197
109.1 28.9388 32.4368 -3.498
109.15 34.0374 32.4256 1.6118
109.2 22.0808 32.4143 -10.3335
109.25 38.6514 32.403 6.2484
109.3 25.7183 32.3916 -6.6733
109.35 24.9364 32.3799 -7.4435
109.4 37.3909 32.3682 5.0227
109.45 32.9681 32.356 0.6121
109.5 27.0258 32.3438 -5.318
109.55 30.9007 32.331 -1.4303
109.6 27.3152 32.3182 -5.003
109.65 20.8261 32.305 -11.4789
109.7 26.8787 32.2917 -5.413
109.75 32.9971 32.2782 0.7189
109.8 28.2267 32.2646 -4.0379
109.85 28.4025 32.251 -3.8485
109.9 33.5743 32.2374 1.3369
109.95 22.1555 32.2239 -10.0684
110 26.014 32.2103 -6.1963
110.05 24.1157 32.1968 -8.0811
110.1 25.2783 32.1833 -6.905
110.15 35.9846 32.1697 3.8149
110.2 29.0691 32.1561 -3.087
110.25 30.7149 32.1421 -1.4272
110.3 29.6092 32.1281 -2.5189
110.35 36.758 32.1136 4.6444
110.4 37.9132 32.0991 5.8141
110.45 27.2367 32.084 -4.8473
110.5 38.7749 32.0689 6.706
110.55 32.8448 32.0534 0.7914
110.6 28.2686 32.0378 -3.7692
110.65 31.9426 32.0221 -0.0795
110.7 37.7777 32.0063 5.7714
110.75 36.4271 31.9906 4.4365
110.8 25.9544 31.9748 -6.0204
110.85 37.5181 31.9591 5.559
110.9 31.3692 31.9435 -0.5743
110.95 22.4559 31.9279 -9.472
111 22.9232 31.9123 -8.9891
111.05 26.8215 31.8965 -5.075
111.1 28.9773 31.8808 -2.9035
111.15 22.951 31.8647 -8.9137
111.2 34.7049 31.8486 2.8563
111.25 27.8861 31.832 -3.9459
111.3 39.8203 31.8154 8.0049
111.35 32.889 31.7982 1.0908
111.4 27.5886 31.781 -4.1924
111.45 28.6182 31.7634 -3.1452
111.5 27.8497 31.7458 -3.8961
111.55 31.6931 31.7281 -0.035
111.6 31.5521 31.7103 -0.1582
111.65 25.2683 31.6925 -6.4242
111.7 26.9301 31.6747 -4.7446
111.75 41.587 31.6571 9.9299
111.8 35.4434 31.6395 3.8039
111.85 30.1967 31.6219 -1.4252
111.9 36.9811 31.6044 5.3767
111.95 30.0204 31.5868 -1.5664
112 25.6799 31.5692 -5.8893
112.05 37.8199 31.5512 6.2687
112.1 28.197 31.5333 -3.3363
112.15 33.6295 31.5149 2.1146
112.2 28.3081 31.4964 -3.1883
112.25 32.9798 31.4775 1.5023
112.3 40.4289 31.4585 8.9704
112.35 26.3053 31.4391 -5.1338
112.4 25.7104 31.4197 -5.7093
112.45 21.6348 31.4001 -9.7653
112.5 25.473 31.3805 -5.9075
112.55 21.7461 31.361 -9.6149
112.6 22.9951 31.3414 -8.3463
112.65 27.1873 31.3221 -4.1348
112.7 25.6782 31.3028 -5.6246
112.75 34.0315 31.2836 2.7479
112.8 26.1966 31.2645 -5.0679
112.85 28.693 31.2454 -2.5524
112.9 24.0664 31.2262 -7.1598
112.95 30.0231 31.2069 -1.1838
113 24.6863 31.1876 -6.5013
113.05 19.1168 31.1678 -12.051
113.1 26.7025 31.1481 -4.4456
113.15 31.0742 31.1279 -0.0537
113.2 28.7896 31.1076 -2.318
113.25 30.6546 31.087 -0.4324
113.3 20.0511 31.0664 -11.0153
113.35 16.531 31.0457 -14.5147
113.4 24.6309 31.0249 -6.394
113.45 27.0537 31.0043 -3.9506
113.5 35.8163 30.9837 4.8326
113.55 24.6748 30.9635 -6.2887
113.6 24.6435 30.9433 -6.2998
113.65 34.0679 30.9236 3.1443
113.7 29.0218 30.9038 -1.882
113.75 28.8212 30.8844 -2.0632
113.8 32.2813 30.865 1.4163
113.85 27.8946 30.8459 -2.9513
113.9 23.8047 30.8267 -7.022
113.95 21.9496 30.8076 -8.858
114 21.6186 30.7885 -9.1699
114.05 30.489 30.7695 -0.2805
114.1 24.2474 30.7505 -6.5031
114.15 28.7949 30.7318 -1.9369
114.2 28.2023 30.7131 -2.5108
114.25 27.2471 30.6952 -3.4481
114.3 28.9241 30.6772 -1.7531
114.35 30.4661 30.6608 -0.1947
114.4 28.0855 30.6443 -2.5588
114.45 22.8286 30.6304 -7.8018
114.5 34.0496 30.6164 3.4332
114.55 30.8982 30.6064 0.2918
114.6 29.9646 30.5964 -0.6318
114.65 24.3744 30.594 -6.2196
114.7 23.4444 30.5916 -7.1472
114.75 27.5552 30.6072 -3.052
114.8 24.1802 30.6228 -6.4426
114.85 20.3839 30.6498 -10.2659
114.9 37.741 30.6769 7.0641
114.95 30.4569 30.709 -0.2521
115 33.0686 30.7411 2.3275
115.05 26.9017 30.7939 -3.8922
115.1 26.1061 30.8467 -4.7406
115.15 30.5969 30.9377 -0.3408
115.2 32.0667 31.0287 1.038
115.25 35.288 31.1873 4.1007
115.3 34.7726 31.346 3.4266
115.35 37.1889 31.6304 5.5585
115.4 32.1423 31.9149 0.2274
115.45 28.0505 32.4527 -4.4022
115.5 24.4849 32.9905 -8.5056
115.55 37.6239 34.1034 3.5205
115.6 34.1253 35.2163 -1.091
115.65 48.4538 37.2592 11.1946
115.7 37.4318 40.5694 -3.1376
115.75 45.2105 46.2692 -1.0587
115.8 67.231 56.5803 10.6507
115.85 59.4893 75.131 -15.6417
115.9 94.6601 102.899 -8.2389
115.95 144.584 132.583 12.001
116 141.757 145.575 -3.818
116.05 128.767 130.783 -2.016
116.1 94.525 100.336 -5.811
116.15 63.7108 73.1293 -9.4185
116.2 61.7448 55.4029 6.3419
116.25 50.3241 45.8425 4.4816
116.3 47.7082 40.1295 7.5787
116.35 34.4564 37.4839 -3.0275
116.4 34.9052 34.8383 0.0669
116.45 32.8496 33.6869 -0.8373
116.5 29.4739 32.5354 -3.0615
116.55 32.0379 31.9455 0.0924
116.6 22.2187 31.3555 -9.1368
116.65 30.5096 31.0163 -0.5067
116.7 30.7309 30.6771 0.0538
116.75 33.5207 30.4636 3.0571
116.8 24.3649 30.25 -5.8851
116.85 24.2318 30.1045 -5.8727
116.9 39.3442 29.9589 9.3853
116.95 28.1758 29.8518 -1.676
117 28.5652 29.7446 -1.1794
117.05 36.484 29.6573 6.8267
117.1 19.1094 29.5699 -10.4605
117.15 35.8026 29.4863 6.3163
117.2 27.99 29.4026 -1.4126
117.25 36.2023 29.3367 6.8656
117.3 27.104 29.2707 -2.1667
117.35 30.1577 29.2222 0.9355
117.4 25.2757 29.1737 -3.898
117.45 23.0475 29.1326 -6.0851
117.5 23.6185 29.0914 -5.4729
117.55 34.5154 29.0543 5.4611
117.6 32.8332 29.0172 3.816
117.65 23.2923 28.9826 -5.6903
117.7 31.4391 28.948 2.4911
117.75 23.9529 28.9149 -4.962
117.8 29.5111 28.8819 0.6292
117.85 26.1026 28.8498 -2.7472
117.9 39.0493 28.8177 10.2316
117.95 39.9875 28.7861 11.2014
118 36.0221 28.7544 7.2677
118.05 32.0539 28.7231 3.3308
118.1 30.796 28.6917 2.1043
118.15 24.0617 28.6605 -4.5988
118.2 20.586 28.6293 -8.0433
118.25 29.7298 28.5985 1.1313
118.3 25.7534 28.5676 -2.8142
118.35 26.5424 28.537 -1.9946
118.4 36.5004 28.5065 7.9939
118.45 35.2296 28.4765 6.7531
118.5 31.5324 28.4464 3.086
118.55 28.3609 28.4167 -0.0558
118.6 22.6857 28.3871 -5.7014
118.65 28.2563 28.3577 -0.1014
118.7 35.1556 28.3283 6.8273
118.75 36.1356 28.299 7.8366
118.8 26.5602 28.2697 -1.7095
118.85 25.4171 28.2403 -2.8232
118.9 29.2239 28.2109 1.013
118.95 31.0331 28.1813 2.8518
119 23.3965 28.1517 -4.7552
119.05 33.3556 28.1218 5.2338
119.1 37.2505 28.0919 9.1586
119.15 25.6728 28.0618 -2.389
119.2 27.7494 28.0318 -0.2824
119.25 26.3517 28.0016 -1.6499
119.3 33.8515 27.9715 5.88
119.35 26.6498 27.9414 -1.2916
119.4 25.7228 27.9114 -2.1886
119.45 35.301 27.8815 7.4195
119.5 20.1007 27.8516 -7.7509
119.55 19.1356 27.822 -8.6864
119.6 21.5383 27.7923 -6.254
119.65 33.3285 27.7628 5.5657
119.7 24.8916 27.7333 -2.8417
119.75 26.5355 27.7038 -1.1683
119.8 27.6098 27.6743 -0.0645
119.85 25.3246 27.6446 -2.32
119.9 29.4298 27.615 1.8148
119.95 28.4909 27.5851 0.9058
120 34.252 27.5552 6.6968
120.05 21.6152 27.525 -5.9098
120.1 27.3423 27.4948 -0.1525
120.15 23.7743 27.4645 -3.6902
120.2 22.8007 27.4341 -4.6334
120.25 22.4491 27.4036 -4.9545
120.3 38.5682 27.3731 11.1951
120.35 31.9475 27.3427 4.6048
120.4 23.3616 27.3122 -3.9506
120.45 24.535 27.2819 -2.7469
120.5 28.4326 27.2515 1.1811
120.55 25.9654 27.2214 -1.256
120.6 25.5815 27.1912 -1.6097
120.65 30.4376 27.1612 3.2764
120.7 22.3455 27.1311 -4.7856
120.75 23.2065 27.1011 -3.8946
120.8 30.5278 27.0711 3.4567
120.85 30.2621 27.041 3.2211
120.9 29.5875 27.0108 2.5767
120.95 23.0347 26.9805 -3.9458
121 19.9917 26.9502 -6.9585
121.05 35.2773 26.9196 8.3577
121.1 31.213 26.8891 4.3239
121.15 25.6331 26.8583 -1.2252
121.2 26.1851 26.8276 -0.6425
121.25 22.0999 26.7967 -4.6968
121.3 25.6882 26.7658 -1.0776
121.35 29.8206 26.735 3.0856
121.4 26.5452 26.7041 -0.1589
121.45 22.7427 26.6733 -3.9306
121.5 27.5782 26.6425 0.9357
121.55 29.7882 26.6119 3.1763
121.6 35.7543 26.5813 9.173
121.65 24.4633 26.5507 -2.0874
121.7 22.6855 26.5202 -3.8347
121.75 36.9384 26.4898 10.4486
121.8 25.4362 26.4593 -1.0231
121.85 24.993 26.4288 -1.4358
121.9 34.472 26.3983 8.0737
121.95 25.6806 26.3677 -0.6871
122 33.1486 26.337 6.8116
122.05 34.27 26.3062 7.9638
122.1 23.219 26.2754 -3.0564
122.15 20.2006 26.2444 -6.0438
122.2 21.9767 26.2134 -4.2367
122.25 31.682 26.1822 5.4998
122.3 28.1745 26.1511 2.0234
122.35 29.8133 26.1199 3.6934
122.4 33.7465 26.0888 7.6577
122.45 32.9009 26.0577 6.8432
122.5 37.4687 26.0266 11.4421
122.55 33.0099 25.9956 7.0143
122.6 23.7709 25.9646 -2.1937
122.65 31.9646 25.9338 6.0308
122.7 29.077 25.9029 3.1741
122.75 25.7536 25.8722 -0.1186
122.8 27.3734 25.8414 1.532
122.85 37.2796 25.8107 11.4689
122.9 34.2224 25.7799 8.4425
122.95 33.1337 25.7489 7.3848
123 26.7209 25.7178 1.0031
123.05 21.4402 25.6869 -4.2467
123.1 32.7513 25.6561 7.0952
123.15 20.2281 25.6251 -5.397
123.2 17.2392 25.5941 -8.3549
123.25 30.5351 25.563 4.9721
123.3 29.8534 25.5319 4.3215
123.35 37.4153 25.5007 11.9146
123.4 21.9362 25.4694 -3.5332
123.45 24.1485 25.4382 -1.2897
123.5 31.1761 25.4069 5.7692
123.55 29.8565 25.3757 4.4808
123.6 30.445 25.3445 5.1005
123.65 27.7418 25.3133 2.4285
123.7 23.0619 25.2822 -2.2203
123.75 25.2135 25.2512 -0.0377
123.8 36.3756 25.2202 11.1554
123.85 28.0079 25.1894 2.8185
123.9 24.6892 25.1585 -0.4693
123.95 25.6204 25.1277 0.4927
124 18.4973 25.0968 -6.5995
124.05 28.5239 25.066 3.4579
124.1 30.4898 25.0352 5.4546
124.15 29.2637 25.0043 4.2594
124.2 22.1927 24.9734 -2.7807
124.25 30.6161 24.9424 5.6737
124.3 22.0409 24.9114 -2.8705
124.35 32.2578 24.8803 7.3775
124.4 37.3233 24.8492 12.4741
124.45 25.3629 24.818 0.5449
124.5 24.011 24.7869 -0.7759
124.55 37.7854 24.7557 13.0297
124.6 27.9334 24.7246 3.2088
124.65 22.6596 24.6935 -2.0339
124.7 25.2765 24.6624 0.6141
124.75 30.3241 24.6314 5.6927
124.8 32.4618 24.6004 7.8614
124.85 29.3643 24.5696 4.7947
124.9 18.0964 24.5387 -6.4423
124.95 22.7758 24.508 -1.7322
125 28.6632 24.4773 4.1859
125.05 30.7991 24.4466 6.3525
125.1 32.1372 24.4159 7.7213
125.15 26.6041 24.3853 2.2188
125.2 26.4245 24.3546 2.0699
125.25 33.4338 24.3239 9.1099
125.3 26.9248 24.2932 2.6316
125.35 22.831 24.2625 -1.4315
125.4 23.792 24.2317 -0.4397
125.45 24.1064 24.2009 -0.0945
125.5 29.3169 24.17 5.1469
125.55 39.0561 24.1392 14.9169
125.6 30.4863 24.1083 6.378
125.65 30.3987 24.0774 6.3213
125.7 26.8117 24.0466 2.7651
125.75 29.652 24.0158 5.6362
125.8 33.0547 23.9851 9.0696
125.85 33.8441 23.9544 9.8897
125.9 28.9652 23.9238 5.0414
125.95 21.8807 23.8933 -2.0126
126 30.3326 23.8628 6.4698
126.05 27.9172 23.8324 4.0848
126.1 24.7208 23.802 0.9188
126.15 21.8144 23.7717 -1.9573
126.2 34.93 23.7415 11.1885
126.25 34.6121 23.7112 10.9009
126.3 25.9964 23.681 2.3154
126.35 28.7269 23.6507 5.0762
126.4 18.5258 23.6204 -5.0946
126.45 30.786 23.5901 7.1959
126.5 27.9864 23.5598 4.4266
126.55 25.1785 23.5295 1.649
126.6 39.0431 23.4992 15.5439
126.65 19.2242 23.4688 -4.2446
126.7 33.5397 23.4385 10.1012
126.75 35.8698 23.4082 12.4616
126.8 24.423 23.3778 1.0452
126.85 33.8856 23.3476 10.538
126.9 29.9352 23.3174 6.6178
126.95 29.3516 23.2873 6.0643
127 15.3591 23.2572 -7.8981
127.05 25.2289 23.2272 2.0017
127.1 27.5839 23.1973 4.3866
127.15 20.2396 23.1675 -2.9279
127.2 27.0598 23.1377 3.9221
127.25 34.7488 23.108 11.6408
127.3 33.1073 23.0783 10.029
127.35 28.3193 23.0487 5.2706
127.4 35.2267 23.0191 12.2076
127.45 26.4503 22.9895 3.4608
127.5 31.7992 22.9599 8.8393
127.55 27.5948 22.9303 4.6645
127.6 37.0528 22.9007 14.1521
127.65 24.5105 22.8711 1.6394
127.7 25.3667 22.8415 2.5252
127.75 29.7392 22.8119 6.9273
127.8 27.1855 22.7823 4.4032
127.85 24.5587 22.7527 1.806
127.9 32.6241 22.7232 9.9009
127.95 26.4434 22.6937 3.7497
128 32.6896 22.6642 10.0254
128.05 28.2431 22.6349 5.6082
128.1 21.1026 22.6055 -1.5029
128.15 26.2707 22.5763 3.6944
128.2 25.3603 22.5472 2.8131
128.25 27.3882 22.5181 4.8701
128.3 29.5746 22.4891 7.0855
128.35 28.7379 22.4602 6.2777
128.4 31.2443 22.4313 8.813
128.45 37.1392 22.4026 14.7366
128.5 21.4022 22.3738 -0.9716
128.55 38.5442 22.3451 16.1991
128.6 25.5649 22.3164 3.2485
128.65 24.5039 22.2878 2.2161
128.7 34.686 22.2591 12.4269
128.75 29.8721 22.2305 7.6416
128.8 30.8749 22.2018 8.6731
128.85 32.9807 22.1732 10.8075
128.9 34.5546 22.1446 12.41
128.95 21.9973 22.116 -0.1187
129 29.271 22.0875 7.1835
129.05 31.7743 22.059 9.7153
129.1 28.5465 22.0305 6.516
129.15 28.9152 22.0021 6.9131
129.2 25.3186 21.9738 3.3448
129.25 23.372 21.9455 1.4265
129.3 36.7155 21.9173 14.7982
129.35 29.2359 21.8892 7.3467
129.4 36.5041 21.8613 14.6428
129.45 30.1257 21.8334 8.2923
129.5 21.2102 21.8055 -0.5953
129.55 18.5405 21.7778 -3.2373
129.6 27.4479 21.7501 5.6978
129.65 31.6242 21.7225 9.9017
129.7 31.0695 21.6949 9.3746
129.75 18.1259 21.6674 -3.5415
129.8 30.2851 21.6399 8.6452
129.85 20.4947 21.6125 -1.1178
129.9 26.5424 21.5851 4.9573
129.95 32.4653 21.5934 10.8719
130 33.2148 21.6017 11.6131
