40 55.7227 7.46476389445775
40.05 28.6826 5.35561387704528
40.1 26.5738 5.15497817648145
40.15 38.7486 6.22483734727262
40.2 33.6936 5.80461885053618
40.25 31.863 5.64473205741424
40.3 31.8983 5.64785800104783
40.35 41.7402 6.46066560038515
40.4 33.4792 5.78612132606982
40.45 22.2887 4.72109097561146
40.5 35.7699 5.98079426163449
40.55 42.149 6.49222612052291
40.6 44.89 6.7
40.65 36.4175 6.03469137570431
40.7 34.5694 5.8795748145593
40.75 29.5307 5.43421567477773
40.8 33.2739 5.76835331788891
40.85 26.0808 5.10693645936583
40.9 39.9849 6.32336144783769
40.95 32.3165 5.68476032916076
41 33.8258 5.81599518569264
41.05 39.5047 6.28527644578979
41.1 31.253 5.59043826546721
41.15 48.0634 6.9327772212873
41.2 40.8305 6.38987480315538
41.25 39.2888 6.26807785529184
41.3 25.9343 5.09257302353143
41.35 39.6463 6.2965307908403
41.4 32.8849 5.73453572663036
41.45 35.4859 5.95700428067666
41.5 48.3811 6.95565237774287
41.55 31.098 5.57655807824145
41.6 32.4965 5.7005701469239
41.65 41.6645 6.45480441221885
41.7 36.258 6.02146161658447
41.75 34.6665 5.88782642407196
41.8 43.3601 6.58483864646659
41.85 30.7606 5.5462239406645
41.9 36.3024 6.02514730110393
41.95 36.746 6.06184790307378
42 40.9979 6.40296025288304
42.05 36.8856 6.07335162821979
42.1 31.0777 5.57473766198913
42.15 35.2813 5.93980639415124
42.2 39.0704 6.25063196804931
42.25 35.9462 5.99551499039073
42.3 33.3761 5.77720520667217
42.35 34.917 5.90906083908433
42.4 33.0687 5.75053910516223
42.45 34.6104 5.88306042804253
42.5 43.2619 6.57737789700425
42.55 33.5463 5.79191678117012
42.6 27.6201 5.25548285127066
42.65 41.3789 6.43264331359978
42.7 26.4052 5.13859903086435
42.75 28.0191 5.29330709481322
42.8 36.009 6.00074995313086
42.85 40.3983 6.35596570160664
42.9 31.5457 5.61655588416959
42.95 36.8714 6.07218247420151
43 41.3278 6.42867015797202
43.05 36.7346 6.06090752280547
43.1 31.1982 5.58553488933692
43.15 31.278 5.59267377915072
43.2 43.2909 6.57958205359581
43.25 32.2588 5.67968308975069
43.3 37.004 6.08309131938688
43.35 28.2428 5.31439554417998
43.4 33.5423 5.79157146204724
43.45 29.3802 5.42035054216976
43.5 32.86 5.73236425918661
43.55 46.7686 6.83875719703515
43.6 45.0218 6.70982861182013
43.65 36.7472 6.06194688198437
43.7 33.4313 5.7819806295075
43.75 38.2312 6.18313836170597
43.8 35.6677 5.97224413432673
43.85 33.6251 5.79871537497746
43.9 35.1907 5.93217498056151
43.95 44.4648 6.66819315857002
44 41.6606 6.45450230459328
44.05 42.297 6.50361437971225
44.1 40.3743 6.35407743106739
44.15 29.365 5.41894823743501
44.2 44.2563 6.65254086796917
44.25 54.9992 7.41614455091053
44.3 57.8887 7.60846239394005
44.35 74.8963 8.6542648445723
44.4 72.7155 8.52733838896991
44.45 168.8584 12.9945527048837
44.5 599.0967 24.4764519487609
44.55 1606.969 40.0870178486752
44.6 2109.7893 45.9324427828523
44.65 1372.203 37.0432584959801
44.7 469.6411 21.6712043966181
44.75 151.6858 12.316078921475
44.8 80.5065 8.97254144598954
44.85 60.9408 7.80645886429948
44.9 48.1521 6.93917142027778
44.95 51.4195 7.1707391529744
45 36.7361 6.0610312653871
45.05 46.4061 6.81220228707281
45.1 42.3267 6.50589732473546
45.15 31.9864 5.65565204021605
45.2 34.2643 5.85357155931317
45.25 31.6311 5.62415326960423
45.3 40.1556 6.33684464067094
45.35 26.0131 5.10030391251345
45.4 37.9658 6.1616393922397
45.45 34.7544 5.89528625259198
45.5 32.3813 5.69045692365736
45.55 31.736 5.63347139870258
45.6 33.5071 5.7885317654825
45.65 31.6429 5.62520221858735
45.7 32.6337 5.71259135594347
45.75 28.9816 5.38345613895014
45.8 31.7486 5.63458960351151
45.85 34.3914 5.86441812970392
45.9 33.6089 5.79731834558014
45.95 39.6561 6.29730894906705
46 42.4936 6.51871152912905
46.05 37.2302 6.10165551305545
46.1 35.7755 5.98126240855557
46.15 39.7924 6.30812174898361
46.2 26.9957 5.19573863853832
46.25 25.9075 5.08994106056249
46.3 20.8216 4.56306914258375
46.35 43.3326 6.58275018514298
46.4 33.3707 5.7767378337605
46.45 31.6212 5.6232730682406
46.5 35.7525 5.97933942839842
46.55 35.6168 5.96798123321446
46.6 36.0946 6.00787816121466
46.65 34.0144 5.83218655394356
46.7 37.6392 6.13507946158809
46.75 44.9356 6.70340212131124
46.8 29.6987 5.44965136499575
46.85 35.5425 5.96175309787314
46.9 21.8129 4.67042824588924
46.95 27.0798 5.20382551590654
47 25.8457 5.08386663869146
47.05 33.4484 5.78345917250221
47.1 34.717 5.89211337297578
47.15 35.0782 5.92268520183202
47.2 32.2896 5.68239386174524
47.25 31.3516 5.59924994977006
47.3 40.0397 6.32769310254535
47.35 39.73 6.30317380372777
47.4 37.5825 6.13045675296711
47.45 37.7096 6.14081427825333
47.5 38.0474 6.16825745247392
47.55 23.2918 4.82615789215396
47.6 27.9807 5.28967862917966
47.65 24.2463 4.92405320848587
47.7 32.6797 5.71661613194379
47.75 41.193 6.41817731135562
47.8 29.2822 5.41130298541858
47.85 42.3623 6.50863272892241
47.9 35.9084 5.99236180483121
47.95 31.7228 5.63229970793458
48 37.664 6.13710029248341
48.05 32.7183 5.71999125873458
48.1 27.7056 5.26361092787071
48.15 24.5594 4.9557441419024
48.2 27.3137 5.22625104640028
48.25 32.8702 5.73325387541839
48.3 42.7607 6.53916661356782
48.35 19.8353 4.4536838684397
48.4 28.5852 5.3465128822439
48.45 21.6735 4.65548064113685
48.5 32.5528 5.70550611251973
48.55 32.2905 5.68247305316972
48.6 38.8298 6.23135619267588
48.65 35.9491 5.99575683296112
48.7 29.2283 5.40632037526449
48.75 35.1259 5.92671072349579
48.8 32.5536 5.70557621980462
48.85 32.4112 5.69308352301281
48.9 27.5504 5.24884749254539
48.95 29.4193 5.42395612076646
49 22.2384 4.71576080818355
49.05 31.5896 5.62046261441174
49.1 33.8249 5.81591781234914
49.15 36.4132 6.03433509178932
49.2 30.4109 5.51460787363889
49.25 20.0335 4.47587980178199
49.3 25.9366 5.09279883757448
49.35 37.1494 6.09503076284279
49.4 25.1495 5.01492771632852
49.45 22.8866 4.78399414715361
49.5 27.5 5.24404424085076
49.55 28.2271 5.31291821883228
49.6 28.2282 5.31302173908596
49.65 24.2782 4.927291345151
49.7 24.7827 4.97822257437331
49.75 30.109 5.48716684637892
49.8 39.8542 6.31301829555404
49.85 34.5648 5.87918361679579
49.9 29.2377 5.40718965822358
49.95 29.1087 5.39524790903995
50 22.5373 4.74734662732773
50.05 35.6871 5.97386809362242
50.1 23.426 4.84004132213765
50.15 38.9089 6.2376998965965
50.2 48.8366 6.98831882501078
50.25 38.8023 6.22914921959653
50.3 29.7623 5.45548347994932
50.35 25.1638 5.01635325709823
50.4 31.7831 5.63765021972807
50.45 28.571 5.34518474891187
50.5 24.3959 4.93922058628687
50.55 29.4049 5.42262851392201
50.6 32.7648 5.724054507078
50.65 28.239 5.31403801266043
50.7 33.6081 5.79724934775105
50.75 42.016 6.48197500766549
50.8 39.4206 6.27858264260334
50.85 34.5228 5.87561060656678
50.9 32.7798 5.72536461720998
50.95 26.7751 5.17446615603967
51 29.9125 5.46923212160537
51.05 27.0416 5.20015384387808
51.1 22.2526 4.71726615742635
51.15 27.9885 5.29041586267091
51.2 29.1475 5.39884246852971
51.25 35.6823 5.97346633036464
51.3 26.486 5.14645509064249
51.35 30.0686 5.48348429376797
51.4 33.1151 5.75457209529953
51.45 25.9984 5.09886261827086
51.5 26.6738 5.16466843079011
51.55 27.2025 5.21560159521411
51.6 20.7852 4.55907885433012
51.65 30.9938 5.56720755855213
51.7 35.1939 5.93244469000765
51.75 28.9911 5.38433839946933
51.8 32.2528 5.67915486670332
51.85 29.6636 5.44643002341901
51.9 29.7554 5.45485105204533
51.95 20.8289 4.56386897270288
52 31.9077 5.64869011364582
52.05 26.1338 5.11212284672425
52.1 38.349 6.19265694189497
52.15 31.8081 5.63986701970889
52.2 38.335 6.19152646768146
52.25 25.0255 5.00254935008142
52.3 24.5313 4.95290823658182
52.35 24.145 4.91375620070837
52.4 34.2513 5.85246102080142
52.45 26.3017 5.12851830453982
52.5 29.6817 5.44809140892478
52.55 31.92 5.64977875673021
52.6 35.2658 5.93850149448495
52.65 28.4314 5.33211027642902
52.7 19.0472 4.36430979651995
52.75 31.6919 5.62955593275349
52.8 28.1912 5.30953858635569
52.85 31.0868 5.57555378415454
52.9 33.6036 5.79686121966017
52.95 35.9052 5.99209479230761
53 33.6891 5.80423121524289
53.05 25.9197 5.09113936167534
53.1 32.9452 5.73979093695929
53.15 34.3104 5.85750800255535
53.2 33.2463 5.76596045772081
53.25 32.8923 5.73518090385996
53.3 33.4339 5.78220546158644
53.35 27.4175 5.23617226607376
53.4 37.8184 6.14966665763275
53.45 33.3714 5.77679842127108
53.5 33.4621 5.78464346351614
53.55 26.1158 5.11036202240115
53.6 29.0745 5.39207752169792
53.65 32.6748 5.7161875406603
53.7 32.8235 5.72917969695488
53.75 24.8576 4.98573966428252
53.8 28.5277 5.34113283864013
53.85 25.8652 5.08578410866997
53.9 39.6133 6.29390975467555
53.95 41.9358 6.47578566661992
54 35.7307 5.97751620658614
54.05 31.3318 5.59748157656638
54.1 32.4455 5.69609515369959
54.15 28.2511 5.31517638465555
54.2 36.0136 6.00113322631651
54.25 33.1034 5.75355542251919
54.3 26.5916 5.15670437391945
54.35 34.0396 5.83434657866671
54.4 29.0901 5.39352389444971
54.45 46.4141 6.81278944339248
54.5 44.7664 6.69076976139517
54.55 39.4566 6.28144887744858
54.6 26.9851 5.19471847167871
54.65 19.8333 4.45345932955495
54.7 30.0497 5.48176066606341
54.75 30.5395 5.52625551345574
54.8 28.9863 5.38389264380337
54.85 24.2535 4.9247842592341
54.9 34.653 5.88667987918487
54.95 22.5389 4.74751513952299
55 33.7731 5.81146281068717
55.05 35.7291 5.97738237023532
55.1 38.0601 6.1692868307447
55.15 25.1643 5.01640309385121
55.2 32.3021 5.68349364387786
55.25 24.0106 4.90006122410731
55.3 27.8346 5.27585064231352
55.35 21.5658 4.64389922371276
55.4 34.8816 5.90606467963228
55.45 17.0732 4.13197289439319
55.5 32.2814 5.68167228903604
55.55 25.7813 5.07752892655473
55.6 26.7114 5.16830726640745
55.65 35.7612 5.98006688925801
55.7 28.0057 5.29204119409515
55.75 25.4608 5.04586959799795
55.8 39.8375 6.31169549328863
55.85 42.7593 6.53905956541153
55.9 34.2405 5.85153825929558
55.95 31.0758 5.57456724777807
56 26.4171 5.13975680358517
56.05 32.249 5.67882030002711
56.1 29.1533 5.39937959399041
56.15 26.0325 5.10220540550848
56.2 32.7729 5.72476200378671
56.25 27.0118 5.19728775420411
56.3 43.3698 6.58557514572569
56.35 32.0899 5.66479478886923
56.4 30.4914 5.52190184628448
56.45 37.6544 6.13631811430926
56.5 37.1683 6.09658100905745
56.55 33.8272 5.81611554218105
56.6 45.7764 6.76582589193662
56.65 38.7923 6.22834649004051
56.7 30.6653 5.53762584507115
56.75 32.7747 5.7249192134038
56.8 26.6359 5.16099796551016
56.85 29.6076 5.44128661255773
56.9 23.3628 4.83350804281942
56.95 28.2034 5.31068733781231
57 26.887 5.18526759193776
57.05 39.4313 6.27943468793171
57.1 23.9638 4.89528344429615
57.15 42.5338 6.52179423165129
57.2 39.254 6.26530126969167
57.25 35.5393 5.96148471439792
57.3 28.6665 5.35411057039355
57.35 28.4662 5.3353725268251
57.4 31.2276 5.58816606768267
57.45 35.3085 5.94209558994131
57.5 28.1452 5.30520499132691
57.55 28.6635 5.35383040448612
57.6 29.5091 5.4322279039083
57.65 24.4024 4.93987854101698
57.7 35.8586 5.9882050733087
57.75 33.987 5.82983704746539
57.8 24.9675 4.99674894306288
57.85 35.1365 5.92760491261015
57.9 24.4877 4.948504824692
57.95 31.2504 5.59020572072263
58 32.813 5.72826326210659
58.05 25.7129 5.07078889325911
58.1 32.5146 5.70215748642564
58.15 33.0604 5.74981738840461
58.2 46.6511 6.83016105227395
58.25 21.2438 4.60909969516824
58.3 28.1842 5.30887935444007
58.35 32.2866 5.68212988235925
58.4 27.24 5.21919534027996
58.45 31.2712 5.59206580791035
58.5 29.6491 5.4450987135221
58.55 25.1999 5.01995019895616
58.6 34.3002 5.85663726040806
58.65 27.2395 5.21914743995607
58.7 29.7736 5.45651903689523
58.75 26.6545 5.16279962810876
58.8 26.9603 5.19233088313909
58.85 22.5924 4.75314632638214
58.9 28.0361 5.2949126527262
58.95 23.9961 4.89858142731138
59 36.9282 6.07685774064195
59.05 24.7928 4.9792368893235
59.1 28.8686 5.37295077215491
59.15 26.9146 5.18792829557233
59.2 36.8952 6.07414191470697
59.25 25.891 5.08831995849318
59.3 23.8485 4.88349260263595
59.35 27.2015 5.21550572811496
59.4 30.119 5.48807798778407
59.45 21.4791 4.63455499481881
59.5 23.0027 4.79611300951093
59.55 26.1308 5.1118294181242
59.6 26.3654 5.13472491960378
59.65 28.4427 5.33316978915916
59.7 35.6489 5.97066997915644
59.75 30.1377 5.48978141641359
59.8 30.9341 5.561843219653
59.85 43.281 6.57882968315794
59.9 23.3335 4.83047616700466
59.95 31.651 5.62592214663516
60 36.6642 6.05509702647282
60.05 28.6641 5.35388643884048
60.1 39.3226 6.27077347701223
60.15 25.4082 5.04065471937922
60.2 22.0362 4.69427310666944
60.25 27.6109 5.25460750199289
60.3 35.273 5.93910767708416
60.35 38.2964 6.18840851915903
60.4 19.7908 4.44868519902229
60.45 31.7876 5.63804930804973
60.5 31.2211 5.58758445126335
60.55 27.3334 5.22813542288262
60.6 34.9323 5.91035531926804
60.65 20.4746 4.52488673891402
60.7 28.6413 5.35175672092819
60.75 19.8343 4.45357160041242
60.8 29.3831 5.42061804594273
60.85 36.5121 6.04252430694325
60.9 31.7995 5.63910453884302
60.95 18.3093 4.27893678382843
61 21.6002 4.64760153197324
61.05 23.7 4.86826457785523
61.1 25.9622 5.09531157045376
61.15 22.3677 4.72945028518114
61.2 24.7704 4.9769870403689
61.25 31.8411 5.64279186219021
61.3 30.1749 5.49316848458155
61.35 27.2445 5.21962642341384
61.4 28.2259 5.31280528534596
61.45 20.0569 4.478493050123
61.5 25.9097 5.09015716849686
61.55 38.3898 6.1959502903106
61.6 30.5221 5.52468098626518
61.65 29.6792 5.44786196594591
61.7 25.5221 5.05194022134071
61.75 35.8097 5.98412065386386
61.8 32.341 5.68691480505907
61.85 24.636 4.96346653056108
61.9 32.1178 5.66725683201317
61.95 21.3482 4.62041123710866
62 24.798 4.97975903031462
62.05 28.6977 5.35702342724017
62.1 18.8648 4.34336275252252
62.15 25.9337 5.09251411387342
62.2 26.7748 5.17443716746082
62.25 29.5327 5.43439969085823
62.3 35.5458 5.96202985567835
62.35 27.1094 5.20666880068245
62.4 18.8688 4.34382320082206
62.45 26.3534 5.1335562722152
62.5 29.62 5.44242592967511
62.55 21.4214 4.62832583122666
62.6 22.1652 4.70799320305372
62.65 23.9468 4.89354677100362
62.7 31.0413 5.57147197785289
62.75 33.0903 5.75241688336303
62.8 25.4034 5.04017856826522
62.85 31.9102 5.64891139955301
62.9 29.4265 5.4246198023456
62.95 24.1254 4.91176139485623
63 30.2606 5.50096355196069
63.05 35.4757 5.95614808412283
63.1 35.7638 5.98028427417962
63.15 37.7686 6.14561632385231
63.2 48.7181 6.9798352416085
63.25 41.8503 6.46918078275758
63.3 36.4916 6.04082775784908
63.35 26.9767 5.19390989525232
63.4 39.8937 6.31614597678046
63.45 36.168 6.01398370466698
63.5 25.1634 5.01631338733935
63.55 33.4487 5.78348510847914
63.6 26.051 5.10401802504654
63.65 40.0898 6.33165065366054
63.7 31.1353 5.57990143282119
63.75 36.5723 6.04750361719611
63.8 30.7594 5.54611575789759
63.85 36.2971 6.02470746177771
63.9 30.8288 5.5523688638274
63.95 23.6043 4.85842567093498
64 22.8259 4.77764586381201
64.05 27.7867 5.27130913530975
64.1 25.0152 5.00151976903021
64.15 27.8756 5.27973484182681
64.2 31.3451 5.59866948479726
64.25 29.4387 5.42574418858833
64.3 30.9132 5.55996402866062
64.35 33.3128 5.771724179134
64.4 42.1065 6.48895214961553
64.45 29.827 5.46141007433062
64.5 31.4457 5.60764656518222
64.55 28.0751 5.29859415316931
64.6 30.9656 5.56467429415235
64.65 53.9079 7.34219994279644
64.7 50.2476 7.08855415440977
64.75 123.1283 11.0963192095397
64.8 278.4955 16.6881844428925
64.85 319.3448 17.8702210394835
64.9 202.5444 14.2318094422319
64.95 113.1477 10.6370907676864
65 67.0031 8.18554213232087
65.05 56.6338 7.52554316976522
65.1 33.7429 5.80886391646422
65.15 33.343 5.77433978910144
65.2 16.8579 4.10583730802866
65.25 19.9799 4.46988814177715
65.3 31.0864 5.57551791316287
65.35 33.6517 5.80100853300527
65.4 44.6363 6.68104033815094
65.45 27.0971 5.20548748917909
65.5 37.2924 6.10675036332746
65.55 21.7251 4.66101920184845
65.6 25.9729 5.09636144715031
65.65 16.9977 4.12282670021431
65.7 42.6957 6.53419467111288
65.75 27.7727 5.26998102463377
65.8 26.8149 5.1783105353001
65.85 28.4693 5.33566303283856
65.9 24.1107 4.91026475864591
65.95 27.4679 5.24098273227455
66 39.3952 6.27655956715142
66.05 20.3093 4.50658407222144
66.1 31.3873 5.60243696974808
66.15 36.0713 6.00593872762618
66.2 37.8309 6.15068288891567
66.25 26.433 5.14130333670364
66.3 30.14 5.48999089252432
66.35 31.7602 5.63561886575024
66.4 27.4597 5.24020037784816
66.45 26.5383 5.15153375219458
66.5 21.8372 4.67302899627212
66.55 26.0216 5.10113712813133
66.6 26.3446 5.13269909501814
66.65 20.3692 4.51322501100931
66.7 28.4431 5.33320729017727
66.75 29.9611 5.47367335525239
66.8 30.1033 5.48664742807482
66.85 23.5955 4.85751994334557
66.9 47.421 6.88629072868696
66.95 35.0653 5.9215960686288
67 48.8135 6.98666587150123
67.05 25.191 5.01906365769553
67.1 37.9072 6.15688232793189
67.15 33.5524 5.79244335319734
67.2 29.9071 5.46873842855919
67.25 23.044 4.80041664858375
67.3 27.4532 5.23958013585058
67.35 30.304 5.50490690202841
67.4 27.5635 5.25009523723142
67.45 23.1451 4.81093545997034
67.5 25.0369 5.00368863939394
67.55 37.4878 6.1227281500978
67.6 25.7444 5.07389396814715
67.65 29.5774 5.43851082558452
67.7 21.1046 4.59397431425122
67.75 35.38 5.94810894318522
67.8 26.4784 5.1457166653441
67.85 23.5573 4.85358630293106
67.9 27.9191 5.28385276100688
67.95 42.7649 6.53948774752274
68 37.5497 6.12778100130871
68.05 23.222 4.81892104106303
68.1 16.4469 4.05547777703195
68.15 30.4743 5.52035324956655
68.2 23.8272 4.88131129923098
68.25 32.4338 5.69506804173576
68.3 29.7328 5.4527791079412
68.35 19.9612 4.46779587716359
68.4 31.8609 5.64454604020554
68.45 26.9738 5.19363071463499
68.5 40.5937 6.37131854485396
68.55 24.7119 4.97110651666206
68.6 18.7975 4.33560837714847
68.65 25.902 5.08940075057958
68.7 22.7853 4.7733950182234
68.75 29.5259 5.433774010759
68.8 29.331 5.41581018869753
68.85 32.0853 5.66438875784493
68.9 31.5739 5.61906575864707
68.95 27.6885 5.26198631697195
69 33.6885 5.80417952858111
69.05 29.6757 5.44754072954026
69.1 33.9593 5.82746085357937
69.15 22.0269 4.69328243343611
69.2 27.4108 5.23553244665717
69.25 42.7525 6.53853959229429
69.3 22.7712 4.77191785344216
69.35 25.8423 5.08353223654577
69.4 31.8148 5.64046097406941
69.45 23.8927 4.88801595742076
69.5 32.0989 5.66558911323439
69.55 23.4647 4.84403757210862
69.6 19.9443 4.46590416377244
69.65 20.2126 4.49584252393253
69.7 26.7538 5.17240756321464
69.75 22.1394 4.70525238430416
69.8 22.751 4.76980083441646
69.85 32.7621 5.72381865540829
69.9 24.095 4.90866580650995
69.95 35.4581 5.95467043588476
70 31.7004 5.63031082623331
70.05 23.7646 4.87489487066131
70.1 36.7332 6.06079202744988
70.15 47.5625 6.89655711206686
70.2 31.0321 5.57064628207536
70.25 32.5863 5.70844111820381
70.3 19.8658 4.45710668483491
70.35 27.4149 5.23592398722518
70.4 33.0166 5.746007309428
70.45 33.4809 5.78626822745023
70.5 18.4866 4.29960463298662
70.55 21.6745 4.65558804019428
70.6 41.9981 6.48059410856752
70.65 28.85 5.37121960079831
70.7 18.5077 4.30205764721953
70.75 29.2013 5.40382272100038
70.8 34.1034 5.83981164079801
70.85 20.2531 4.50034443126301
70.9 20.9002 4.57167365414462
70.95 21.1316 4.59691200698904
71 28.1279 5.30357426647351
71.05 31.3796 5.60174972664792
71.1 24.4889 4.94862607195169
71.15 36.0495 6.00412358300527
71.2 32.9067 5.73643617588482
71.25 33.1951 5.76151889695764
71.3 31.7066 5.6308613905867
71.35 31.6142 5.62265062048141
71.4 23.522 4.84994845333432
71.45 33.8888 5.8214087642082
71.5 27.2872 5.22371515303046
71.55 25.9274 5.0918955213162
71.6 23.5344 4.85122664900332
71.65 20.7438 4.55453620031722
71.7 31.1821 5.58409348059289
71.75 32.5597 5.70611075952789
71.8 32.4321 5.69491878783183
71.85 40.1853 6.33918764511668
71.9 24.3368 4.93323423323888
71.95 18.5864 4.31119473000235
72 26.8555 5.18222925004288
72.05 24.5101 4.95076761724886
72.1 24.1343 4.9126672999502
72.15 22.0057 4.6910233425128
72.2 28.8134 5.36781147209922
72.25 24.5809 4.95791286732633
72.3 32.1399 5.66920629365346
72.35 29.0203 5.38704928509105
72.4 24.3102 4.93053749605456
72.45 27.572 5.25090468395685
72.5 17.0704 4.1316340593039
72.55 27.8202 5.27448575692456
72.6 35.8808 5.99005843043288
72.65 36.788 6.06531120388723
72.7 27.7284 5.26577629604601
72.75 26.532 5.15092224752034
72.8 29.7456 5.45395269506438
72.85 23.6366 4.86174865660495
72.9 30.7818 5.54813482172162
72.95 28.364 5.32578632691925
73 42.942 6.55301457346159
73.05 36.9843 6.08147186131778
73.1 19.4323 4.40820825279387
73.15 32.1943 5.67400211490972
73.2 24.4439 4.94407726476842
73.25 27.9847 5.29005671047107
73.3 31.39 5.60267793113258
73.35 31.0816 5.57508744326042
73.4 32.5224 5.70284139705814
73.45 33.4323 5.78206710441863
73.5 39.7744 6.30669485546907
73.55 39.1373 6.25598113807898
73.6 25.5221 5.05194022134071
73.65 29.8017 5.45909333131428
73.7 27.1773 5.21318520676179
73.75 24.5776 4.95758005482514
73.8 20.7333 4.55338335746069
73.85 26.5804 5.15561829463741
73.9 26.8802 5.18461184660916
73.95 28.237 5.31384982851416
74 28.1055 5.30146206248805
74.05 31.9941 5.65633273420155
74.1 29.9271 5.47056669824983
74.15 27.704 5.26345893875881
74.2 32.1744 5.67224823152161
74.25 28.1024 5.30116968224938
74.3 31.0797 5.57491703974149
74.35 31.759 5.63551239906364
74.4 25.5504 5.0547403494146
74.45 21.7168 4.66012875358611
74.5 33.7006 5.80522178732217
74.55 33.2849 5.76930671744881
74.6 17.8976 4.23055551907784
74.65 27.8099 5.27350926803016
74.7 32.6409 5.71322150804605
74.75 25.7494 5.07438666244503
74.8 35.8191 5.98490601429964
74.85 33.9011 5.82246511367823
74.9 31.08 5.57494394590654
74.95 26.3418 5.1324263267971
75 39.9601 6.32140016135666
75.05 32.2741 5.68102983621808
75.1 35.8931 5.99108504362941
75.15 23.7722 4.87567431233876
75.2 25.0495 5.00494755217275
75.25 25.9684 5.09591993657671
75.3 23.6309 4.86116241242771
75.35 26.5109 5.14887366323937
75.4 27.1261 5.20827226630866
75.45 33.4275 5.78165201304956
75.5 27.2888 5.22386829849299
75.55 29.0887 5.39339410760979
75.6 44.9289 6.70290235644232
75.65 33.4927 5.78728779308581
75.7 29.4801 5.42955799305984
75.75 28.8612 5.37226209338301
75.8 24.1592 4.91520091145825
75.85 30.7464 5.54494364263515
75.9 34.7359 5.89371699354491
75.95 42.3376 6.50673497231907
76 33.1519 5.75776866502988
76.05 30.4063 5.51419078378686
76.1 28.4432 5.3332166653906
76.15 35.4408 5.95321761738978
76.2 38.2068 6.18116493874739
76.25 20.3035 4.50594052335359
76.3 27.8394 5.27630552564955
76.35 29.3736 5.41974169126168
76.4 30.3126 5.505687967911
76.45 19.7867 4.44822436484492
76.5 23.2628 4.8231524960341
76.55 19.5063 4.41659371008926
76.6 20.4755 4.52498618782422
76.65 21.4658 4.63311989916082
76.7 34.5072 5.87428293496321
76.75 24.315 4.93102423437565
76.8 34.2117 5.84907685023885
76.85 24.3568 4.93526088469495
76.9 35.1695 5.93038784566406
76.95 45.2513 6.72690865108186
77 25.8536 5.08464354699521
77.05 29.1301 5.39723077142343
77.1 25.2833 5.02825019266146
77.15 24.0934 4.90850282672833
77.2 34.093 5.83892113322316
77.25 25.1563 5.01560564638011
77.3 36.9271 6.07676723266574
77.35 32.2156 5.67587878658451
77.4 32.9833 5.74310891416835
77.45 16.7049 4.08716283013046
77.5 30.7896 5.54883771613479
77.55 24.7441 4.97434417787913
77.6 27.8934 5.2814202635276
77.65 26.4839 5.14625106266688
77.7 36.6075 6.05041320902961
77.75 32.0417 5.66053884360844
77.8 29.0322 5.38815367264149
77.85 23.4265 4.84009297431361
77.9 32.3666 5.68916514086206
77.95 29.0649 5.39118725328661
78 34.6108 5.88309442385553
78.05 22.1767 4.7092143718459
78.1 27.846 5.2769309262108
78.15 28.5152 5.33996254668514
78.2 29.5161 5.43287216856793
78.25 28.7008 5.35731275921054
78.3 27.0416 5.20015384387808
78.35 20.3321 4.50911299481395
78.4 23.5879 4.85673758813465
78.45 30.0433 5.48117688092621
78.5 36.144 6.01198802394017
78.55 18.6517 4.31876139651174
78.6 17.8587 4.22595551325378
78.65 26.3191 5.13021442047016
78.7 25.5136 5.0510988903406
78.75 30.5762 5.5295750288788
78.8 19.4867 4.4143742478408
78.85 25.7977 5.07914362860512
78.9 27.2708 5.22214515309561
78.95 40.6089 6.37251127892293
79 37.8914 6.15559907726291
79.05 27.2899 5.22397358339416
79.1 24.7639 4.97633399200657
79.15 26.91 5.18748493973717
79.2 30.9324 5.56169039051977
79.25 32.1775 5.6725214851951
79.3 28.5635 5.34448313684308
79.35 22.7898 4.77386635757642
79.4 24.7804 4.97799156286951
79.45 14.7611 3.84201769907428
79.5 26.8751 5.1841199831794
79.55 26.5159 5.14935918343244
79.6 26.7628 5.17327749110755
79.65 24.9192 4.99191346078836
79.7 31.2092 5.58651948891257
79.75 27.3183 5.2266911138884
79.8 33.3291 5.77313606283448
79.85 27.7173 5.26472221489415
79.9 23.1806 4.81462355745493
79.95 23.7238 4.87070836737327
80 29.0845 5.39300472834949
80.05 29.4683 5.42847123967697
80.1 33.6157 5.79790479397515
80.15 24.5588 4.9556836057198
80.2 29.2033 5.40400777201514
80.25 42.6542 6.53101829732546
80.3 30.2312 5.49829064346366
80.35 27.5797 5.25163783976009
80.4 33.5899 5.79567942522704
80.45 26.2285 5.12137676801854
80.5 25.0714 5.00713490930692
80.55 21.0025 4.58284845920089
80.6 24.0135 4.90035712984268
80.65 27.3665 5.23130002962935
80.7 27.8732 5.27950755279316
80.75 32.1874 5.67339404589528
80.8 23.8808 4.88679854301362
80.85 33.5351 5.79094983573507
80.9 28.6574 5.35326068858971
80.95 39.0599 6.24979199653876
81 21.2137 4.60583325794584
81.05 23.3475 4.83192508220067
81.1 33.5181 5.78948184209951
81.15 28.3824 5.32751349130155
81.2 24.109 4.91009164883915
81.25 34.8612 5.90433738873381
81.3 26.669 5.16420371402988
81.35 31.1081 5.57746358123475
81.4 21.5671 4.64403919018778
81.45 23.7248 4.87081102076441
81.5 36.631 6.05235491358529
81.55 30.7954 5.54936032349675
81.6 24.5838 4.95820532047635
81.65 21.2864 4.61371867369479
81.7 29.6555 5.4456863662903
81.75 31.2043 5.5860809159911
81.8 33.3823 5.77774177339209
81.85 40.4804 6.36242092288777
81.9 40.9304 6.39768708206333
81.95 50.1613 7.08246426041106
82 70.5181 8.3975055820166
82.05 144.6009 12.025011434506
82.1 254.0328 15.9384064448112
82.15 229.8289 15.1601088386594
82.2 176.5145 13.2858759590777
82.25 122.3978 11.0633539218449
82.3 75.9303 8.7137994009502
82.35 52.8434 7.26934660062375
82.4 38.9499 6.24098549910188
82.45 43.7196 6.61207985432723
82.5 36.3891 6.03233785525977
82.55 35.2754 5.93930972420196
82.6 32.8863 5.73465779275451
82.65 25.2418 5.02412181380985
82.7 25.816 5.08094479403191
82.75 34.2742 5.85441713580438
82.8 22.2622 4.71828358622073
82.85 21.2394 4.60862235380596
82.9 38.4829 6.20345871268601
82.95 20.8952 4.57112677575234
83 31.4522 5.60822610100556
83.05 31.3891 5.60259761182257
83.1 30.7587 5.54605265030905
83.15 25.2803 5.02795186930026
83.2 25.4317 5.04298522702575
83.25 23.3089 4.82792916269491
83.3 26.649 5.162266943892
83.35 25.461 5.04588941614855
83.4 31.4052 5.60403426113724
83.45 35.7629 5.98020902644715
83.5 27.3343 5.2282214949254
83.55 30.094 5.48579985052317
83.6 26.384 5.13653579759744
83.65 22.3345 4.72593906012339
83.7 18.1831 4.26416463096818
83.75 27.1833 5.21376063892465
83.8 28.9474 5.38027880318483
83.85 35.133 5.92730967640463
83.9 24.5154 4.95130285884433
83.95 28.6863 5.35595929782891
84 24.5245 4.95222172363072
84.05 33.3154 5.77194941072771
84.1 26.6259 5.16002906968556
84.15 26.0556 5.10446863052365
84.2 26.7241 5.16953576252259
84.25 33.8277 5.81615852603761
84.3 27.0819 5.204027286631
84.35 35.2082 5.93364980429415
84.4 22.3104 4.72338861412016
84.45 36.2894 6.02406839270605
84.5 28.8583 5.37199218167711
84.55 17.4827 4.18123187589495
84.6 32.1191 5.66737152478995
84.65 21.9307 4.68302252823964
84.7 25.309 5.03080510455335
84.75 25.9019 5.08939092623076
84.8 27.3326 5.22805891321052
84.85 19.0997 4.37032035439051
84.9 27.4175 5.23617226607376
84.95 23.0944 4.80566332570229
85 32.9495 5.74016550284049
85.05 26.1719 5.11584792580858
85.1 23.0724 4.8033738143101
85.15 33.265 5.76758181563123
85.2 34.5884 5.88119035570181
85.25 26.8687 5.18350267676211
85.3 27.5128 5.24526453098411
85.35 30.8586 5.55505175493442
85.4 12.7598 3.5720862251631
85.45 25.9777 5.09683234960696
85.5 27.0687 5.20275888351555
85.55 25.3635 5.03621881970988
85.6 21.2382 4.60849216121716
85.65 35.0242 5.91812470297813
85.7 25.1153 5.01151673647809
85.75 26.7924 5.17613755613199
85.8 30.1642 5.49219446123314
85.85 43.6933 6.610090770935
85.9 26.1126 5.11004892344486
85.95 23.1858 4.81516354862428
86 27.8292 5.27533885167579
86.05 32.8274 5.72952004970748
86.1 28.6889 5.35620201262051
86.15 23.6805 4.86626139865092
86.2 34.0148 5.8322208462986
86.25 23.6828 4.86649771396227
86.3 25.7853 5.07792280366687
86.35 31.3558 5.59962498744336
86.4 21.9612 4.68627784067484
86.45 25.6279 5.06240061630843
86.5 25.0601 5.00600639232512
86.55 24.9824 4.99823969013092
86.6 24.7628 4.97622346765095
86.65 29.5186 5.43310224457446
86.7 35.0173 5.91754171932907
86.75 22.0223 4.69279234571486
86.8 19.7465 4.44370341044494
86.85 20.8354 4.56458103225258
86.9 25.0055 5.00054996975333
86.95 29.1769 5.40156458815407
87 34.4949 5.87323590535916
87.05 40.7591 6.38428539462327
87.1 29.1764 5.40151830506942
87.15 25.5853 5.0581913763716
87.2 26.5719 5.15479388530715
87.25 30.8521 5.55446667106753
87.3 32.5074 5.7015261114898
87.35 27.0405 5.20004807670083
87.4 23.9795 4.89688676609946
87.45 23.1922 4.81582807002077
87.5 22.7766 4.77248363014479
87.55 26.1356 5.11229889580021
87.6 25.9763 5.09669500755146
87.65 33.2616 5.76728705718729
87.7 23.92 4.89080770425499
87.75 31.7661 5.63614229770683
87.8 26.6464 5.1620151104002
87.85 24.669 4.96678970764819
87.9 17.8284 4.22236900329661
87.95 27.2498 5.22013409789442
88 21.2727 4.61223373215192
88.05 20.8525 4.56645376632678
88.1 32.9755 5.7424297993097
88.15 34.9039 5.90795226791822
88.2 29.8812 5.46636991064454
88.25 30.4718 5.52012681013761
88.3 24.08 4.90713765855412
88.35 38.0807 6.17095616578177
88.4 32.8856 5.73459676001722
88.45 22.9332 4.78886207778007
88.5 38.1254 6.17457690858248
88.55 34.8059 5.89965253214119
88.6 28.0062 5.29208843463523
88.65 26.3006 5.1284110599678
88.7 29.0274 5.38770823263473
88.75 22.5761 4.75143136328412
88.8 22.7803 4.7728712532395
88.85 40.0954 6.33209286097417
88.9 21.8689 4.67641957056892
88.95 37.6408 6.13520985786142
89 28.8244 5.36883600047534
89.05 24.3904 4.93866378689621
89.1 26.0496 5.10388087635282
89.15 28.8353 5.36985102214205
89.2 30.6101 5.53263951473436
89.25 23.0617 4.8022598846793
89.3 34.165 5.84508340402427
89.35 26.2655 5.12498780486354
89.4 28.9899 5.38422696401257
89.45 42.0543 6.4849286811807
89.5 30.514 5.52394786362073
89.55 17.1647 4.14303029194815
89.6 21.2694 4.61187597404787
89.65 22.8673 4.78197657877995
89.7 25.5906 5.05871525191921
89.75 27.9247 5.28438265079281
89.8 19.61 4.42831796509691
89.85 37.6047 6.13226711746969
89.9 23.8629 4.8849667347895
89.95 29.8062 5.45950547211009
90 29.2658 5.40978742650763
90.05 27.6296 5.25638659156649
90.1 20.5897 4.53758746472175
90.15 34.7977 5.89895753502261
90.2 25.6564 5.06521470423515
90.25 30.1049 5.48679323466813
90.3 30.9535 5.56358697244862
90.35 42.5121 6.52013036679482
90.4 28.3577 5.32519483211647
90.45 36.2826 6.0235039636411
90.5 25.4923 5.0489899980095
90.55 26.1216 5.11092946537125
90.6 25.1237 5.01235473604971
90.65 30.1014 5.48647427771242
90.7 30.3637 5.51032666908233
90.75 35.4296 5.95227687528058
90.8 32.7029 5.71864494439024
90.85 28.329 5.32249941286986
90.9 22.6368 4.75781462438376
90.95 21.2067 4.60507328931907
91 26.1303 5.11178051171996
91.05 30.8658 5.55569977590582
91.1 24.254 4.92483502261751
91.15 31.9623 5.65352102675846
91.2 31.7494 5.63466059315022
91.25 27.5243 5.24636064334125
91.3 26.9241 5.18884380185027
91.35 27.9816 5.2897636998263
91.4 24.5597 4.95577440971641
91.45 15.3238 3.91456255538215
91.5 36.0194 6.00161644892441
91.55 25.0408 5.00407833671696
91.6 28.8972 5.37561159311199
91.65 24.767 4.97664545652993
91.7 31.1488 5.58111100050877
91.75 27.3029 5.22521769881409
91.8 27.9962 5.29114354369639
91.85 32.6278 5.71207492948053
91.9 26.435 5.14149783623411
91.95 38.7404 6.22417866067484
92 25.8292 5.08224359904167
92.05 33.1966 5.76164906949391
92.1 38.6136 6.21398422913995
92.15 28.5734 5.34540924532444
92.2 31.9888 5.65586421336298
92.25 28.1234 5.30315000730698
92.3 25.0232 5.0023194620096
92.35 30.473 5.52023550222271
92.4 22.7709 4.77188641943624
92.45 18.0112 4.2439604145185
92.5 27.2397 5.21916660013838
92.55 36.6763 6.05609610227579
92.6 22.492 4.74257314123884
92.65 25.5257 5.05229650753002
92.7 29.1385 5.39800889217497
92.75 34.5303 5.87624880344595
92.8 34.2405 5.85153825929558
92.85 28.7062 5.35781671952298
92.9 27.8516 5.27746151099181
92.95 25.3378 5.03366665562987
93 22.3345 4.72593906012339
93.05 22.2109 4.7128441518896
93.1 36.0616 6.00513113928414
93.15 40.4101 6.35689389560656
93.2 24.3549 4.93506838858389
93.25 27.7812 5.27078741745482
93.3 28.2573 5.31575958824325
93.35 20.5516 4.53338725458128
93.4 24.7205 4.97197143998233
93.45 24.6513 4.96500755286435
93.5 20.6024 4.53898667105335
93.55 22.3324 4.72571687683467
93.6 37.5361 6.12667120057866
93.65 28.042 5.2954697619758
93.7 27.1656 5.21206293131616
93.75 23.8494 4.88358474893187
93.8 23.5172 4.84945357746623
93.85 25.2002 5.01998007964175
93.9 24.6154 4.96139093400228
93.95 27.3342 5.22821193143507
94 35.3063 5.94191046718141
94.05 32.7997 5.72710223411456
94.1 21.7881 4.66777248802895
94.15 26.5504 5.15270802588309
94.2 28.7991 5.36647929279523
94.25 24.0113 4.90013265126568
94.3 37.2662 6.10460481931468
94.35 31.5799 5.61959962986688
94.4 27.6821 5.26137814645555
94.45 21.7926 4.66825449177741
94.5 30.5608 5.52818234142109
94.55 32.0852 5.66437993076029
94.6 21.8502 4.67441975008663
94.65 31.9765 5.65477674183517
94.7 35.1805 5.93131519985239
94.75 22.0039 4.69083148279705
94.8 22.5896 4.75285177551331
94.85 32.2109 5.67546473868
94.9 32.9523 5.74040939306597
94.95 24.0688 4.90599633102187
95 29.4986 5.43126136362448
95.05 27.372 5.23182568516957
95.1 22.7872 4.77359403384913
95.15 23.1652 4.81302399744693
95.2 43.0498 6.56123463991344
95.25 21.3234 4.61772671343812
95.3 24.5697 4.95678323108848
95.35 23.5097 4.84868023280562
95.4 21.6654 4.65461061744159
95.45 30.1959 5.49507961725761
95.5 34.0981 5.83935784140688
95.55 24.1851 4.91783488946101
95.6 31.7221 5.63223756601229
95.65 30.4729 5.52022644463069
95.7 35.2115 5.93392787283432
95.75 33.0907 5.75245165125271
95.8 21.7955 4.66856509004641
95.85 41.1054 6.41134931196234
95.9 21.9973 4.69012793002494
95.95 31.3035 5.59495308291321
96 34.8124 5.90020338632492
96.05 24.8114 4.98110429523414
96.1 28.5315 5.34148855657297
96.15 33.168 5.75916660637631
96.2 31.7149 5.63159835215545
96.25 32.7377 5.72168681421834
96.3 26.67 5.16430053347014
96.35 21.3877 4.62468377297302
96.4 24.7807 4.97802169541275
96.45 30.843 5.5536474500998
96.5 25.9687 5.09594937180502
96.55 28.1905 5.30947266684743
96.6 35.9452 5.99543159413899
96.65 32.4477 5.6962882651776
96.7 22.4308 4.73611655261988
96.75 28.9586 5.3813195407818
96.8 26.0486 5.10378291074376
96.85 30.8504 5.55431363896566
96.9 31.3176 5.59621300523845
96.95 28.8074 5.36725255601038
97 16.8985 4.11077851507473
97.05 35.8772 5.98975792499163
97.1 43.351 6.58414762896459
97.15 33.7756 5.81167789885159
97.2 30.2608 5.5009817305641
97.25 27.9834 5.28993383701536
97.3 16.3904 4.0485058972416
97.35 21.712 4.65961371789551
97.4 23.141 4.81050932854308
97.45 36.859 6.07116133865672
97.5 35.7874 5.98225709912237
97.55 39.333 6.27160266598578
97.6 28.9787 5.38318678851106
97.65 21.9945 4.689829421205
97.7 29.3357 5.41624408608032
97.75 20.3101 4.50667283037054
97.8 22.0185 4.69238745203335
97.85 29.0023 5.3853783525394
97.9 22.1882 4.71043522405308
97.95 28.7961 5.36619977265103
98 20.4339 4.52038715156125
98.05 26.0574 5.10464494357835
98.1 26.74 5.17107338953916
98.15 32.1394 5.66916219559822
98.2 31.2603 5.59109112785689
98.25 29.3094 5.4138156599574
98.3 49.7937 7.0564651207244
98.35 31.2042 5.58607196516479
98.4 43.5115 6.59632473427438
98.45 36.8971 6.07429831338567
98.5 50.6461 7.11660733776987
98.55 67.0707 8.18967032303499
98.6 119.4907 10.9311801741623
98.65 158.0173 12.5704932281912
98.7 157.7777 12.5609593582656
98.75 148.6489 12.1921655172492
98.8 115.0124 10.7243834321606
98.85 51.2065 7.1558717148926
98.9 50.5172 7.10754528652474
98.95 33.8987 5.82225901175824
99 35.8852 5.99042569438934
99.05 26.1166 5.11044029414296
99.1 29.9751 5.47495205458459
99.15 20.7188 4.55179085635533
99.2 28.6663 5.35409189312249
99.25 26.4733 5.14522108368533
99.3 33.8361 5.81688060733586
99.35 25.5479 5.05449305074208
99.4 28.6588 5.35339144841847
99.45 24.1647 4.91576036844759
99.5 32.8057 5.72762603527849
99.55 34.7591 5.89568486267711
99.6 30.1322 5.48928046286578
99.65 28.2662 5.31659665575639
99.7 29.6539 5.44553945904352
99.75 21.3768 4.62350516383404
99.8 24.8528 4.98525826813416
99.85 26.8339 5.18014478562134
99.9 21.2974 4.61491061668587
99.95 27.1289 5.20854106252413
100 32.1974 5.67427528412219
100.05 36.3309 6.02751192450086
100.1 27.9183 5.28377705812802
100.15 27.6962 5.26271792897928
100.2 19.1744 4.37885829868928
100.25 23.7687 4.87531537441425
100.3 27.8768 5.27984848267448
100.35 27.4357 5.2379098884956
100.4 26.9108 5.18756204782169
100.45 27.8344 5.27583168799006
100.5 34.1511 5.84389424955654
100.55 24.1962 4.91896330541304
100.6 26.0352 5.10246999011263
100.65 35.4918 5.95749947545109
100.7 27.0333 5.19935572931878
100.75 23.0449 4.80051038953151
100.8 33.203 5.76220443927496
100.85 32.6481 5.71385159065232
100.9 24.9771 4.99770947534968
100.95 33.9687 5.82826732399947
101 25.6901 5.06854022377252
101.05 24.8406 4.98403451031391
101.1 36.1035 6.00861880967665
101.15 28.3767 5.32697850568218
101.2 32.2131 5.67565855209772
101.25 29.0517 5.38996289412089
101.3 22.5542 4.74912623542479
101.35 33.511 5.78886862867003
101.4 37.1252 6.09304521565366
101.45 24.7428 4.97421350567102
101.5 40.7565 6.38408176639366
101.55 18.5633 4.30851482531974
101.6 25.6145 5.06107696048973
101.65 34.5435 5.8773718616402
101.7 24.2665 4.92610393719012
101.75 22.323 4.72472221405661
101.8 30.1632 5.49210342218717
101.85 23.246 4.82141058197702
101.9 29.0041 5.38554546912381
101.95 29.5667 5.43752701142716
102 18.3969 4.28916075707125
102.05 26.9563 5.19194568538616
102.1 26.6351 5.16092046053802
102.15 29.5009 5.43147309668381
102.2 32.9921 5.74387499863986
102.25 28.0922 5.30020754310621
102.3 23.1716 4.81368881420476
102.35 26.1752 5.11617044282147
102.4 31.4886 5.61147039553805
102.45 37.2619 6.10425261600468
102.5 34.3937 5.86461422431177
102.55 25.784 5.07779479695665
102.6 28.0921 5.30019810950496
102.65 32.66 5.71489282489182
102.7 28.4092 5.33002814251482
102.75 31.7847 5.63779212103462
102.8 28.9068 5.37650444061939
102.85 21.8802 4.67762760381799
102.9 23.5346 4.85124726230276
102.95 27.8277 5.27519667879786
103 22.6803 4.76238385685152
103.05 26.1223 5.1109979456071
103.1 25.6616 5.06572798322216
103.15 36.2433 6.02024085896902
103.2 34.2299 5.85063244444564
103.25 30.7326 5.54369912603489
103.3 29.5736 5.43816145402102
103.35 31.5541 5.61730362362584
103.4 29.7848 5.45754523572641
103.45 33.7732 5.81147141436659
103.5 36.1552 6.01291942404021
103.55 36.0992 6.00826097968455
103.6 27.0618 5.20209573152975
103.65 24.1567 4.91494659177493
103.7 24.181 4.91741802168577
103.75 30.8501 5.55428663286295
103.8 30.3214 5.50648708343169
103.85 20.1474 4.48858552330241
103.9 25.0625 5.0062460986252
103.95 28.2095 5.31126162036855
104 25.1407 5.01405025902214
104.05 26.6662 5.16393260993983
104.1 26.0158 5.10056859575479
104.15 22.5668 4.75045261001518
104.2 23.1125 4.80754615162455
104.25 35.1644 5.92995784133412
104.3 15.3686 3.92028060220184
104.35 30.806 5.55031530635873
104.4 27.9595 5.28767434700739
104.45 35.8482 5.98733663660229
104.5 35.2681 5.9386951428744
104.55 27.4538 5.23963739203392
104.6 28.919 5.37763888709534
104.65 32.0123 5.65794132171764
104.7 35.8117 5.98428776046072
104.75 28.7886 5.36550090858253
104.8 24.6363 4.96349675128331
104.85 39.684 6.29952379152583
104.9 36.9772 6.08088809303378
104.95 29.56 5.43691088762727
105 33.6668 5.80230988486482
105.05 28.8701 5.37309035844364
105.1 31.03 5.57045779088218
105.15 32.813 5.72826326210659
105.2 26.8495 5.18165031626025
105.25 26.9485 5.19119446755754
105.3 33.111 5.75421584579515
105.35 37.9994 6.16436533635053
105.4 25.8836 5.08759275099727
105.45 37.5605 6.12866217049039
105.5 32.4144 5.6933645588527
105.55 19.2688 4.38962412969493
105.6 33.1094 5.75407681561517
105.65 30.0458 5.48140492939538
105.7 24.4402 4.94370306551678
105.75 31.5435 5.61636003119458
105.8 28.0423 5.2954980879989
105.85 25.7439 5.073844696086
105.9 28.0692 5.29803737246162
105.95 27.3224 5.22708331672645
106 27.2673 5.22181003101415
106.05 31.4749 5.61024954881688
106.1 22.4761 4.74089653968529
106.15 22.623 4.75636415763133
106.2 30.8322 5.55267503100983
106.25 18.153 4.26063375567532
106.3 28.9253 5.37822461412686
106.35 32.8292 5.72967712877436
106.4 23.6627 4.86443213540902
106.45 29.846 5.46314927491461
106.5 35.6564 5.97129801634452
106.55 33.816 5.81515262052511
106.6 27.3073 5.22563871694169
106.65 23.4263 4.84007231350938
106.7 29.5872 5.43941173289906
106.75 30.5373 5.52605646008073
106.8 15.6452 3.95540137027837
106.85 23.4249 4.83992768541019
106.9 24.8303 4.98300110375264
106.95 30.4407 5.51730912673923
107 35.1806 5.93132362967997
107.05 27.1029 5.20604456377392
107.1 30.8057 5.55028828080128
107.15 24.9061 4.99060116619231
107.2 24.4304 4.9427118062861
107.25 25.8438 5.08367976961571
107.3 32.984 5.74316985644687
107.35 17.1043 4.13573451759177
107.4 27.4478 5.23906480204244
107.45 28.7048 5.35768606769751
107.5 18.6144 4.31444086759802
107.55 28.7158 5.35871253194272
107.6 36.7863 6.06517106106662
107.65 28.1537 5.30600603090498
107.7 34.6532 5.8866968666647
107.75 28.8334 5.3696741055673
107.8 19.4314 4.40810616932034
107.85 26.8625 5.18290459105703
107.9 34.8003 5.89917790882764
107.95 33.8762 5.82032645132556
108 30.7618 5.54633212132126
108.05 20.1142 4.48488572875609
108.1 25.6871 5.06824427193481
108.15 21.7387 4.66247788198507
108.2 24.4999 4.94973736677008
108.25 22.8829 4.78360742536425
108.3 31.9693 5.65414007608584
108.35 30.3254 5.50685027942471
108.4 38.0771 6.17066446989301
108.45 26.7024 5.16743650178694
108.5 32.683 5.71690475694672
108.55 27.4351 5.23785261342852
108.6 28.7355 5.36055034488064
108.65 22.7972 4.77464134778729
108.7 25.8262 5.0819484452324
108.75 16.1715 4.02138036002565
108.8 26.0915 5.10798394672497
108.85 28.6445 5.35205567982995
108.9 28.6246 5.3501962580825
108.95 30.6209 5.5336154546553
109 23.3787 4.83515253120313
109.05 26.2511 5.12358273086324
109.1 28.9388 5.37947952872766
109.15 34.0374 5.83415803694072
109.2 22.0808 4.69902117467032
109.25 38.6514 6.21702501201338
109.3 25.7183 5.07132132683387
109.35 24.9364 4.99363594988661
109.4 37.3909 6.11480989074885
109.45 32.9681 5.74178543660419
109.5 27.0258 5.19863443608031
109.55 30.9007 5.55883980701009
109.6 27.3152 5.22639455073954
109.65 20.8261 4.56356220512003
109.7 26.8787 5.18446718573857
109.75 32.9971 5.74431022839122
109.8 28.2267 5.31288057460357
109.85 28.4025 5.32939959094831
109.9 33.5743 5.79433343880036
109.95 22.1555 4.70696292740871
110 26.014 5.10039214178675
110.05 24.1157 4.91077386976839
110.1 25.2783 5.02775297722551
110.15 35.9846 5.99871652939193
110.2 29.0691 5.39157676380481
110.25 30.7149 5.54210248912811
110.3 29.6092 5.44143363462241
110.35 36.758 6.062837619465
110.4 37.9132 6.15736956824909
110.45 27.2367 5.21887919001772
110.5 38.7749 6.22694949393361
110.55 32.8448 5.73103830034314
110.6 28.2686 5.31682235926686
110.65 31.9426 5.65177848115087
110.7 37.7777 6.14635664438698
110.75 36.4271 6.03548672436615
110.8 25.9544 5.09454610343257
110.85 37.5181 6.12520203748415
110.9 31.3692 5.60082136833518
110.95 22.4559 4.73876566206855
111 22.9232 4.78781787456457
111.05 26.8215 5.17894776957636
111.1 28.9773 5.38305675244094
111.15 22.951 4.79072019637966
111.2 34.7049 5.89108648722797
111.25 27.8861 5.28072911632475
111.3 39.8203 6.3103327962953
111.35 32.889 5.7348931986568
111.4 27.5886 5.25248512610935
111.45 28.6182 5.34959811574664
111.5 27.8497 5.27728149713468
111.55 31.6931 5.6296625120872
111.6 31.5521 5.61712559945031
111.65 25.2683 5.02675839880932
111.7 26.9301 5.18942193312511
111.75 41.587 6.44879833767501
111.8 35.4434 5.953435982691
111.85 30.1967 5.49515240916938
111.9 36.9811 6.08120876142235
111.95 30.0204 5.47908751527113
112 25.6799 5.06753391700539
112.05 37.8199 6.14978861425334
112.1 28.197 5.31008474508647
112.15 33.6295 5.79909475694267
112.2 28.3081 5.32053568731571
112.25 32.9798 5.74280419307502
112.3 40.4289 6.3583724332568
112.35 26.3053 5.1288692710967
112.4 25.7104 5.07054237730048
112.45 21.6348 4.65132239261051
112.5 25.473 5.04707836277583
112.55 21.7461 4.66327138391066
112.6 22.9951 4.79532063578652
112.65 27.1873 5.21414422508622
112.7 25.6782 5.06736617978216
112.75 34.0315 5.83365237222788
112.8 26.1966 5.11826142356953
112.85 28.693 5.35658473283117
112.9 24.0664 4.90575172629027
112.95 30.0231 5.47933390112338
113 24.6863 4.96853097001518
113.05 19.1168 4.37227629502071
113.1 26.7025 5.16744617775551
113.15 31.0742 5.57442373703327
113.2 28.7896 5.36559409571764
113.25 30.6546 5.53665964278102
113.3 20.0511 4.4778454640597
113.35 16.531 4.06583324793332
113.4 24.6309 4.96295275012769
113.45 27.0537 5.20131714087884
113.5 35.8163 5.98467208792595
113.55 24.6748 4.96737355148573
113.6 24.6435 4.96422199342455
113.65 34.0679 5.83677136780258
113.7 29.0218 5.38718850607624
113.75 28.8212 5.3685379760229
113.8 32.2813 5.68166348880326
113.85 27.8946 5.28153386811066
113.9 23.8047 4.87900604631722
113.95 21.9496 4.68504002117378
114 21.6186 4.64958062625007
114.05 30.489 5.52168452557732
114.1 24.2474 4.92416490381872
114.15 28.7949 5.36608796051649
114.2 28.2023 5.31058377205369
114.25 27.2471 5.21987547744197
114.3 28.9241 5.37811305199138
114.35 30.4661 5.51961049350405
114.4 28.0855 5.29957545469446
114.45 22.8286 4.77792842139771
114.5 34.0496 5.83520350973297
114.55 30.8982 5.55861493539533
114.6 29.9646 5.4739930580884
114.65 24.3744 4.93704364979691
114.7 23.4444 4.8419417592532
114.75 27.5552 5.24930471586476
114.8 24.1802 4.91733667751152
114.85 20.3839 4.51485326450373
114.9 37.741 6.1433704104506
114.95 30.4569 5.51877703843886
115 33.0686 5.75053041031869
115.05 26.9017 5.18668487571782
115.1 26.1061 5.10941288212256
115.15 30.5969 5.53144646543741
115.2 32.0667 5.66274668336842
115.25 35.288 5.94037035882444
115.3 34.7726 5.89682965668841
115.35 37.1889 6.09827024655353
115.4 32.1423 5.669417959544
115.45 28.0505 5.2962722739678
115.5 24.4849 4.94822190286571
115.55 37.6239 6.13383240723122
115.6 34.1253 5.84168640034708
115.65 48.4538 6.96087638160598
115.7 37.4318 6.11815331615676
115.75 45.2105 6.7238753706475
115.8 67.231 8.19945120114755
115.85 59.4893 7.71293070110188
115.9 94.6601 9.72934221825916
115.95 144.5838 12.0243003954492
116 141.7572 11.9061832675295
116.05 128.7668 11.347545990213
116.1 94.525 9.72239682382899
116.15 63.7108 7.98190453463332
116.2 61.7448 7.85778594770817
116.25 50.3241 7.09394812498654
116.3 47.7082 6.90711227648719
116.35 34.4564 5.86995741040768
116.4 34.9052 5.90806228809413
116.45 32.8496 5.73145705732844
116.5 29.4739 5.42898701416756
116.55 32.0379 5.66020317656531
116.6 22.2187 4.71367160502299
116.65 30.5096 5.52354958337481
116.7 30.7309 5.54354579669006
116.75 33.5207 5.78970638288333
116.8 24.3649 4.93608144179166
116.85 24.2318 4.92258062402232
116.9 39.3442 6.27249551614029
116.95 28.1758 5.30808816806955
117 28.5652 5.34464217698435
117.05 36.484 6.04019867222925
117.1 19.1094 4.37142997198857
117.15 35.8026 5.98352738775382
117.2 27.99 5.29055762656452
117.25 36.2023 6.01683471602802
117.3 27.104 5.20615020912766
117.35 30.1577 5.49160268045677
117.4 25.2757 5.02749440576516
117.45 23.0475 4.80078118643206
117.5 23.6185 4.85988682995808
117.55 34.5154 5.87498085103262
117.6 32.8332 5.73002617795067
117.65 23.2923 4.82620969291638
117.7 31.4391 5.60705805213393
117.75 23.9529 4.894170001134
117.8 29.5111 5.43241198732202
117.85 26.1026 5.10907036553618
117.9 39.0493 6.24894391077404
117.95 39.9875 6.32356703135185
118 36.0221 6.00184138410871
118.05 32.0539 5.66161637697222
118.1 30.796 5.54941438351832
118.15 24.0617 4.90527267335874
118.2 20.586 4.53717974076408
118.25 29.7298 5.45250401191966
118.3 25.7534 5.07478078344277
118.35 26.5424 5.1519316765656
118.4 36.5004 6.04155609094213
118.45 35.2296 5.93545280496779
118.5 31.5324 5.61537175973239
118.55 28.3609 5.32549528213104
118.6 22.6857 4.76295076606929
118.65 28.2563 5.31566552747631
118.7 35.1556 5.92921579974958
118.75 36.1356 6.01128937915985
118.8 26.5602 5.15365889441666
118.85 25.4171 5.0415374639092
118.9 29.2239 5.40591342882958
118.95 31.0331 5.57073603754477
119 23.3965 4.83699286747458
119.05 33.3556 5.77543071986843
119.1 37.2505 6.10331876932542
119.15 25.6728 5.0668333305922
119.2 27.7494 5.26776992663879
119.25 26.3517 5.13339069232023
119.3 33.8515 5.8182041902979
119.35 26.6498 5.16234442864867
119.4 25.7228 5.07176497878204
119.45 35.301 5.94146446593767
119.5 20.1007 4.48338042106623
119.55 19.1356 4.37442567658887
119.6 21.5383 4.64093740530941
119.65 33.3285 5.77308409777651
119.7 24.8916 4.98914822389554
119.75 26.5355 5.15126198130128
119.8 27.6098 5.25450283090608
119.85 25.3246 5.03235531336968
119.9 29.4298 5.42492396260077
119.95 28.4909 5.33768676488233
120 34.252 5.85252082439695
120.05 21.6152 4.64921498750058
120.1 27.3423 5.22898651748118
120.15 23.7743 4.87588966241034
120.2 22.8007 4.77500785339668
120.25 22.4491 4.73804812132591
120.3 38.5682 6.21033010394778
120.35 31.9475 5.65221195639371
120.4 23.3616 4.83338390778138
120.45 24.535 4.9532817404222
120.5 28.4326 5.33222280104648
120.55 25.9654 5.09562557494171
120.6 25.5815 5.05781573408917
120.65 30.4376 5.51702818553612
120.7 22.3455 4.72710270673274
120.75 23.2065 4.81731252878615
120.8 30.5278 5.52519682907315
120.85 30.2621 5.50109989002199
120.9 29.5875 5.43943930934062
120.95 23.0347 4.79944788491343
121 19.9917 4.47120789049223
121.05 35.2773 5.93946967329576
121.1 31.213 5.58685958298578
121.15 25.6331 5.06291418058809
121.2 26.1851 5.11713787189675
121.25 22.0999 4.70105307351449
121.3 25.6882 5.06835278961518
121.35 29.8206 5.46082411362974
121.4 26.5452 5.15220341213349
121.45 22.7427 4.76893069775605
121.5 27.5782 5.25149502522853
121.55 29.7882 5.45785672219416
121.6 35.7543 5.97948994480298
121.65 24.4633 4.94603881909554
121.7 22.6855 4.76292977063488
121.75 36.9384 6.07769693222688
121.8 25.4362 5.04343137159613
121.85 24.993 4.99929995099314
121.9 34.472 5.87128606014049
121.95 25.6806 5.06760298366003
122 33.1486 5.75748208855225
122.05 34.27 5.85405842130056
122.1 23.219 4.81860975801112
122.15 20.2006 4.49450775947712
122.2 21.9767 4.68793131348999
122.25 31.682 5.62867657624774
122.3 28.1745 5.30796571202189
122.35 29.8133 5.46015567543637
122.4 33.7465 5.80917377946296
122.45 32.9009 5.73593061324839
122.5 37.4687 6.12116818916128
122.55 33.0099 5.74542426631837
122.6 23.7709 4.87554099562295
122.65 31.9646 5.65372443615711
122.7 29.077 5.39230933830766
122.75 25.7536 5.07480048868919
122.8 27.3734 5.23195947996542
122.85 37.2796 6.10570225281253
122.9 34.2224 5.84999145298521
122.95 33.1337 5.75618797469297
123 26.7209 5.16922624770865
123.05 21.4402 4.63035635777636
123.1 32.7513 5.72287515153004
123.15 20.2281 4.49756600840944
123.2 17.2392 4.15201156067755
123.25 30.5351 5.52585739953539
123.3 29.8534 5.4638264979774
123.35 37.4153 6.11680472142114
123.4 21.9362 4.68360971900947
123.45 24.1485 4.91411233082843
123.5 31.1761 5.58355621445688
123.55 29.8565 5.4641101745847
123.6 30.445 5.51769879569373
123.65 27.7418 5.26704850936461
123.7 23.0619 4.80228070816357
123.75 25.2135 5.02130461135351
123.8 36.3756 6.03121878230263
123.85 28.0079 5.29224904931731
123.9 24.6892 4.96882279820885
123.95 25.6204 5.06165980682226
124 18.4973 4.30084875344391
124.05 28.5239 5.340777097015
124.1 30.4898 5.52175696676339
124.15 29.2637 5.40959333037152
124.2 22.1927 4.71091286270506
124.25 30.6161 5.53318172483066
124.3 22.0409 4.69477368996632
124.35 32.2578 5.67959505598771
124.4 37.3233 6.10927982662441
124.45 25.3629 5.03615925085774
124.5 24.011 4.90010203975387
124.55 37.7854 6.14698299981381
124.6 27.9334 5.28520576704446
124.65 22.6596 4.76021007939776
124.7 25.2765 5.02757396763091
124.75 30.3241 5.50673224335449
124.8 32.4618 5.69752577879205
124.85 29.3643 5.41888364887086
124.9 18.0964 4.25398636575154
124.95 22.7758 4.7723998156064
125 28.6632 5.35380238708901
125.05 30.7991 5.54969368524065
125.1 32.1372 5.66896816007993
125.15 26.6041 5.15791624592723
125.2 26.4245 5.1404766315975
125.25 33.4338 5.78219681436044
125.3 26.9248 5.18891125381809
125.35 22.831 4.77817956966877
125.4 23.792 4.87770437808607
125.45 24.1064 4.90982688085843
125.5 29.3169 5.41450828792421
125.55 39.0561 6.24948797902676
125.6 30.4863 5.52144002955751
125.65 30.3987 5.51350160968508
125.7 26.8117 5.17800154499784
125.75 29.652 5.4453650015403
125.8 33.0547 5.74932169912243
125.85 33.8441 5.81756822048526
125.9 28.9652 5.38193273833852
125.95 21.8807 4.67768104940899
126 30.3326 5.50750397185513
126.05 27.9172 5.28367296489857
126.1 24.7208 4.9720016090102
126.15 21.8144 4.67058882797448
126.2 34.93 5.91016074231488
126.25 34.6121 5.88320490889107
126.3 25.9964 5.09866649232915
126.35 28.7269 5.35974812841051
126.4 18.5258 4.30416077766619
126.45 30.786 5.54851331439333
126.5 27.9864 5.29021738683771
126.55 25.1785 5.01781825099315
126.6 39.0431 6.24844780725581
126.65 19.2242 4.38454102501049
126.7 33.5397 5.79134699357585
126.75 35.8698 5.98914017201134
126.8 24.423 4.94196317266732
126.85 33.8856 5.82113391015874
126.9 29.9352 5.47130697365812
126.95 29.3516 5.4177116940642
127 15.3591 3.91906876693941
127.05 25.2289 5.02283784329138
127.1 27.5839 5.25203769978853
127.15 20.2396 4.49884429603871
127.2 27.0598 5.20190349775926
127.25 34.7488 5.89481127772552
127.3 33.1073 5.75389433340585
127.35 28.3193 5.32158810882616
127.4 35.2267 5.93520850518328
127.45 26.4503 5.14298551427087
127.5 31.7992 5.63907793881234
127.55 27.5948 5.25307528977075
127.6 37.0528 6.08710111629501
127.65 24.5105 4.9508080148598
127.7 25.3667 5.03653650835572
127.75 29.7392 5.45336593307289
127.8 27.1855 5.21397161480574
127.85 24.5587 4.95567351628414
127.9 32.6241 5.71175104499487
127.95 26.4434 5.14231465392774
128 32.6896 5.71748196324221
128.05 28.2431 5.31442376932815
128.1 21.1026 4.59375663264827
128.15 26.2707 5.12549509803687
128.2 25.3603 5.03590111102273
128.25 27.3882 5.23337367288062
128.3 29.5746 5.43825339608224
128.35 28.7379 5.36077419781882
128.4 31.2443 5.58966009700053
128.45 37.1392 6.09419395818676
128.5 21.4022 4.62625118211279
128.55 38.5442 6.20839753881789
128.6 25.5649 5.05617444319319
128.65 24.5039 4.95014141212148
128.7 34.686 5.88948215041017
128.75 29.8721 5.46553748500548
128.8 30.8749 5.55651869429052
128.85 32.9807 5.74288255147187
128.9 34.5546 5.87831608541086
128.95 21.9973 4.69012793002494
129 29.271 5.4102680155423
129.05 31.7743 5.63686969868916
129.1 28.5465 5.34289247505506
129.15 28.9152 5.37728556057794
129.2 25.3186 5.03175913572977
129.25 23.372 4.83445963888416
129.3 36.7155 6.05933164631216
129.35 29.2359 5.40702321060304
129.4 36.5041 6.04186229568334
129.45 30.1257 5.48868836790722
129.5 21.2102 4.60545328930823
129.55 18.5405 4.30586808901527
129.6 27.4479 5.23907434572177
129.65 31.6242 5.62353981047525
129.7 31.0695 5.57400215285211
129.75 18.1259 4.25745228980901
129.8 30.2851 5.50318998400019
129.85 20.4947 4.52710724414609
129.9 26.5424 5.1519316765656
129.95 32.4653 5.69783292138336
130 33.2148 5.76322826200733
130 33.2148 5.76322826200733
