40 187.7221 13.7011714827602
40.05 206.2782 14.3623883807673
40.1 159.8125 12.6416968797705
40.15 195.339 13.976372920039
40.2 208.5125 14.4399619113071
40.25 165.3288 12.8580247316608
40.3 180.2087 13.4241834016077
40.35 186.9468 13.6728490081621
40.4 219.2023 14.8054820927925
40.45 180.1735 13.4228722708666
40.5 186.307 13.6494322226238
40.55 186.2333 13.6467322095804
40.6 185.2254 13.6097538552319
40.65 173.8277 13.184373326025
40.7 178.5496 13.3622453203045
40.75 153.1587 12.3757302814824
40.8 204.3642 14.2956007219004
40.85 182.9685 13.5265849348607
40.9 166.1394 12.8895073606403
40.95 171.6326 13.1008625670221
41 168.4585 12.9791563670371
41.05 195.7697 13.9917725824858
41.1 167.7277 12.9509729364245
41.15 138.7549 11.7794269809698
41.2 151.8251 12.3217328326823
41.25 170.0183 13.0391065644852
41.3 167.0987 12.9266662368919
41.35 187.5679 13.6955430706489
41.4 169.1081 13.0041570276585
41.45 170.3567 13.0520764631533
41.5 216.6693 14.7196908934937
41.55 188.8082 13.7407496156505
41.6 172.4574 13.132303682142
41.65 160.3219 12.661828461956
41.7 197.2188 14.0434611118485
41.75 176.5611 13.2876295854453
41.8 174.5815 13.2129292740104
41.85 155.0655 12.4525298634454
41.9 158.693 12.5973409892723
41.95 178.7051 13.3680626868668
42 158.9824 12.6088223082094
42.05 176.2114 13.2744642076432
42.1 172.319 13.1270331758551
42.15 171.692 13.1031293972089
42.2 182.9844 13.5271726535888
42.25 152.2964 12.3408427589043
42.3 136.0116 11.6624011249828
42.35 162.5894 12.7510548583245
42.4 189.6026 13.7696259934684
42.45 173.3613 13.1666738396605
42.5 184.5047 13.5832507154952
42.55 162.3709 12.7424840592406
42.6 156.0722 12.4928859756263
42.65 166.4936 12.9032399032181
42.7 152.4008 12.3450718912447
42.75 148.4017 12.1820236414152
42.8 142.199 11.9247222189869
42.85 176.8662 13.2991052330599
42.9 170.6741 13.0642297897733
42.95 162.1804 12.7350068708266
43 159.0302 12.6107176639555
43.05 196.4344 14.0155056990463
43.1 173.8616 13.1856588762185
43.15 161.302 12.7004724321578
43.2 195.8136 13.9933412736201
43.25 164.6069 12.8299220574406
43.3 155.3652 12.4645577538876
43.35 166.6178 12.9080517507484
43.4 158.622 12.59452261898
43.45 182.8155 13.5209282225741
43.5 200.0812 14.1450061859301
43.55 185.2324 13.6100110213034
43.6 196.0046 14.0001642847504
43.65 153.4574 12.3877923779824
43.7 184.7824 13.5934690200846
43.75 201.5387 14.1964326504936
43.8 180.5515 13.4369453373897
43.85 198.9881 14.1063141890431
43.9 205.3997 14.331772395625
43.95 187.3174 13.6863947042309
44 211.9619 14.5589113604005
44.05 217.2014 14.7377542386891
44.1 251.0886 15.8457754622486
44.15 298.3795 17.2736649267027
44.2 305.8549 17.4887077853111
44.25 443.2182 21.0527480391516
44.3 566.9011 23.8096850042162
44.35 826.1518 28.7428565038341
44.4 1575.389 39.691170302726
44.45 3548.6836 59.5708284313723
44.5 7625.3888 87.3234722168101
44.55 10365.8457 101.812797329216
44.6 8709.9137 93.3269184104993
44.65 4985.0938 70.6051966925948
44.7 2090.2306 45.7190397974411
44.75 964.8698 31.0623534201773
44.8 608.5542 24.6688913411203
44.85 405.4756 20.1364247074797
44.9 313.5121 17.7062728997381
44.95 297.4937 17.2480056818172
45 236.6107 15.3821552456085
45.05 226.3909 15.0462919019937
45.1 184.8867 13.5973048800121
45.15 224.5755 14.9858433196133
45.2 197.6972 14.0604836332183
45.25 183.5872 13.5494354125919
45.3 210.5333 14.5097656769501
45.35 185.5405 13.6213251925061
45.4 177.002 13.3042098600405
45.45 181.9718 13.4896923612068
45.5 171.0075 13.076983597145
45.55 179.4863 13.3972497177592
45.6 195.1998 13.9713921997774
45.65 144.2418 12.0100707741462
45.7 182.8464 13.5220708473222
45.75 150.899 12.2840954082912
45.8 146.5902 12.1074439911981
45.85 149.5692 12.2298487316892
45.9 165.7952 12.8761484924647
45.95 177.8012 13.3342116377385
46 168.0307 12.9626656209284
46.05 177.1127 13.3083695470181
46.1 172.8413 13.1469121849961
46.15 135.56 11.6430236622623
46.2 176.8448 13.2983006433153
46.25 157.3996 12.5458997285966
46.3 156.4477 12.5079055001227
46.35 170.571 13.0602833047373
46.4 195.9572 13.9984713451148
46.45 158.3819 12.5849870877963
46.5 149.8762 12.2423935568172
46.55 155.0735 12.4528510791706
46.6 174.1336 13.1959690815036
46.65 166.5317 12.9047161921524
46.7 133.9195 11.5723593100111
46.75 156.6081 12.5143158023122
46.8 162.1989 12.7357331944415
46.85 147.3613 12.1392462698472
46.9 153.4861 12.388950722317
46.95 164.5661 12.8283319258585
47 167.2506 12.9325403536969
47.05 165.5625 12.8671092324578
47.1 146.9648 12.1229039425379
47.15 160.5328 12.6701539059318
47.2 151.2507 12.2984023352629
47.25 162.3729 12.7425625366329
47.3 162.3708 12.7424801353583
47.35 156.2789 12.5011559465515
47.4 173.5517 13.1739022313057
47.45 148.3209 12.1787068279025
47.5 154.9708 12.4487268425329
47.55 157.9836 12.5691527160744
47.6 153.4792 12.3886722452408
47.65 176.028 13.2675544091592
47.7 164.1807 12.8133016822363
47.75 144.9375 12.0389991278345
47.8 162.8334 12.7606191072377
47.85 139.76 11.8220133649053
47.9 154.3023 12.4218476886492
47.95 141.8389 11.9096137636785
48 141.6459 11.9015083077734
48.05 152.9617 12.3677685942129
48.1 172.6608 13.1400456620211
48.15 153.3604 12.3838766143724
48.2 157.6172 12.5545688894522
48.25 162.5746 12.7504745009745
48.3 165.9608 12.8825773818751
48.35 140.9737 11.8732346056161
48.4 156.3178 12.5027117058661
48.45 145.7069 12.0709113160523
48.5 164.5755 12.8286982971773
48.55 179.0314 13.3802615818974
48.6 153.8134 12.402153038888
48.65 136.8107 11.6966106201754
48.7 147.7408 12.1548673378199
48.75 123.3929 11.1082356834918
48.8 163.2023 12.7750655575617
48.85 165.4839 12.8640545707798
48.9 140.7496 11.8637936597026
48.95 155.0252 12.4509116132113
49 145.7017 12.0706959202856
49.05 159.4276 12.6264642715211
49.1 150.2267 12.2567002084574
49.15 165.3478 12.8587635486465
49.2 163.048 12.769025021512
49.25 161.5025 12.7083633879426
49.3 159.1828 12.6167666222373
49.35 150.1091 12.2519018931756
49.4 166.2553 12.8940024817742
49.45 174.6576 13.2158087153227
49.5 144.3151 12.0131219922217
49.55 145.1732 12.0487841710274
49.6 140.4049 11.8492573606956
49.65 156.677 12.5170683468614
49.7 156.1774 12.497095662593
49.75 122.5207 11.0689069017677
49.8 155.2898 12.4615328110149
49.85 175.6297 13.2525356064415
49.9 181.1531 13.4593127610588
49.95 165.5137 12.8652127848707
50 148.166 12.1723457065596
50.05 160.809 12.68104885252
50.1 163.1223 12.7719340743679
50.15 160.7571 12.6790023266817
50.2 161.5233 12.7091817203154
50.25 152.9178 12.3659936923807
50.3 149.8005 12.2393014506548
50.35 133.5533 11.556526294696
50.4 155.7896 12.4815704140144
50.45 149.7973 12.2391707235417
50.5 152.0554 12.3310745679361
50.55 144.6944 12.0288985364413
50.6 147.167 12.1312406620263
50.65 162.181 12.7350304279181
50.7 153.1258 12.3744009956038
50.75 164.6223 12.8305222029347
50.8 143.7526 11.9896872352868
50.85 129.7593 11.3911939672714
50.9 162.9778 12.7662758860993
50.95 150.6438 12.2737035975292
51 167.5004 12.9421945588837
51.05 139.6942 11.819230093369
51.1 158.7922 12.601277712994
51.15 153.6969 12.3974553840697
51.2 178.9523 13.3773054087884
51.25 145.5561 12.0646632775225
51.3 130.1182 11.4069364861912
51.35 157.2048 12.538133832433
51.4 146.0829 12.086475913185
51.45 155.8652 12.4845985117664
51.5 146.5479 12.1056970059555
51.55 133.2432 11.5431018361617
51.6 158.0994 12.5737583880079
51.65 161.208 12.6967712431153
51.7 169.8495 13.0326321209493
51.75 152.5252 12.3501093112571
51.8 153.9477 12.4075662400005
51.85 136.1083 11.6665461898541
51.9 157.5096 12.5502828653381
51.95 124.8236 11.1724482545233
52 146.0403 12.0847134843984
52.05 158.3535 12.5838587086791
52.1 154.4877 12.4293081062463
52.15 144.1229 12.0051197411771
52.2 156.9192 12.5267394001791
52.25 141.143 11.8803619473482
52.3 155.0906 12.4535376500013
52.35 144.7576 12.0315252565915
52.4 142.6273 11.9426672062819
52.45 146.2459 12.0932171071225
52.5 129.7867 11.392396587198
52.55 135.1711 11.6263106788009
52.6 154.774 12.4408199086716
52.65 117.5693 10.84293779379
52.7 167.3032 12.9345738236712
52.75 165.296 12.8567492003228
52.8 136.2774 11.6737911579743
52.85 134.6593 11.6042793830552
52.9 148.7581 12.196642980755
52.95 156.7029 12.5181028914129
53 134.3824 11.5923422999841
53.05 158.7905 12.6012102593362
53.1 139.0226 11.7907845370866
53.15 126.831 11.2619270109515
53.2 151.3021 12.3004918600843
53.25 150.5165 12.2685166177497
53.3 134.6907 11.6056322533501
53.35 161.994 12.727686356915
53.4 135.4662 11.6389948019578
53.45 113.4536 10.6514599938224
53.5 157.3916 12.5455808952794
53.55 136.8266 11.6972902845061
53.6 162.5477 12.7494195946325
53.65 146.5191 12.1045074249223
53.7 146.833 12.1174667319535
53.75 159.3064 12.621663915665
53.8 147.4633 12.1434467924062
53.85 155.4316 12.4672210215429
53.9 138.9388 11.7872303786767
53.95 144.3205 12.0133467443506
54 174.4275 13.2071003630623
54.05 152.7466 12.3590695442659
54.1 152.2741 12.3399392218925
54.15 150.964 12.2867408209012
54.2 161.4635 12.7068288726968
54.25 174.6204 13.2144012350163
54.3 114.3111 10.6916369186388
54.35 136.6621 11.6902566267811
54.4 149.1729 12.2136358223094
54.45 132.2507 11.5000304347423
54.5 138.1396 11.7532803931498
54.55 123.5395 11.1148324323851
54.6 147.4091 12.1412149309696
54.65 146.7095 12.1123697103416
54.7 143.7598 11.9899874895681
54.75 147.0017 12.1244257595979
54.8 147.0826 12.1277615411914
54.85 144.3306 12.0137671027867
54.9 151.348 12.3023574976506
54.95 150.1573 12.2538687768394
55 160.9621 12.6870839833273
55.05 139.8101 11.8241321034569
55.1 141.0137 11.8749189470918
55.15 156.3796 12.5051829254913
55.2 132.6571 11.5176863996204
55.25 143.6824 11.9867593618959
55.3 145.4226 12.0591293218043
55.35 153.032 12.3706103325584
55.4 147.227 12.1337133640119
55.45 137.0728 11.7078093595685
55.5 146.1552 12.0894664894693
55.55 139.5742 11.8141525299109
55.6 159.2137 12.6179911237883
55.65 137.4116 11.722269404855
55.7 148.9239 12.203438040159
55.75 156.8929 12.5256896017744
55.8 145.545 12.0642032476248
55.85 148.2266 12.1748347011366
55.9 136.3674 11.6776453105924
55.95 154.2363 12.4191907948948
56 139.8389 11.8253498891153
56.05 151.0926 12.2919729905333
56.1 142.1071 11.9208682569685
56.15 130.9296 11.4424472906804
56.2 147.3778 12.139925864683
56.25 157.7309 12.5590963050691
56.3 126.8708 11.263693887886
56.35 127.0387 11.2711445736447
56.4 114.169 10.6849894712162
56.45 142.0777 11.9196350615277
56.5 138.0185 11.7481275103737
56.55 136.7638 11.6946055940335
56.6 134.3632 11.5915141375059
56.65 163.5867 12.7901016415039
56.7 144.0181 12.0007541429695
56.75 125.6482 11.2092907893408
56.8 137.493 11.7257409147567
56.85 163.5142 12.7872671044285
56.9 154.0336 12.4110273547358
56.95 157.4563 12.5481592275521
57 141.4153 11.8918165138889
57.05 143.961 11.9983748899591
57.1 117.0318 10.8181236820439
57.15 147.4118 12.1413261219687
57.2 137.1903 11.7128263028186
57.25 138.4587 11.7668474962498
57.3 139.5566 11.8134076370876
57.35 144.6211 12.0258513212163
57.4 139.8637 11.8263984373942
57.45 140.4807 11.8524554418061
57.5 131.3181 11.4594109796272
57.55 151.7603 12.3191030517648
57.6 140.2565 11.8429937093625
57.65 166.2395 12.8933897792629
57.7 153.5127 12.3900242130514
57.75 153.7132 12.3981127596098
57.8 123.131 11.0964408708378
57.85 132.6158 11.5158933652583
57.9 147.7692 12.156035537954
57.95 129.6859 11.3879717245873
58 135.5725 11.6435604520267
58.05 153.0562 12.3715884186308
58.1 158.4695 12.5884669439928
58.15 173.1683 13.1593426887516
58.2 149.484 12.2263649544744
58.25 141.3504 11.8890874334408
58.3 155.3155 12.4625639416614
58.35 150.1505 12.2535913103057
58.4 166.4135 12.9001356582014
58.45 151.8046 12.3209009410838
58.5 135.5565 11.6428733566934
58.55 129.8798 11.3964819132924
58.6 144.6356 12.0264541740282
58.65 147.2317 12.1339070377187
58.7 140.1819 11.839843748969
58.75 150.7125 12.2765019447724
58.8 141.8593 11.9104701838341
58.85 156.1469 12.4958753194804
58.9 138.9771 11.7888549062239
58.95 142.5463 11.9392755224092
59 143.6504 11.9854244814274
59.05 149.2518 12.2168653917443
59.1 116.4149 10.7895736709103
59.15 125.1074 11.1851419302573
59.2 119.3573 10.92507665877
59.25 125.8873 11.2199509802851
59.3 157.0717 12.5328249010349
59.35 137.0481 11.7067544605668
59.4 141.6553 11.901903209151
59.45 127.3241 11.2837981194277
59.5 143.6649 11.9860293675595
59.55 136.1272 11.6673561701013
59.6 135.0013 11.6190059815804
59.65 132.3072 11.5024866876689
59.7 142.217 11.9254769296662
59.75 123.1149 11.0957153892843
59.8 153.6236 12.3944987797006
59.85 138.9644 11.7883162495753
59.9 128.9507 11.3556461727195
59.95 124.3215 11.1499551568605
60 142.181 11.9239674605393
60.05 122.9495 11.0882595568466
60.1 140.1046 11.8365788976376
60.15 162.9624 12.765672720229
60.2 122.7391 11.0787679820457
60.25 137.3712 11.7205460623642
60.3 140.0482 11.8341962126711
60.35 129.5256 11.3809314205824
60.4 148.9398 12.2040894785314
60.45 147.7333 12.1545588155227
60.5 147.5857 12.1484855023167
60.55 118.5277 10.8870427573331
60.6 146.7143 12.1125678532671
60.65 135.2715 11.6306276700787
60.7 154.4957 12.4296299220854
60.75 155.426 12.4669964305762
60.8 146.1492 12.0892183370142
60.85 124.3761 11.1524033284311
60.9 140.5078 11.853598609705
60.95 115.5457 10.7492185762501
61 150.7177 12.2767137296591
61.05 144.5444 12.0226619348628
61.1 133.8391 11.5688849938099
61.15 153.7561 12.3998427409383
61.2 143.5189 11.9799373954959
61.25 140.8357 11.8674217924535
61.3 145.8798 12.0780710380425
61.35 140.3336 11.8462483512714
61.4 112.2824 10.5963389904249
61.45 120.0885 10.9584898594651
61.5 135.3273 11.6330262614678
61.55 146.3368 12.0969748284437
61.6 174.7435 13.2190582115369
61.65 148.8429 12.2001188518801
61.7 123.2758 11.1029635683452
61.75 137.2627 11.7159165241137
61.8 145.6048 12.0666813996227
61.85 144.4319 12.0179823597807
61.9 120.0379 10.9561809039464
61.95 153.6069 12.3938250754156
62 152.008 12.3291524445113
62.05 128.7685 11.3476208960293
62.1 137.9991 11.7473018178644
62.15 135.3361 11.6334044887986
62.2 150.9654 12.286797792753
62.25 136.3302 11.676052415093
62.3 136.1247 11.667249033084
62.35 127.542 11.2934494287618
62.4 146.6454 12.1097233659568
62.45 136.154 11.6685046171307
62.5 149.58 12.2302902663837
62.55 155.7442 12.479751600092
62.6 154.6381 12.4353568505291
62.65 147.5069 12.1452418666735
62.7 167.8065 12.9540148216682
62.75 139.7806 11.8228845887964
62.8 140.5432 11.8550917330909
62.85 169.7276 13.0279545593313
62.9 147.2406 12.1342737730776
62.95 139.2225 11.7992584512757
63 130.3115 11.4154062564589
63.05 154.0445 12.4114664725809
63.1 137.7362 11.7361066798151
63.15 113.0503 10.6325114624909
63.2 128.6293 11.3414857933165
63.25 133.9733 11.5746835809883
63.3 149.3238 12.2198117825112
63.35 134.5975 11.6016162667104
63.4 140.9778 11.8734072616078
63.45 133.5267 11.5553753725268
63.5 123.7014 11.1221131085779
63.55 143.8293 11.9928853909307
63.6 124.5066 11.1582525513631
63.65 150.4854 12.2672490803766
63.7 143.1021 11.9625289968301
63.75 131.1591 11.4524713490146
63.8 145.9329 12.0802690367392
63.85 173.9271 13.188142401415
63.9 134.324 11.5898231220325
63.95 154.675 12.4368404347728
64 138.6485 11.7749097661086
64.05 140.2389 11.8422506306867
64.1 130.4103 11.4197329215705
64.15 145.8046 12.0749575568612
64.2 155.6568 12.4762494364292
64.25 161.3024 12.7004881795937
64.3 175.0651 13.2312168752538
64.35 139.9718 11.830967838685
64.4 155.7833 12.4813180393739
64.45 158.3873 12.5852016273082
64.5 140.7394 11.8633637725562
64.55 196.9028 14.03220581377
64.6 228.8264 15.1270089574906
64.65 263.7636 16.2408004728831
64.7 339.1268 18.4153957329187
64.75 438.3853 20.9376526860104
64.8 418.4512 20.4560797808378
64.85 396.428 19.9104997425981
64.9 318.3203 17.8415330058826
64.95 232.0417 15.2329150197853
65 201.4581 14.1935936252945
65.05 152.704 12.3573459933758
65.1 170.6419 13.0629973589525
65.15 145.3125 12.0545634512412
65.2 155.7095 12.4783612706156
65.25 131.531 11.4686965257609
65.3 128.546 11.3378128402263
65.35 142.7778 11.9489664825038
65.4 128.4203 11.3322680871924
65.45 123.2595 11.1022295058245
65.5 133.4364 11.5514674392477
65.55 157.6962 12.5577147602579
65.6 141.6988 11.9037305077022
65.65 150.8527 12.2822107130598
65.7 139.1657 11.7968512748106
65.75 133.3045 11.54575679633
65.8 126.2583 11.2364718662043
65.85 140.0426 11.8339596078405
65.9 136.103 11.6663190424401
65.95 156.0971 12.4938825030492
66 151.6523 12.3147188356048
66.05 130.3073 11.4152222930611
66.1 142.1757 11.9237452170029
66.15 137.2688 11.7161768508332
66.2 125.1464 11.1868851786366
66.25 133.6748 11.5617818695909
66.3 136.6507 11.6897690310801
66.35 147.3073 12.1370218752378
66.4 136.9186 11.7012221583901
66.45 138.463 11.76703021157
66.5 152.2382 12.3384845098578
66.55 148.0813 12.16886601126
66.6 140.0967 11.8362451816444
66.65 132.4901 11.5104343966681
66.7 139.5451 11.8129208919725
66.75 130.361 11.4175741731771
66.8 130.1131 11.4067129358111
66.85 133.1331 11.538331768501
66.9 119.4379 10.9287647975423
66.95 138.2987 11.7600467686145
67 121.5661 11.0257017917228
67.05 146.3341 12.0968632297799
67.1 135.8485 11.6554064708186
67.15 149.517 12.227714422573
67.2 134.1635 11.5828968742711
67.25 128.7061 11.3448710878529
67.3 135.2464 11.6295485724941
67.35 146.661 12.11036745933
67.4 134.1012 11.5802072520314
67.45 130.8434 11.4386799937755
67.5 151.9603 12.3272178531897
67.55 136.5229 11.6843014339754
67.6 149.0469 12.2084765634374
67.65 133.6076 11.5588753778211
67.7 143.9641 11.9985040734252
67.75 145.9168 12.0796026424713
67.8 143.6596 11.985808274789
67.85 134.8158 11.6110206269733
67.9 134.6469 11.6037450851008
67.95 144.811 12.0337442219785
68 138.5631 11.7712828527735
68.05 143.4966 11.9790066366122
68.1 120.5285 10.9785472627302
68.15 152.0907 12.3325058280951
68.2 127.8894 11.3088195670459
68.25 134.1969 11.5843385654944
68.3 140.9163 11.8708171580561
68.35 148.3375 12.1793883261845
68.4 126.4537 11.245163404771
68.45 147.0822 12.1277450500907
68.5 133.3519 11.5478093160564
68.55 145.2155 12.0505394070141
68.6 150.773 12.2789657544925
68.65 120.5686 10.9803733998439
68.7 146.8121 12.1166043097891
68.75 146.0003 12.0830583876765
68.8 135.8936 11.65734103473
68.85 127.1985 11.2782312443042
68.9 143.6793 11.9866300518536
68.95 160.4991 12.6688239391034
69 122.1808 11.0535424186095
69.05 132.5542 11.5132184900661
69.1 136.8577 11.6986195766851
69.15 132.1157 11.4941593864014
69.2 126.4792 11.2462971684017
69.25 131.9641 11.4875628398717
69.3 137.839 11.740485509552
69.35 138.162 11.7542332799719
69.4 140.0911 11.8360086177731
69.45 137.9967 11.7471996663035
69.5 152.5429 12.3508258833165
69.55 151.6211 12.3134519936531
69.6 149.5303 12.2282582570046
69.65 149.6118 12.2315902482057
69.7 143.5298 11.9803923141106
69.75 122.1101 11.0503438860517
69.8 132.638 11.5168572101941
69.85 146.0887 12.0867158484015
69.9 150.2783 12.2588049988569
69.95 154.6249 12.4348260944816
70 135.1179 11.6240225395514
70.05 144.3361 12.0139960046606
70.1 132.8828 11.5274802103495
70.15 136.7401 11.6935922624316
70.2 131.0809 11.4490567297049
70.25 125.2802 11.1928637979741
70.3 142.6612 11.9440864029025
70.35 124.9835 11.179601960714
70.4 125.4919 11.202316724678
70.45 140.6179 11.8582418595675
70.5 139.4699 11.8097375076671
70.55 138.1896 11.7554072664455
70.6 134.4876 11.5968788904601
70.65 125.4628 11.2010178108956
70.7 148.159 12.1720581661443
70.75 147.6658 12.151781762359
70.8 138.2682 11.7587499335601
70.85 126.831 11.2619270109515
70.9 147.3886 12.1403706697942
70.95 145.4424 12.0599502486536
71 153.0803 12.3725623861834
71.05 123.9707 11.1342130390971
71.1 118.1972 10.8718535678145
71.15 140.2113 11.8410852543169
71.2 140.8477 11.8679273674892
71.25 131.4211 11.463904221512
71.3 120.3986 10.9726295845618
71.35 143.4184 11.9757421481927
71.4 133.4246 11.5509566703369
71.45 139.4398 11.8084630668009
71.5 142.6344 11.9429644561139
71.55 117.2572 10.8285363738596
71.6 133.0832 11.5361692081904
71.65 138.0569 11.7497616997112
71.7 122.2345 11.0559712372998
71.75 123.0854 11.0943859676865
71.8 155.0504 12.4519235461835
71.85 147.4217 12.1417338135869
71.9 119.6133 10.9367865481594
71.95 135.0568 11.6213940643969
72 116.3837 10.7881277337636
72.05 144.7987 12.0332331482441
72.1 135.6928 11.6487252521467
72.15 128.4085 11.3317474380609
72.2 135.1374 11.624861289495
72.25 124.2494 11.1467214910932
72.3 145.0358 12.0430810011392
72.35 123.8105 11.1270166711478
72.4 131.5922 11.471364347801
72.45 143.4231 11.975938376595
72.5 143.5415 11.9808806020259
72.55 135.3451 11.6337912994862
72.6 142.2934 11.9286797257702
72.65 140.2424 11.8423984057285
72.7 136.4162 11.6797345860255
72.75 140.7066 11.8619812847601
72.8 148.865 12.2010245471436
72.85 123.2091 11.0999594593854
72.9 125.0401 11.1821330702152
72.95 148.8388 12.199950819573
73 148.747 12.1961879290211
73.05 141.4672 11.8939984866318
73.1 134.184 11.5837817659001
73.15 166.024 12.885030073694
73.2 129.1803 11.3657511850295
73.25 147.6784 12.1523001937905
73.3 122.7988 11.0814619974081
73.35 147.1452 12.1303421221332
73.4 124.4588 11.1561104333007
73.45 143.669 11.9862003987919
73.5 149.6948 12.2349826317817
73.55 142.8404 11.9515856688558
73.6 146.4291 12.1007892304593
73.65 156.2822 12.5012879336491
73.7 149.0948 12.2104381575765
73.75 144.6638 12.0276265322798
73.8 126.3577 11.2408940925533
73.85 121.5492 11.0249353739602
73.9 125.2413 11.1911259487149
73.95 122.0442 11.047361675984
74 155.4526 12.4680632016364
74.05 128.0085 11.3140841432261
74.1 135.3623 11.6345305019154
74.15 145.764 12.0732762744832
74.2 134.4458 11.5950765413601
74.25 125.3672 11.1967495283229
74.3 151.5297 12.3097400459961
74.35 139.715 11.8201099825678
74.4 137.881 11.7422740557355
74.45 120.6989 10.9863051113648
74.5 155.0647 12.4524977414172
74.55 126.9461 11.267035990002
74.6 139.502 11.8110964774656
74.65 132.953 11.5305247061875
74.7 137.6092 11.7306947790828
74.75 128.1943 11.3222921707577
74.8 154.5102 12.4302131920575
74.85 134.514 11.5980170718964
74.9 144.753 12.0313340906152
74.95 141.2516 11.88493163632
75 125.7973 11.215939550479
75.05 144.0281 12.0011707762201
75.1 144.4831 12.0201123122873
75.15 122.2356 11.0560209840611
75.2 137.9682 11.7459865486046
75.25 126.1145 11.2300712375301
75.3 130.6843 11.4317234046315
75.35 140.3651 11.8475778115191
75.4 127.8655 11.307762820293
75.45 133.6283 11.5597707589727
75.5 140.7231 11.8626767636988
75.55 120.8656 10.9938892117394
75.6 151.1469 12.2941815506361
75.65 136.7833 11.6954392820449
75.7 130.0817 11.4053364702669
75.75 137.508 11.7263805157431
75.8 126.4396 11.2445364510948
75.85 152.2506 12.3389869924561
75.9 140.7713 11.8647081717167
75.95 116.6473 10.8003379576752
76 171.3855 13.0914284934838
76.05 146.7068 12.1122582535215
76.1 144.9455 12.0393313767833
76.15 140.1606 11.8389442096836
76.2 133.5555 11.5566214786156
76.25 128.3815 11.3305560322519
76.3 125.6487 11.2093130922461
76.35 141.2076 11.8830804087156
76.4 156.8213 12.5228311495444
76.45 133.971 11.574584225794
76.5 141.0082 11.8746873643056
76.55 143.0099 11.9586746757323
76.6 134.5685 11.6003663735246
76.65 145.2853 12.0534351949973
76.7 136.9372 11.7020169201724
76.75 121.8286 11.0375993766761
76.8 141.5139 11.8959614996015
76.85 141.5621 11.8979872247368
76.9 132.661 11.5178557032114
76.95 127.6215 11.296968619944
77 129.3923 11.3750736261354
77.05 127.487 11.2910141262864
77.1 117.7188 10.8498294917478
77.15 124.7213 11.1678690894906
77.2 131.9204 11.4856606253189
77.25 141.1375 11.880130470664
77.3 157.6186 12.5546246459223
77.35 144.374 12.0155732281069
77.4 158.3685 12.5844546961718
77.45 146.8547 12.1183621005481
77.5 130.415 11.4199387038635
77.55 103.114 10.1545063887911
77.6 146.056 12.0853630479188
77.65 132.9495 11.5303729341249
77.7 147.241 12.1342902553054
77.75 138.1862 11.7552626512554
77.8 132.8572 11.5263697667566
77.85 128.7315 11.3459904812229
77.9 133.2446 11.5431624782812
77.95 141.2685 11.8856425993717
78 123.5095 11.1134828024342
78.05 124.4746 11.156818542936
78.1 143.0379 11.9598453167255
78.15 141.1609 11.8811152675159
78.2 121.5544 11.0251712004848
78.25 116.2399 10.7814609399654
78.3 140.7961 11.8657532419986
78.35 136.6653 11.6903934920943
78.4 131.1488 11.4520216555855
78.45 134.1682 11.5830997578368
78.5 146.8183 12.1168601543469
78.55 146.4571 12.1019461244876
78.6 148.7012 12.1943101485898
78.65 117.2129 10.8264906594889
78.7 131.6045 11.4719004528456
78.75 124.9896 11.1798747756851
78.8 110.5899 10.5161732583673
78.85 131.8393 11.482129593416
78.9 123.5171 11.1138247241892
78.95 137.0325 11.706088159586
79 138.6215 11.7737632046852
79.05 122.9729 11.0893146767508
79.1 111.0055 10.5359147680683
79.15 151.451 12.3065429751819
79.2 149.1006 12.2106756569815
79.25 149.4894 12.226585786719
79.3 150.0703 12.25031836321
79.35 137.5527 11.7282863198338
79.4 128.715 11.3452633288082
79.45 135.9079 11.6579543660112
79.5 137.9803 11.7465016068615
79.55 142.774 11.9488074718777
79.6 125.035 11.1819050255312
79.65 136.0555 11.6642830898431
79.7 123.3774 11.1075379810289
79.75 150.215 12.2562229092
79.8 144.7846 12.0326472565267
79.85 154.1943 12.417499748339
79.9 122.1331 11.0513845286462
79.95 128.6224 11.3411815962888
80 121.3139 11.0142589401194
80.05 134.6074 11.6020429235545
80.1 138.033 11.7487446137875
80.15 132.6173 11.5159584924573
80.2 132.1445 11.4954121283232
80.25 128.192 11.3221906007627
80.3 135.3509 11.6340405706702
80.35 107.2351 10.355438184838
80.4 120.5189 10.9781100377069
80.45 129.1151 11.3628825568163
80.5 137.8522 11.7410476534251
80.55 162.6231 12.7523762491545
80.6 138.3087 11.7604719293062
80.65 130.9449 11.443115834422
80.7 122.4807 11.0670998911187
80.75 140.8497 11.8680116279013
80.8 123.617 11.1183182181479
80.85 124.8985 11.1757997476691
80.9 140.1026 11.8364944134655
80.95 155.3698 12.4647422757151
81 140.7638 11.8643921041071
81.05 141.2198 11.8835937325373
81.1 135.7923 11.6529953230918
81.15 137.488 11.7255277066749
81.2 148.5057 12.1862914785426
81.25 140.3756 11.8480209317843
81.3 128.7014 11.3446639438989
81.35 131.2457 11.4562515684669
81.4 155.5705 12.4727903854751
81.45 146.0047 12.0832404594132
81.5 148.9741 12.2054946642895
81.55 151.5369 12.3100324938645
81.6 153.8766 12.4047007219038
81.65 148.9174 12.2031717188606
81.7 174.1591 13.1969352502769
81.75 210.0964 14.4947024805616
81.8 258.651 16.0826303818747
81.85 310.4229 17.6188223215969
81.9 436.0707 20.882305907155
81.95 617.4335 24.8482091910061
82 824.7693 28.7187969803751
82.05 1018.5795 31.9151923071129
82.1 957.2807 30.9399531350647
82.15 785.2053 28.0215149483392
82.2 567.9339 23.831363788084
82.25 367.883 19.1802763275194
82.3 280.7012 16.7541397869303
82.35 209.9661 14.4902070378584
82.4 204.8404 14.3122465043053
82.45 173.7809 13.1825983781651
82.5 142.8343 11.9513304698682
82.55 138.6199 11.7736952568002
82.6 138.8064 11.7816127928226
82.65 155.6594 12.476353633975
82.7 141.8234 11.9089630111106
82.75 135.0567 11.6213897619863
82.8 140.6346 11.8589459902641
82.85 128.3684 11.3299779346652
82.9 130.2531 11.4128480231711
82.95 125.8363 11.217678012851
83 136.6153 11.6882547884618
83.05 156.948 12.5278888883962
83.1 116.798 10.8073123393377
83.15 112.6228 10.6123889864629
83.2 133.535 11.5557345071614
83.25 135.4427 11.6379852208189
83.3 134.2262 11.5856031349257
83.35 126.6106 11.2521375747011
83.4 151.5902 12.3121972043986
83.45 138.2152 11.7564960766378
83.5 140.3602 11.8473710163901
83.55 148.7031 12.1943880535269
83.6 131.7244 11.4771250755579
83.65 122.3379 11.0606464548868
83.7 138.1332 11.7530081255821
83.75 136.0135 11.6624825830524
83.8 136.802 11.6962387116543
83.85 109.6706 10.4723731789886
83.9 123.2568 11.1021079079605
83.95 136.559 11.6858461396683
84 134.3662 11.5916435417934
84.05 146.757 12.1143303570606
84.1 124.1042 11.1402064612825
84.15 138.2969 11.7599702380576
84.2 134.8915 11.6142800035129
84.25 127.0358 11.2710159258161
84.3 126.5197 11.2480976169306
84.35 122.238 11.0561295216726
84.4 133.7824 11.5664341955505
84.45 138.9999 11.7898218816062
84.5 141.2381 11.8843636766972
84.55 123.1437 11.0970131116441
84.6 129.472 11.3785763608634
84.65 144.0028 12.0001166660995
84.7 130.0198 11.4026225053713
84.75 129.7567 11.3910798434565
84.8 139.4482 11.808818738553
84.85 120.9512 10.9977815944853
84.9 122.709 11.0774094444504
84.95 139.284 11.8018642595143
85 133.2131 11.5417979535253
85.05 140.0345 11.8336173674832
85.1 130.7251 11.4335077732077
85.15 144.6545 12.0272399161237
85.2 154.4986 12.4297465782694
85.25 135.4298 11.6374309879801
85.3 132.4299 11.5078190809553
85.35 133.8314 11.5685521998217
85.4 140.5101 11.8536956262593
85.45 126.5835 11.2509332946205
85.5 164.0815 12.8094301200327
85.55 139.8918 11.8275863979089
85.6 137.8891 11.7426189583074
85.65 118.6833 10.8941865230957
85.7 126.0932 11.2291228508731
85.75 133.5871 11.5579885793333
85.8 136.4276 11.6802226006185
85.85 139.0211 11.7907209279162
85.9 126.8742 11.2638448142719
85.95 122.9499 11.0882775939277
86 150.6634 12.274502026559
86.05 130.3762 11.418239794294
86.1 132.6116 11.5157110071415
86.15 126.5557 11.2496977737182
86.2 125.5094 11.2030977858805
86.25 120.5854 10.9811383745038
86.3 132.5984 11.5151378628308
86.35 129.5599 11.3824382273747
86.4 131.3056 11.4588655633968
86.45 139.3798 11.8059222426713
86.5 154.5272 12.4308969909657
86.55 153.6056 12.3937726298331
86.6 138.9244 11.7866195323341
86.65 131.0682 11.4485020854258
86.7 135.7318 11.6503991347936
86.75 137.7172 11.7352971841364
86.8 125.3029 11.193877791007
86.85 114.9661 10.7222245826134
86.9 141.4967 11.8952385432155
86.95 122.7091 11.0774139581402
87 119.4312 10.9284582627194
87.05 120.236 10.9652177360963
87.1 106.8938 10.3389457876517
87.15 141.3455 11.8888813603299
87.2 121.4627 11.0210117502886
87.25 116.7695 10.8059937071979
87.3 142.4275 11.9342993091342
87.35 135.2928 11.6315433197835
87.4 122.6395 11.0742719851013
87.45 124.5764 11.1613798430122
87.5 150.7568 12.2783060720932
87.55 124.6529 11.1648063126953
87.6 110.5403 10.5138147215937
87.65 138.8811 11.7847825605736
87.7 127.4558 11.289632412085
87.75 129.5857 11.3835714958004
87.8 148.8105 12.198790923694
87.85 132.6474 11.5172653004088
87.9 110.0233 10.4891992068032
87.95 109.5205 10.4652042502762
88 147.481 12.1441755586783
88.05 121.9196 11.0417208803701
88.1 127.7953 11.3046583318559
88.15 161.042 12.6902324643798
88.2 126.4714 11.2459503822487
88.25 145.2163 12.0505726005033
88.3 136.0506 11.6640730450388
88.35 127.1541 11.2762626787425
88.4 122.2991 11.0588923495981
88.45 105.4244 10.2676384821438
88.5 131.0069 11.4458245661901
88.55 128.5155 11.3364677038309
88.6 112.9803 10.6292191622903
88.65 126.8504 11.2627882870984
88.7 133.6487 11.5606530957381
88.75 118.3162 10.8773250388135
88.8 130.555 11.4260666898106
88.85 140.8902 11.8697177725504
88.9 129.4536 11.3777677951345
88.95 124.5537 11.1603628973255
89 157.7179 12.558578741243
89.05 106.2314 10.3068617920296
89.1 130.6445 11.4299825021738
89.15 133.3021 11.5456528615752
89.2 143.268 11.9694611407532
89.25 151.536 12.3099959382609
89.3 139.0248 11.7908778299158
89.35 128.0337 11.3151977446265
89.4 109.0812 10.4441945596585
89.45 103.209 10.1591830380203
89.5 119.1016 10.9133679494462
89.55 132.8093 11.5242917352868
89.6 114.8068 10.7147935117761
89.65 102.9235 10.1451219805382
89.7 123.3552 11.106538614708
89.75 142.5202 11.9381824412261
89.8 124.9934 11.1800447226297
89.85 140.892 11.8697935955096
89.9 142.0538 11.9186324718904
89.95 154.8804 12.4450954194815
90 126.448 11.2449099596217
90.05 127.3744 11.2860267587845
90.1 145.3782 12.0572882523393
90.15 156.7284 12.5191213749208
90.2 123.1083 11.0954179731996
90.25 156.442 12.5076776421524
90.3 135.5714 11.6435132155205
90.35 123.607 11.1178685007514
90.4 132.8046 11.5240878163957
90.45 116.1757 10.7784831957006
90.5 136.4725 11.6821444949119
90.55 130.4276 11.4204903572482
90.6 152.2002 12.3369445163703
90.65 142.2649 11.9274850660145
90.7 146.1959 12.0911496558433
90.75 145.2445 12.0517426125851
90.8 137.4793 11.7251567153706
90.85 141.0341 11.8757778692598
90.9 143.7213 11.9883818757996
90.95 137.6563 11.7327021610539
91 129.8961 11.39719702383
91.05 127.8079 11.3052156105047
91.1 121.2103 11.0095549410501
91.15 127.6975 11.3003318535342
91.2 130.6116 11.4285432142509
91.25 136.8228 11.697127852597
91.3 113.282 10.6434017118589
91.35 112.2787 10.5961644003856
91.4 137.8204 11.7396933520429
91.45 114.3354 10.6927732604783
91.5 132.1095 11.4938896810436
91.55 126.0213 11.2259208976369
91.6 125.2764 11.192694045671
91.65 123.6085 11.1179359595205
91.7 133.4867 11.553644446667
91.75 124.5447 11.1599596773465
91.8 117.799 10.8535247730864
91.85 115.8116 10.7615798096748
91.9 138.3385 11.7617388170287
91.95 129.5718 11.3829609504733
92 123.2324 11.1010089631529
92.05 127.4855 11.2909477015882
92.1 143.0217 11.9591680312637
92.15 119.9436 10.9518765515322
92.2 127.5417 11.2934361467181
92.25 137.2505 11.7153958533205
92.3 134.1751 11.5833976017402
92.35 116.394 10.7886050998264
92.4 135.0964 11.6230976938164
92.45 139.1008 11.7941002200253
92.5 135.6302 11.6460379528834
92.55 145.658 12.0688856154991
92.6 124.5885 11.1619218775263
92.65 135.6698 11.6477379778221
92.7 108.8611 10.4336522847946
92.75 123.6104 11.1180214067072
92.8 134.3749 11.5920188060579
92.85 135.8858 11.6570064767933
92.9 120.8032 10.9910509051683
92.95 161.4462 12.7061481181356
93 136.5202 11.6841858937626
93.05 160.8276 12.6817822091376
93.1 136.5343 11.6847892578343
93.15 143.4096 11.9753747331764
93.2 128.1604 11.3207950250855
93.25 144.1615 12.0067272809871
93.3 126.426 11.2439316966976
93.35 147.7468 12.1551141500193
93.4 150.2906 12.2593066688129
93.45 133.3043 11.5457481351362
93.5 125.7481 11.2137460288701
93.55 134.6269 11.602883262362
93.6 121.6281 11.0285130457374
93.65 118.8852 10.903448995616
93.7 153.3056 12.381663862341
93.75 121.6814 11.0309292446285
93.8 133.3057 11.5458087633565
93.85 142.4515 11.935304771978
93.9 146.93 12.1214685578935
93.95 151.0796 12.2914441787774
94 118.5239 10.8868682365499
94.05 118.9767 10.9076441086057
94.1 128.4953 11.335576738746
94.15 127.8936 11.3090052612951
94.2 126.7983 11.2604751231909
94.25 120.121 10.959972627703
94.3 126.3792 11.2418503814986
94.35 141.4065 11.8914465057873
94.4 130.3751 11.4181916256472
94.45 136.7642 11.6946226959231
94.5 138.3853 11.7637281505482
94.55 136.2385 11.6721249136565
94.6 125.3199 11.1946371089017
94.65 144.5588 12.0232607889873
94.7 126.7371 11.2577573255067
94.75 130.0424 11.4036134624074
94.8 124.3458 11.1510447940989
94.85 123.9983 11.1354523931451
94.9 125.6522 11.2094692113409
94.95 139.2363 11.7998432192975
95 159.3353 12.6228087207246
95.05 131.5487 11.4694681655254
95.1 133.4035 11.5500432899622
95.15 153.3317 12.3827177953792
95.2 132.7037 11.5197091977185
95.25 143.4379 11.9765562663063
95.3 138.2219 11.7567810220315
95.35 135.1467 11.6252612873862
95.4 134.9528 11.616918696453
95.45 130.9615 11.4438411383591
95.5 118.6918 10.8945766324351
95.55 116.424 10.7899953660787
95.6 120.5085 10.9776363576136
95.65 141.0804 11.8777270552913
95.7 133.1481 11.5389817575036
95.75 124.2041 11.1446893182358
95.8 136.6501 11.6897433675851
95.85 133.1359 11.538453102561
95.9 147.2478 12.1345704497522
95.95 149.2235 12.2157071019241
96 150.8127 12.2805822337542
96.05 132.6765 11.5185285518594
96.1 117.1288 10.8226059708372
96.15 148.3714 12.1807799421876
96.2 145.515 12.0629598357949
96.25 136.5196 11.6841602180045
96.3 137.7327 11.7359575663855
96.35 134.608 11.6020687810407
96.4 125.4383 11.1999241068857
96.45 135.7773 11.6523516939715
96.5 133.5788 11.5576295147405
96.55 139.8933 11.8276498088166
96.6 124.7715 11.1701163825629
96.65 117.0484 10.8188908858533
96.7 133.7194 11.5637104771782
96.75 119.2112 10.9183881594309
96.8 126.276 11.2372594523754
96.85 132.4922 11.5105256178856
96.9 126.8224 11.2615451870514
96.95 117.0708 10.819926062594
97 140.6501 11.8595994873351
97.05 154.7922 12.4415513502135
97.1 131.5704 11.4704141163255
97.15 134.7418 11.6078335618667
97.2 125.648 11.2092818681662
97.25 146.273 12.0943375180288
97.3 152.9969 12.3691915661453
97.35 160.6562 12.6750226824255
97.4 118.1128 10.8679712918281
97.45 134.6829 11.6052962047507
97.5 119.6168 10.9369465574263
97.55 117.6667 10.8474282666446
97.6 144.9539 12.0396802283117
97.65 123.7617 11.124823594107
97.7 131.5408 11.4691237677514
97.75 145.7552 12.0729118277241
97.8 120.2521 10.9659518510707
97.85 147.7612 12.1557064788518
97.9 143.3381 11.9723890681852
97.95 143.7817 11.9909007167935
98 148.582 12.1894216433759
98.05 154.3033 12.4218879402448
98.1 148.8894 12.2020244222014
98.15 163.7481 12.7964096527112
98.2 156.6167 12.5146594040749
98.25 202.6273 14.234721634089
98.3 203.4093 14.2621632300293
98.35 257.7484 16.0545445279522
98.4 339.9924 18.4388828294992
98.45 430.0058 20.7365812032746
98.5 542.7525 23.2970491693691
98.55 672.6701 25.9358844075154
98.6 706.2604 26.5755602010569
98.65 651.8857 25.5320524047715
98.7 518.1359 22.7625987092862
98.75 410.8717 20.2699703995837
98.8 300.97 17.348486965727
98.85 238.474 15.4426034074569
98.9 209.3124 14.4676328402403
98.95 177.9341 13.3391941285821
99 149.2217 12.2156334260651
99.05 159.3544 12.6235652650113
99.1 164.5036 12.8258956802244
99.15 164.1914 12.813719210284
99.2 143.3787 11.974084516154
99.25 135.8839 11.6569249804569
99.3 145.1215 12.0466385352927
99.35 126.592 11.2513110347195
99.4 145.4306 12.0594610161483
99.45 128.191 11.3221464396112
99.5 130.8433 11.4386756226409
99.55 147.9254 12.1624586330232
99.6 107.2255 10.3549746498965
99.65 135.5148 11.6410824238986
99.7 147.8906 12.16102791708
99.75 139.1222 11.7950074183953
99.8 130.7796 11.4358908704132
99.85 136.4886 11.6828335603996
99.9 138.5801 11.7720049269443
99.95 133.2712 11.5443146180274
100 131.4222 11.463952198086
100.05 136.7556 11.6942549997851
100.1 140.3958 11.8488733641642
100.15 134.2927 11.5884727207687
100.2 139.7208 11.8203553246085
100.25 137.9632 11.7457737080194
100.3 131.132 11.4512881371486
100.35 150.9299 12.2853530677795
100.4 143.3506 11.9729110912927
100.45 127.6485 11.2981635675892
100.5 132.9496 11.5303772704973
100.55 135.5213 11.6413616042111
100.6 131.4183 11.4637820984176
100.65 113.0596 10.6329487913749
100.7 156.6127 12.514499590475
100.75 128.7817 11.3482025008369
100.8 135.2431 11.6294066916589
100.85 132.0789 11.4925584618918
100.9 144.9655 12.0401619590436
100.95 120.6652 10.9847712766357
101 130.5639 11.4264561435294
101.05 135.2051 11.6277727875978
101.1 130.1716 11.4092769271326
101.15 128.472 11.3345489544137
101.2 138.2583 11.7583289629097
101.25 151.238 12.2978859971948
101.3 124.0341 11.1370597556087
101.35 121.3182 11.0144541399018
101.4 107.3397 10.3604874402704
101.45 107.3015 10.3586437336169
101.5 157.5396 12.5514780006181
101.55 117.1577 10.8239410567501
101.6 111.5702 10.5626795842722
101.65 121.8908 11.0404166588041
101.7 126.4992 11.2471863148078
101.75 152.2983 12.3409197388201
101.8 135.5305 11.6417567402862
101.85 129.5326 11.3812389483746
101.9 143.5976 11.9832216035589
101.95 123.7045 11.1222524697113
102 128.2883 11.326442512987
102.05 141.9837 11.9156913353779
102.1 140.2509 11.8427572802958
102.15 122.0112 11.0458680057296
102.2 137.079 11.7080741371073
102.25 133.8443 11.5691097323865
102.3 127.3334 11.2842102071877
102.35 120.0032 10.9545972084783
102.4 131.2427 11.4561206348397
102.45 131.3078 11.4589615585357
102.5 127.821 11.3057949742599
102.55 109.5929 10.4686627608305
102.6 120.6969 10.9862140885748
102.65 137.6093 11.7306990414041
102.7 133.3615 11.5482249718301
102.75 126.569 11.2502888851798
102.8 132.2245 11.4988912508989
102.85 113.7348 10.664651893053
102.9 145.7093 12.0710107281868
102.95 124.6415 11.1642957682068
103 112.1008 10.5877665255709
103.05 137.7409 11.7363069148689
103.1 125.6688 11.210209632295
103.15 113.5088 10.6540508727901
103.2 128.8064 11.3492907267371
103.25 144.1158 12.0048240303638
103.3 127.5372 11.293236914189
103.35 133.7827 11.5664471641036
103.4 124.1203 11.1409290456407
103.45 133.8346 11.5686905049794
103.5 131.016 11.4462220841638
103.55 126.0361 11.2265800669661
103.6 133.618 11.5593252398226
103.65 128.2296 11.3238509350839
103.7 122.8533 11.0839207864365
103.75 118.55 10.8880668623957
103.8 134.3002 11.5887963136816
103.85 122.7687 11.0801037901276
103.9 176.9459 13.3021013377586
103.95 130.1382 11.4078131120737
104 146.9197 12.1210436844358
104.05 136.7836 11.6954521075502
104.1 137.1143 11.7095815467505
104.15 104.7608 10.2352723461567
104.2 141.2255 11.8838335565591
104.25 119.6778 10.9397349145215
104.3 123.5463 11.115138325725
104.35 130.3196 11.4157610346398
104.4 147.0817 12.1277244361834
104.45 132.9164 11.5289375052517
104.5 160.2706 12.659802526106
104.55 134.6007 11.6017541777095
104.6 146.8279 12.1172562901013
104.65 137.6195 11.7311337900477
104.7 130.44 11.4210332282154
104.75 119.7693 10.9439161180996
104.8 125.9177 11.2213056281344
104.85 136.1045 11.6663833298928
104.9 127.9374 11.310941605366
104.95 159.1414 12.6151258416236
105 125.6012 11.2071941180654
105.05 121.8644 11.0392209870081
105.1 120.0459 10.956545988586
105.15 152.1785 12.3360650127989
105.2 140.9456 11.8720512128275
105.25 137.6897 11.7341254467472
105.3 121.2207 11.0100272479227
105.35 130.0845 11.4054592191634
105.4 109.5727 10.4676979322103
105.45 136.8239 11.6971748725921
105.5 132.1916 11.497460589191
105.55 141.0766 11.8775670909492
105.6 129.4588 11.3779963086652
105.65 163.0012 12.7671923303442
105.7 129.6177 11.3849769433232
105.75 132.5005 11.510886151813
105.8 131.1055 11.4501310036174
105.85 115.9989 10.7702785479299
105.9 132.9797 11.5316824444658
105.95 126.787 11.2599733569845
106 135.232 11.6289294434183
106.05 119.7272 10.9419925059378
106.1 117.6265 10.8455751345883
106.15 120.004 10.9546337227677
106.2 124.0182 11.1363458998003
106.25 141.1208 11.8794275956378
106.3 147.1556 12.1307707916686
106.35 128.6274 11.3414020297316
106.4 134.0303 11.5771455894793
106.45 125.8789 11.2195766408541
106.5 139.6496 11.8173431870281
106.55 126.2379 11.2355640712872
106.6 136.8963 11.7002692276716
106.65 110.633 10.5182222832568
106.7 142.1972 11.9246467452919
106.75 124.1127 11.1405879557589
106.8 125.7846 11.2153733776455
106.85 127.7705 11.3035613856873
106.9 120.5602 10.9799908925281
106.95 119.9005 10.9499086754183
107 153.4293 12.3866581449558
107.05 135.8906 11.6572123597368
107.1 131.4255 11.4640961266033
107.15 122.357 11.0615098426933
107.2 128.9721 11.356588396169
107.25 137.1308 11.7102860767788
107.3 116.6505 10.8004861001716
107.35 118.9253 10.9052877082634
107.4 130.7541 11.4347759051063
107.45 136.551 11.6855038402287
107.5 117.4279 10.8364154589975
107.55 130.2338 11.4120024535574
107.6 129.1788 11.3656851971186
107.65 135.9231 11.658606263186
107.7 146.7386 12.1135709020916
107.75 129.6796 11.3876951135864
107.8 132.1162 11.4941811365577
107.85 123.2786 11.1030896600901
107.9 131.3131 11.4591928162502
107.95 128.2116 11.3230561245628
108 133.6342 11.560025951528
108.05 140.8509 11.8680621838614
108.1 132.4432 11.5083969344127
108.15 146.1097 12.0875845395182
108.2 144.2754 12.0114695187558
108.25 134.2159 11.5851586091862
108.3 138.6993 11.7770666976119
108.35 140.3325 11.8462019229794
108.4 138.5031 11.7687340015823
108.45 119.5895 10.9356984230547
108.5 127.038 11.271113520855
108.55 112.2023 10.5925587088295
108.6 125.8596 11.2187165041283
108.65 104.9667 10.2453257634884
108.7 122.3532 11.0613380745731
108.75 143.338 11.9723848919085
108.8 121.8076 11.0366480418649
108.85 125.0762 11.1837471359111
108.9 116.9593 10.8147723045841
108.95 123.0496 11.0927724217168
109 136.5519 11.6855423494162
109.05 112.7528 10.6185121368297
109.1 109.9342 10.4849511205346
109.15 146.4328 12.1009421120837
109.2 138.7077 11.7774233175173
109.25 119.2719 10.9211675200044
109.3 146.3194 12.0962556189922
109.35 129.2882 11.3704969108654
109.4 119.9569 10.9524837365777
109.45 128.1558 11.3205918573191
109.5 136.0672 11.6647846100989
109.55 117.4666 10.8382009577236
109.6 116.5401 10.795374009269
109.65 127.1382 11.2755576358777
109.7 139.1429 11.7958848756674
109.75 132.0959 11.4932980471229
109.8 114.2263 10.6876704664768
109.85 130.3373 11.4165362522965
109.9 139.514 11.811604463408
109.95 122.4245 11.0645605425611
110 120.0595 10.9571666045561
110.05 111.9643 10.5813184433699
110.1 121.2715 11.0123339942085
110.15 146.9229 12.1211756855513
110.2 126.5924 11.2513288104117
110.25 130.8108 11.4372549154069
110.3 120.0257 10.9556241264476
110.35 124.3914 11.1530892581383
110.4 121.147 11.0066797900184
110.45 143.2212 11.9675060058477
110.5 128.2521 11.3248443697916
110.55 116.4461 10.7910194143093
110.6 119.3428 10.92441302771
110.65 127.7662 11.3033711785467
110.7 133.0067 11.5328530728524
110.75 113.5122 10.6542104353162
110.8 128.413 11.3319459935176
110.85 123.4692 11.1116695415226
110.9 140.6135 11.8580563331433
110.95 130.5639 11.4264561435294
111 133.1421 11.5387217662963
111.05 126.4395 11.24453200449
111.1 138.1986 11.7557900627733
111.15 105.9004 10.2907920006188
111.2 129.3263 11.3721721759741
111.25 148.2228 12.1746786405227
111.3 117.7006 10.8489907364695
111.35 131.5402 11.4690976105359
111.4 129.4003 11.3754252667757
111.45 130.0264 11.4029119088065
111.5 133.9614 11.5741695166435
111.55 120.9654 10.9984271602807
111.6 133.6041 11.5587239780176
111.65 137.4269 11.7229219906984
111.7 134.8927 11.61433166394
111.75 116.478 10.7924973940233
111.8 123.0384 11.0922675770106
111.85 135.6894 11.648579312517
111.9 127.2008 11.2783332101867
111.95 136.5407 11.6850631149344
112 143.1735 11.9655129434555
112.05 136.9013 11.7004828960176
112.1 155.197 12.4578087960925
112.15 138.5018 11.7686787703633
112.2 129.0743 11.3610870958725
112.25 130.289 11.4144207036538
112.3 134.7406 11.6077818725198
112.35 130.1179 11.4069233362901
112.4 118.9691 10.9072957235054
112.45 134.074 11.5790327748046
112.5 126.2447 11.2358666777423
112.55 109.2622 10.4528560690368
112.6 123.1733 11.0983467237242
112.65 124.5249 11.1590725421067
112.7 138.7393 11.7787647909278
112.75 140.3005 11.8448512021047
112.8 114.1005 10.6817835589381
112.85 111.779 10.5725588198884
112.9 125.1831 11.188525372005
112.95 144.0794 12.0033078774145
113 124.3695 11.1521074241598
113.05 139.2671 11.8011482492171
113.1 164.3119 12.8184203394958
113.15 133.5811 11.5577290156847
113.2 142.2458 11.9266843674175
113.25 118.7994 10.8995137506221
113.3 130.8563 11.4392438561297
113.35 130.0446 11.4037099226524
113.4 127.7323 11.3018715264331
113.45 125.7856 11.2154179592202
113.5 111.2618 10.548070913679
113.55 98.0478 9.90190890687245
113.6 130.6459 11.4300437444482
113.65 121.3404 11.0154618604941
113.7 137.8203 11.7396890929871
113.75 159.1236 12.6144203196183
113.8 126.4513 11.2450566917201
113.85 118.022 10.8637930760854
113.9 125.5226 11.2036868931616
113.95 133.6688 11.561522391104
114 136.0353 11.6634171665083
114.05 138.4112 11.7648289405329
114.1 122.4617 11.0662414576947
114.15 129.1793 11.3657071931315
114.2 142.0772 11.9196140877127
114.25 118.7247 10.8960864534015
114.3 127.748 11.30256608032
114.35 113.8464 10.6698828484665
114.4 114.4472 10.6979998130492
114.45 135.1896 11.6271062608028
114.5 140.4198 11.8498860754017
114.55 130.121 11.4070592178703
114.6 131.0806 11.4490436281814
114.65 138.9113 11.7860638043411
114.7 153.3573 12.3837514509942
114.75 129.1215 11.3631641720077
114.8 125.0056 11.1805903243076
114.85 144.692 12.0287987762702
114.9 121.5911 11.0268354481238
114.95 140.8572 11.8683275991186
115 163.6073 12.7909069264067
115.05 129.584 11.3834968265468
115.1 151.2031 12.2964669722648
115.15 140.703 11.8618295384818
115.2 132.538 11.5125149294149
115.25 137.7472 11.7365753096889
115.3 153.4649 12.3880950916596
115.35 176.0459 13.2682289699869
115.4 172.0495 13.1167640826539
115.45 207.0515 14.3892842073537
115.5 227.3461 15.0780005305743
115.55 229.1972 15.1392602197069
115.6 277.9061 16.670515888838
115.65 283.2769 16.830831827334
115.7 313.826 17.7151347722788
115.75 375.0597 19.3664581170642
115.8 347.8966 18.6519864893796
115.85 373.7218 19.3318855779771
115.9 363.0231 19.0531650913962
115.95 343.573 18.5357222680963
116 284.3472 16.8625976646542
116.05 266.0383 16.3106805498728
116.1 244.8122 15.6464756414983
116.15 199.8182 14.1357065617535
116.2 192.2425 13.865154164307
116.25 169.4261 13.0163781444763
116.3 182.5315 13.5104219031087
116.35 151.4215 12.3053443673877
116.4 151.1216 12.2931525655545
116.45 139.5651 11.8137673923266
116.5 124.6364 11.1640673591662
116.55 121.5368 11.0243729980439
116.6 114.885 10.7184420509699
116.65 124.7536 11.1693151088149
116.7 126.7187 11.2569400815675
116.75 138.8945 11.7853510766544
116.8 101.5807 10.0787251177914
116.85 138.3017 11.7601743184359
116.9 119.4281 10.928316430265
116.95 126.9905 11.2690061673601
117 126.0695 11.228067509594
117.05 125.1855 11.1886326242307
117.1 124.1698 11.1431503624424
117.15 127.4433 11.2890787932408
117.2 157.0627 12.5324658387725
117.25 152.9569 12.3675745399007
117.3 134.7697 11.6090352743025
117.35 133.1016 11.536966672397
117.4 152.1974 12.3368310355618
117.45 130.4526 11.4215848287355
117.5 134.7125 11.6065714145048
117.55 130.2593 11.4131196436382
117.6 133.6992 11.5628370221153
117.65 108.3922 10.4111574764769
117.7 119.1671 10.9163684437637
117.75 134.8007 11.610370364463
117.8 112.6121 10.6118848467179
117.85 162.229 12.7369148540767
117.9 150.4453 12.2656145382121
117.95 145.2051 12.0501078833345
118 133.9203 11.5723938750805
118.05 139.9518 11.830122569103
118.1 123.0861 11.0944175151289
118.15 120.6471 10.9839473778783
118.2 125.946 11.2225665513732
118.25 136.8007 11.6961831381011
118.3 114.5798 10.7041954391724
118.35 127.1446 11.2758414320174
118.4 142.2787 11.9280635477851
118.45 126.681 11.2552654344533
118.5 131.6972 11.4759400486409
118.55 101.7332 10.0862877214563
118.6 119.5333 10.9331285549928
118.65 130.0673 11.4047051693588
118.7 113.1854 10.6388627211747
118.75 129.0016 11.3578871274546
118.8 125.4474 11.2003303522709
118.85 108.3745 10.4103073921955
118.9 108.4521 10.4140338005981
118.95 122.6078 11.0728406472775
119 130.0612 11.4044377327425
119.05 139.71 11.8198984767214
119.1 141.2512 11.8849148082769
119.15 149.9813 12.2466852658178
119.2 138.6205 11.7737207373031
119.25 149.5683 12.2298119364118
119.3 115.921 10.7666615067067
119.35 122.1647 11.0528141212996
119.4 135.8233 11.6543253773009
119.45 135.2638 11.6302966428204
119.5 119.0676 10.9118101156499
119.55 123.568 11.116114429062
119.6 121.466 11.0211614632941
119.65 128.296 11.3267824204405
119.7 109.4382 10.4612714332437
119.75 128.6684 11.3432094223813
119.8 130.6965 11.432256995012
119.85 115.7664 10.7594795413161
119.9 118.4616 10.884006615213
119.95 133.6864 11.5622835114868
120 118.8835 10.9033710383532
120.05 126.9248 11.2660907150617
120.1 131.9153 11.4854386072104
120.15 107.0327 10.3456609262048
120.2 137.9316 11.7444284662984
120.25 132.1884 11.4973214271847
120.3 135.5282 11.6416579575248
120.35 129.3629 11.3737812533915
120.4 114.9447 10.7212266089287
120.45 119.4199 10.9279412516722
120.5 126.3009 11.2383673191438
120.55 138.0846 11.7509403879009
120.6 132.1557 11.4958992688697
120.65 151.8999 12.3247677462904
120.7 127.75 11.3026545554573
120.75 134.7637 11.6087768520202
120.8 130.997 11.4453920859008
120.85 134.0774 11.5791795909728
120.9 137.4465 11.7237579299472
120.95 146.1442 12.0890115394105
121 122.5794 11.0715581559237
121.05 121.5677 11.0257743492237
121.1 135.947 11.6596312120067
121.15 133.7597 11.5654528661873
121.2 141.9304 11.9134545787525
121.25 131.2407 11.4560333449235
121.3 129.4311 11.3767789817681
121.35 140.4851 11.8526410558997
121.4 148.3567 12.1801765176043
121.45 140.7523 11.8639074507516
121.5 129.5742 11.3830663707105
121.55 122.909 11.0864331504772
121.6 116.8495 10.809694722794
121.65 136.8849 11.699782049252
121.7 126.6587 11.2542747434031
121.75 113.3543 10.6467976406054
121.8 139.1068 11.794354581748
121.85 125.2211 11.1902234115321
121.9 136.892 11.7000854697733
121.95 108.1006 10.3971438385741
122 133.159 11.5394540598765
122.05 126.4593 11.2454123979514
122.1 119.7638 10.943664834049
122.15 110.7805 10.525231588901
122.2 120.7284 10.98764760993
122.25 141.6197 11.9004075560461
122.3 147.1602 12.1309603906698
122.35 142.5155 11.9379855922178
122.4 135.1415 11.6250376343477
122.45 145.914 12.0794867440633
122.5 142.1016 11.9206375668418
122.55 140.634 11.8589206928793
122.6 113.1972 10.639417277276
122.65 141.3383 11.8885785525436
122.7 136.9717 11.7034909321963
122.75 130.8279 11.4380024479802
122.8 106.6393 10.3266306218437
122.85 110.9951 10.5354212065774
122.9 140.0646 11.8348890996071
122.95 127.6587 11.2986149593656
123 149.8021 12.2393668136877
123.05 140.363 11.8474891854772
123.1 132.7956 11.523697323342
123.15 110.9186 10.5317899713202
123.2 115.326 10.7389943663269
123.25 112.7921 10.6203625173532
123.3 124.7114 11.16742584484
123.35 123.9424 11.1329421088947
123.4 116.2194 10.7805101920085
123.45 118.5299 10.8871437944026
123.5 129.693 11.3882834527421
123.55 124.8374 11.1730658281422
123.6 132.4947 11.5106342136305
123.65 132.3617 11.5048554967023
123.7 146.9087 12.1205899196367
123.75 154.113 12.4142257108529
123.8 120.4633 10.9755774335567
123.85 112.3313 10.5986461399558
123.9 155.3889 12.4655084132177
123.95 142.6278 11.9426881396108
124 130.1737 11.4093689571334
124.05 128.7434 11.3465148834345
124.1 123.2301 11.1009053684823
124.15 119.5744 10.9350080018261
124.2 118.302 10.8766722852167
124.25 138.1419 11.7533782377664
124.3 133.9979 11.5757461962502
124.35 123.608 11.1179134733096
124.4 136.0118 11.6624096995432
124.45 135.5971 11.6446167820156
124.5 147.9495 12.1634493462998
124.55 138.5452 11.7705225032706
124.6 118.1179 10.8682059237024
124.65 139.978 11.8312298599934
124.7 124.0211 11.1364761033282
124.75 124.3853 11.1528157879524
124.8 110.4992 10.5118599686259
124.85 128.6959 11.3444215365967
124.9 128.2099 11.3229810562413
124.95 125.427 11.19941962782
125 131.4381 11.4646456552307
125.05 134.5956 11.6015343812791
125.1 115.2935 10.7374810826376
125.15 113.7307 10.6644596675125
125.2 126.067 11.2279561808906
125.25 133.0356 11.5341059471465
125.3 125.9796 11.2240634353161
125.35 137.6193 11.7311252657194
125.4 125.3506 11.1960082172174
125.45 142.4125 11.9336708518377
125.5 120.8533 10.9933297958353
125.55 130.942 11.4429891199808
125.6 130.592 11.4276856799616
125.65 123.8143 11.1271874254009
125.7 127.3314 11.2841215874343
125.75 133.4976 11.5541161496672
125.8 119.5114 10.932126965966
125.85 129.9763 11.4007148898655
125.9 115.1724 10.7318404758923
125.95 127.1795 11.2773888821837
126 110.9483 10.5331998936695
126.05 124.2547 11.1469592266232
126.1 134.1586 11.5826853535784
126.15 135.8388 11.6549903474864
126.2 134.8511 11.6125406350204
126.25 120.766 10.9893584890111
126.3 118.536 10.8874239377366
126.35 133.6632 11.5612802059288
126.4 129.9991 11.4017147833122
126.45 119.0864 10.9126715335888
126.5 125.7329 11.2130682687657
126.55 144.3537 12.0147284613511
126.6 104.3654 10.2159385276146
126.65 140.0674 11.8350073933226
126.7 118.1947 10.8717385914121
126.75 148.0284 12.1666922374161
126.8 151.3673 12.3031418751472
126.85 126.022 11.2259520754366
126.9 108.9332 10.4371068788242
126.95 138.5188 11.7694010042992
127 131.5216 11.4682867072636
127.05 143.6096 11.9837222931775
127.1 132.999 11.5325192390908
127.15 116.2928 10.7839139462442
127.2 91.1145 9.54539155823374
127.25 126.9085 11.265367282073
127.3 133.3892 11.549424228073
127.35 113.589 10.6578140347822
127.4 133.2801 11.5447000827219
127.45 118.7355 10.8965820329129
127.5 145.8139 12.075342645242
127.55 92.2285 9.60356704563466
127.6 135.6408 11.6464930343859
127.65 103.8802 10.1921636564569
127.7 108.2921 10.4063490235529
127.75 129.7422 11.3904433627493
127.8 132.596 11.5150336517094
127.85 136.6012 11.6876516032948
127.9 126.9577 11.2675507542678
127.95 119.6076 10.9365259566281
128 129.8733 11.3961967339986
128.05 135.0787 11.6223362539551
128.1 115.6277 10.7530321305202
128.15 132.5583 11.513396544895
128.2 120.9512 10.9977815944853
128.25 134.3418 11.5905910116784
128.3 133.2089 11.5416160047023
128.35 123.2457 11.101607991638
128.4 122.8915 11.0856438694376
128.45 123.432 11.109995499549
128.5 132.1469 11.495516517321
128.55 134.0028 11.575957843738
128.6 133.802 11.5672814437965
128.65 151.72 12.3174672721303
128.7 125.9861 11.2243529880345
128.75 134.3351 11.5903019805353
128.8 112.1003 10.5877429133881
128.85 123.5524 11.1154127228817
128.9 135.8986 11.6575554898958
128.95 118.6831 10.8941773438842
129 114.3598 10.6939141571269
129.05 142.7087 11.946074669112
129.1 131.3763 11.4619500958607
129.15 139.1256 11.7951515462922
129.2 119.3682 10.9255754997163
129.25 115.2171 10.7339228616569
129.3 116.9884 10.8161176029109
129.35 150.9229 12.285068172379
129.4 145.3751 12.0571596987018
129.45 131.7475 11.4781313810219
129.5 139.337 11.8041094539148
129.55 146.0992 12.0871502017639
129.6 139.6426 11.8170470084535
129.65 124.3242 11.1500762329233
129.7 118.3377 10.8783132883733
129.75 133.6559 11.5609644926364
129.8 122.0528 11.047750902333
129.85 142.7964 11.9497447671488
129.9 150.5532 12.2700122249328
129.95 118.8913 10.9037287200297
130 97.5161 9.87502405060362
130 97.5161 9.87502405060362
