40 187.722 172.144 15.578
40.05 206.278 172.005 34.273
40.1 159.812 171.867 -12.055
40.15 195.339 171.723 23.616
40.2 208.512 171.579 36.933
40.25 165.329 171.44 -6.111
40.3 180.209 171.301 8.908
40.35 186.947 171.175 15.772
40.4 219.202 171.048 48.154
40.45 180.173 170.934 9.239
40.5 186.307 170.82 15.487
40.55 186.233 170.71 15.523
40.6 185.225 170.599 14.626
40.65 173.828 170.482 3.346
40.7 178.55 170.365 8.185
40.75 153.159 170.234 -17.075
40.8 204.364 170.103 34.261
40.85 182.969 169.962 13.007
40.9 166.139 169.82 -3.681
40.95 171.633 169.679 1.954
41 168.458 169.537 -1.079
41.05 195.77 169.407 26.363
41.1 167.728 169.276 -1.548
41.15 138.755 169.161 -30.406
41.2 151.825 169.046 -17.221
41.25 170.018 168.942 1.076
41.3 167.099 168.838 -1.739
41.35 187.568 168.733 18.835
41.4 169.108 168.628 0.48
41.45 170.357 168.512 1.845
41.5 216.669 168.395 48.274
41.55 188.808 168.265 20.543
41.6 172.457 168.134 4.323
41.65 160.322 167.998 -7.676
41.7 197.219 167.861 29.358
41.75 176.561 167.731 8.83
41.8 174.582 167.602 6.98
41.85 155.065 167.489 -12.424
41.9 158.693 167.377 -8.684
41.95 178.705 167.283 11.422
42 158.982 167.19 -8.208
42.05 176.211 167.105 9.106
42.1 172.319 167.021 5.298
42.15 171.692 166.933 4.759
42.2 182.984 166.846 16.138
42.25 152.296 166.746 -14.45
42.3 136.012 166.647 -30.635
42.35 162.589 166.538 -3.949
42.4 189.603 166.429 23.174
42.45 173.361 166.325 7.036
42.5 184.505 166.22 18.285
42.55 162.371 166.136 -3.765
42.6 156.072 166.052 -9.98
42.65 166.494 165.999 0.495
42.7 152.401 165.946 -13.545
42.75 148.402 165.924 -17.522
42.8 142.199 165.902 -23.703
42.85 176.866 165.904 10.962
42.9 170.674 165.905 4.769
42.95 162.18 165.923 -3.743
43 159.03 165.94 -6.91
43.05 196.434 165.98 30.454
43.1 173.862 166.019 7.843
43.15 161.302 166.108 -4.806
43.2 195.814 166.197 29.617
43.25 164.607 166.415 -1.808
43.3 155.365 166.633 -11.268
43.35 166.618 167.693 -1.075
43.4 158.622 168.753 -10.131
43.45 182.815 170.033 12.782
43.5 200.081 171.313 28.768
43.55 185.232 172.436 12.796
43.6 196.005 173.56 22.445
43.65 153.457 175.18 -21.723
43.7 184.782 176.801 7.981
43.75 201.539 179.298 22.241
43.8 180.552 181.794 -1.242
43.85 198.988 185.88 13.108
43.9 205.4 189.965 15.435
43.95 187.317 197.158 -9.841
44 211.962 204.35 7.612
44.05 217.201 215.822 1.379
44.1 251.089 232.22 18.869
44.15 298.38 256.579 41.801
44.2 305.855 294.728 11.127
44.25 443.218 360.074 83.144
44.3 566.901 485.429 81.472
44.35 826.152 781.558 44.594
44.4 1575.39 1569.58 5.81
44.45 3548.68 3496.97 51.71
44.5 7625.39 7001.69 623.7
44.55 10365.8 10775.2 -409.4
44.6 8709.91 10926.4 -2216.49
44.65 4985.09 5146.94 -161.85
44.7 2090.23 1674.31 415.92
44.75 964.87 780.315 184.555
44.8 608.554 486.714 121.84
44.85 405.476 356.948 48.528
44.9 313.512 287.849 25.663
44.95 297.494 247.925 49.569
45 236.611 222.949 13.662
45.05 226.391 206.487 19.904
45.1 184.887 195.187 -10.3
45.15 224.576 187.171 37.405
45.2 197.697 181.324 16.373
45.25 183.587 177.466 6.121
45.3 210.533 173.607 36.926
45.35 185.541 171.261 14.28
45.4 177.002 168.914 8.088
45.45 181.972 167.373 14.599
45.5 171.007 165.832 5.175
45.55 179.486 164.756 14.73
45.6 195.2 163.681 31.519
45.65 144.242 162.89 -18.648
45.7 182.846 162.1 20.746
45.75 150.899 161.336 -10.437
45.8 146.59 160.573 -13.983
45.85 149.569 160.006 -10.437
45.9 165.795 159.439 6.356
45.95 177.801 159.094 18.707
46 168.031 158.75 9.281
46.05 177.113 158.46 18.653
46.1 172.841 158.171 14.67
46.15 135.56 157.905 -22.345
46.2 176.845 157.638 19.207
46.25 157.4 157.386 0.014
46.3 156.448 157.133 -0.685
46.35 170.571 156.9 13.671
46.4 195.957 156.666 39.291
46.45 158.382 156.46 1.922
46.5 149.876 156.255 -6.379
46.55 155.073 156.081 -1.008
46.6 174.134 155.907 18.227
46.65 166.532 155.757 10.775
46.7 133.919 155.608 -21.689
46.75 156.608 155.469 1.139
46.8 162.199 155.33 6.869
46.85 147.361 155.187 -7.826
46.9 153.486 155.043 -1.557
46.95 164.566 154.888 9.678
47 167.251 154.733 12.518
47.05 165.562 154.571 10.991
47.1 146.965 154.408 -7.443
47.15 160.533 154.25 6.283
47.2 151.251 154.091 -2.84
47.25 162.373 153.948 8.425
47.3 162.371 153.804 8.567
47.35 156.279 153.68 2.599
47.4 173.552 153.556 19.996
47.45 148.321 153.444 -5.123
47.5 154.971 153.333 1.638
47.55 157.984 153.223 4.761
47.6 153.479 153.112 0.367
47.65 176.028 152.992 23.036
47.7 164.181 152.872 11.309
47.75 144.938 152.738 -7.8
47.8 162.833 152.605 10.228
47.85 139.76 152.465 -12.705
47.9 154.302 152.325 1.977
47.95 141.839 152.189 -10.35
48 141.646 152.053 -10.407
48.05 152.962 151.931 1.031
48.1 172.661 151.808 20.853
48.15 153.36 151.701 1.659
48.2 157.617 151.594 6.023
48.25 162.575 151.495 11.08
48.3 165.961 151.395 14.566
48.35 140.974 151.293 -10.319
48.4 156.318 151.191 5.127
48.45 145.707 151.078 -5.371
48.5 164.576 150.965 13.611
48.55 179.031 150.841 28.19
48.6 153.813 150.716 3.097
48.65 136.811 150.588 -13.777
48.7 147.741 150.46 -2.719
48.75 123.393 150.337 -26.944
48.8 163.202 150.215 12.987
48.85 165.484 150.105 15.379
48.9 140.75 149.996 -9.246
48.95 155.025 149.899 5.126
49 145.702 149.801 -4.099
49.05 159.428 149.708 9.72
49.1 150.227 149.616 0.611
49.15 165.348 149.517 15.831
49.2 163.048 149.419 13.629
49.25 161.502 149.311 12.191
49.3 159.183 149.203 9.98
49.35 150.109 149.085 1.024
49.4 166.255 148.968 17.287
49.45 174.658 148.85 25.808
49.5 144.315 148.731 -4.416
49.55 145.173 148.62 -3.447
49.6 140.405 148.509 -8.104
49.65 156.677 148.409 8.268
49.7 156.177 148.309 7.868
49.75 122.521 148.219 -25.698
49.8 155.29 148.128 7.162
49.85 175.63 148.04 27.59
49.9 181.153 147.952 33.201
49.95 165.514 147.857 17.657
50 148.166 147.763 0.403
50.05 160.809 147.659 13.15
50.1 163.122 147.555 15.567
50.15 160.757 147.445 13.312
50.2 161.523 147.335 14.188
50.25 152.918 147.225 5.693
50.3 149.8 147.115 2.685
50.35 133.553 147.014 -13.461
50.4 155.79 146.912 8.878
50.45 149.797 146.822 2.975
50.5 152.055 146.731 5.324
50.55 144.694 146.647 -1.953
50.6 147.167 146.564 0.603
50.65 162.181 146.48 15.701
50.7 153.126 146.396 6.73
50.75 164.622 146.306 18.316
50.8 143.753 146.216 -2.463
50.85 129.759 146.117 -16.358
50.9 162.978 146.018 16.96
50.95 150.644 145.915 4.729
51 167.5 145.812 21.688
51.05 139.694 145.711 -6.017
51.1 158.792 145.611 13.181
51.15 153.697 145.519 8.178
51.2 178.952 145.427 33.525
51.25 145.556 145.345 0.211
51.3 130.118 145.262 -15.144
51.35 157.205 145.185 12.02
51.4 146.083 145.108 0.975
51.45 155.865 145.03 10.835
51.5 146.548 144.951 1.597
51.55 133.243 144.865 -11.622
51.6 158.099 144.78 13.319
51.65 161.208 144.687 16.521
51.7 169.85 144.594 25.256
51.75 152.525 144.499 8.026
51.8 153.948 144.404 9.544
51.85 136.108 144.312 -8.204
51.9 157.51 144.221 13.289
51.95 124.824 144.138 -19.314
52 146.04 144.056 1.984
52.05 158.353 143.982 14.371
52.1 154.488 143.908 10.58
52.15 144.123 143.837 0.286
52.2 156.919 143.767 13.152
52.25 141.143 143.694 -2.551
52.3 155.091 143.621 11.47
52.35 144.758 143.541 1.217
52.4 142.627 143.461 -0.834
52.45 146.246 143.375 2.871
52.5 129.787 143.289 -13.502
52.55 135.171 143.202 -8.031
52.6 154.774 143.115 11.659
52.65 117.569 143.033 -25.464
52.7 167.303 142.951 24.352
52.75 165.296 142.878 22.418
52.8 136.277 142.805 -6.528
52.85 134.659 142.739 -8.08
52.9 148.758 142.673 6.085
52.95 156.703 142.61 14.093
53 134.382 142.546 -8.164
53.05 158.791 142.479 16.312
53.1 139.023 142.413 -3.39
53.15 126.831 142.339 -15.508
53.2 151.302 142.266 9.036
53.25 150.517 142.188 8.329
53.3 134.691 142.109 -7.418
53.35 161.994 142.031 19.963
53.4 135.466 141.953 -6.487
53.45 113.454 141.881 -28.427
53.5 157.392 141.809 15.583
53.55 136.827 141.745 -4.918
53.6 162.548 141.681 20.867
53.65 146.519 141.624 4.895
53.7 146.833 141.566 5.267
53.75 159.306 141.51 17.796
53.8 147.463 141.454 6.009
53.85 155.432 141.394 14.038
53.9 138.939 141.334 -2.395
53.95 144.321 141.268 3.053
54 174.428 141.202 33.226
54.05 152.747 141.133 11.614
54.1 152.274 141.063 11.211
54.15 150.964 140.994 9.97
54.2 161.464 140.926 20.538
54.25 174.62 140.863 33.757
54.3 114.311 140.801 -26.49
54.35 136.662 140.747 -4.085
54.4 149.173 140.692 8.481
54.45 132.251 140.644 -8.393
54.5 138.14 140.595 -2.455
54.55 123.54 140.547 -17.007
54.6 147.409 140.499 6.91
54.65 146.709 140.447 6.262
54.7 143.76 140.394 3.366
54.75 147.002 140.337 6.665
54.8 147.083 140.279 6.804
54.85 144.331 140.218 4.113
54.9 151.348 140.156 11.192
54.95 150.157 140.097 10.06
55 160.962 140.037 20.925
55.05 139.81 139.984 -0.174
55.1 141.014 139.931 1.083
55.15 156.38 139.885 16.495
55.2 132.657 139.839 -7.182
55.25 143.682 139.797 3.885
55.3 145.423 139.756 5.667
55.35 153.032 139.714 13.318
55.4 147.227 139.672 7.555
55.45 137.073 139.625 -2.552
55.5 146.155 139.578 6.577
55.55 139.574 139.526 0.048
55.6 159.214 139.474 19.74
55.65 137.412 139.419 -2.007
55.7 148.924 139.364 9.56
55.75 156.893 139.312 17.581
55.8 145.545 139.259 6.286
55.85 148.227 139.212 9.015
55.9 136.367 139.166 -2.799
55.95 154.236 139.126 15.11
56 139.839 139.086 0.753
56.05 151.093 139.05 12.043
56.1 142.107 139.015 3.092
56.15 130.93 138.978 -8.048
56.2 147.378 138.941 8.437
56.25 157.731 138.9 18.831
56.3 126.871 138.858 -11.987
56.35 127.039 138.811 -11.772
56.4 114.169 138.765 -24.596
56.45 142.078 138.716 3.362
56.5 138.018 138.667 -0.649
56.55 136.764 138.62 -1.856
56.6 134.363 138.574 -4.211
56.65 163.587 138.533 25.054
56.7 144.018 138.493 5.525
56.75 125.648 138.459 -12.811
56.8 137.493 138.425 -0.932
56.85 163.514 138.394 25.12
56.9 154.034 138.364 15.67
56.95 157.456 138.332 19.124
57 141.415 138.3 3.115
57.05 143.961 138.264 5.697
57.1 117.032 138.227 -21.195
57.15 147.412 138.186 9.226
57.2 137.19 138.144 -0.954
57.25 138.459 138.101 0.358
57.3 139.557 138.057 1.5
57.35 144.621 138.016 6.605
57.4 139.864 137.976 1.888
57.45 140.481 137.941 2.54
57.5 131.318 137.906 -6.588
57.55 151.76 137.877 13.883
57.6 140.256 137.848 2.408
57.65 166.239 137.823 28.416
57.7 153.513 137.797 15.716
57.75 153.713 137.77 15.943
57.8 123.131 137.743 -14.612
57.85 132.616 137.711 -5.095
57.9 147.769 137.679 10.09
57.95 129.686 137.643 -7.957
58 135.572 137.606 -2.034
58.05 153.056 137.568 15.488
58.1 158.47 137.53 20.94
58.15 173.168 137.494 35.674
58.2 149.484 137.458 12.026
58.25 141.35 137.428 3.922
58.3 155.315 137.399 17.916
58.35 150.15 137.375 12.775
58.4 166.413 137.351 29.062
58.45 151.805 137.33 14.475
58.5 135.556 137.308 -1.752
58.55 129.88 137.286 -7.406
58.6 144.636 137.263 7.373
58.65 147.232 137.236 9.996
58.7 140.182 137.209 2.973
58.75 150.713 137.177 13.536
58.8 141.859 137.145 4.714
58.85 156.147 137.112 19.035
58.9 138.977 137.078 1.899
58.95 142.546 137.047 5.499
59 143.65 137.016 6.634
59.05 149.252 136.99 12.262
59.1 116.415 136.965 -20.55
59.15 125.107 136.945 -11.838
59.2 119.357 136.926 -17.569
59.25 125.887 136.909 -11.022
59.3 157.072 136.892 20.18
59.35 137.048 136.873 0.175
59.4 141.655 136.855 4.8
59.45 127.324 136.832 -9.508
59.5 143.665 136.81 6.855
59.55 136.127 136.782 -0.655
59.6 135.001 136.755 -1.754
59.65 132.307 136.725 -4.418
59.7 142.217 136.696 5.521
59.75 123.115 136.669 -13.554
59.8 153.624 136.642 16.982
59.85 138.964 136.62 2.344
59.9 128.951 136.599 -7.648
59.95 124.322 136.577 -12.255
60 142.181 136.555 5.626
60.05 122.95 136.534 -13.584
60.1 140.105 136.513 3.592
60.15 162.962 136.493 26.469
60.2 122.739 136.473 -13.734
60.25 137.371 136.455 0.916
60.3 140.048 136.436 3.612
60.35 129.526 136.418 -6.892
60.4 148.94 136.401 12.539
60.45 147.733 136.383 11.35
60.5 147.586 136.366 11.22
60.55 118.528 136.349 -17.821
60.6 146.714 136.331 10.383
60.65 135.272 136.314 -1.042
60.7 154.496 136.296 18.2
60.75 155.426 136.278 19.148
60.8 146.149 136.26 9.889
60.85 124.376 136.243 -11.867
60.9 140.508 136.225 4.283
60.95 115.546 136.209 -20.663
61 150.718 136.192 14.526
61.05 144.544 136.177 8.367
61.1 133.839 136.162 -2.323
61.15 153.756 136.148 17.608
61.2 143.519 136.134 7.385
61.25 140.836 136.121 4.715
61.3 145.88 136.107 9.773
61.35 140.334 136.094 4.24
61.4 112.282 136.08 -23.798
61.45 120.088 136.066 -15.978
61.5 135.327 136.052 -0.725
61.55 146.337 136.038 10.299
61.6 174.744 136.024 38.72
61.65 148.843 136.01 12.833
61.7 123.276 135.996 -12.72
61.75 137.263 135.983 1.28
61.8 145.605 135.97 9.635
61.85 144.432 135.958 8.474
61.9 120.038 135.947 -15.909
61.95 153.607 135.937 17.67
62 152.008 135.927 16.081
62.05 128.768 135.917 -7.149
62.1 137.999 135.908 2.091
62.15 135.336 135.899 -0.563
62.2 150.965 135.89 15.075
62.25 136.33 135.88 0.45
62.3 136.125 135.871 0.254
62.35 127.542 135.861 -8.319
62.4 146.645 135.851 10.794
62.45 136.154 135.842 0.312
62.5 149.58 135.832 13.748
62.55 155.744 135.824 19.92
62.6 154.638 135.816 18.822
62.65 147.507 135.81 11.697
62.7 167.806 135.803 32.003
62.75 139.781 135.8 3.981
62.8 140.543 135.796 4.747
62.85 169.728 135.794 33.934
62.9 147.241 135.792 11.449
62.95 139.222 135.792 3.43
63 130.311 135.791 -5.48
63.05 154.044 135.792 18.252
63.1 137.736 135.793 1.943
63.15 113.05 135.797 -22.747
63.2 128.629 135.8 -7.171
63.25 133.973 135.807 -1.834
63.3 149.324 135.814 13.51
63.35 134.597 135.829 -1.232
63.4 140.978 135.844 5.134
63.45 133.527 135.877 -2.35
63.5 123.701 135.91 -12.209
63.55 143.829 135.996 7.833
63.6 124.507 136.081 -11.574
63.65 150.485 136.181 14.304
63.7 143.102 136.281 6.821
63.75 131.159 136.386 -5.227
63.8 145.933 136.492 9.441
63.85 173.927 136.639 37.288
63.9 134.324 136.786 -2.462
63.95 154.675 137.009 17.666
64 138.649 137.233 1.416
64.05 140.239 137.593 2.646
64.1 130.41 137.953 -7.543
64.15 145.805 138.57 7.235
64.2 155.657 139.188 16.469
64.25 161.302 140.334 20.968
64.3 175.065 141.48 33.585
64.35 139.972 143.853 -3.881
64.4 155.783 146.227 9.556
64.45 158.387 152.079 6.308
64.5 140.739 157.931 -17.192
64.55 196.903 170.968 25.935
64.6 228.826 196.184 32.642
64.65 263.764 245.673 18.091
64.7 339.127 330.142 8.985
64.75 438.385 428.884 9.501
64.8 418.451 471.572 -53.121
64.85 396.428 402.275 -5.847
64.9 318.32 290.105 28.215
64.95 232.042 217.494 14.548
65 201.458 179.046 22.412
65.05 152.704 165.657 -12.953
65.1 170.642 152.268 18.374
65.15 145.312 147.929 -2.617
65.2 155.709 143.589 12.12
65.25 131.531 141.772 -10.241
65.3 128.546 139.954 -11.408
65.35 142.778 139.065 3.713
65.4 128.42 138.176 -9.756
65.45 123.26 137.692 -14.432
65.5 133.436 137.208 -3.772
65.55 157.696 136.923 20.773
65.6 141.699 136.638 5.061
65.65 150.853 136.459 14.394
65.7 139.166 136.28 2.886
65.75 133.304 136.161 -2.857
65.8 126.258 136.043 -9.785
65.85 140.043 135.958 4.085
65.9 136.103 135.873 0.23
65.95 156.097 135.796 20.301
66 151.652 135.72 15.932
66.05 130.307 135.662 -5.355
66.1 142.176 135.605 6.571
66.15 137.269 135.573 1.696
66.2 125.146 135.54 -10.394
66.25 133.675 135.517 -1.842
66.3 136.651 135.494 1.157
66.35 147.307 135.476 11.831
66.4 136.919 135.457 1.462
66.45 138.463 135.442 3.021
66.5 152.238 135.426 16.812
66.55 148.081 135.413 12.668
66.6 140.097 135.4 4.697
66.65 132.49 135.389 -2.899
66.7 139.545 135.379 4.166
66.75 130.361 135.37 -5.009
66.8 130.113 135.362 -5.249
66.85 133.133 135.356 -2.223
66.9 119.438 135.35 -15.912
66.95 138.299 135.344 2.955
67 121.566 135.339 -13.773
67.05 146.334 135.333 11.001
67.1 135.849 135.328 0.521
67.15 149.517 135.322 14.195
67.2 134.163 135.316 -1.153
67.25 128.706 135.31 -6.604
67.3 135.246 135.305 -0.059
67.35 146.661 135.299 11.362
67.4 134.101 135.293 -1.192
67.45 130.843 135.289 -4.446
67.5 151.96 135.284 16.676
67.55 136.523 135.28 1.243
67.6 149.047 135.277 13.77
67.65 133.608 135.274 -1.666
67.7 143.964 135.271 8.693
67.75 145.917 135.269 10.648
67.8 143.66 135.266 8.394
67.85 134.816 135.263 -0.447
67.9 134.647 135.26 -0.613
67.95 144.811 135.257 9.554
68 138.563 135.253 3.31
68.05 143.497 135.249 8.248
68.1 120.528 135.245 -14.717
68.15 152.091 135.241 16.85
68.2 127.889 135.236 -7.347
68.25 134.197 135.233 -1.036
68.3 140.916 135.229 5.687
68.35 148.338 135.226 13.112
68.4 126.454 135.223 -8.769
68.45 147.082 135.221 11.861
68.5 133.352 135.219 -1.867
68.55 145.215 135.217 9.998
68.6 150.773 135.215 15.558
68.65 120.569 135.213 -14.644
68.7 146.812 135.21 11.602
68.75 146 135.207 10.793
68.8 135.894 135.204 0.69
68.85 127.198 135.2 -8.002
68.9 143.679 135.196 8.483
68.95 160.499 135.192 25.307
69 122.181 135.187 -13.006
69.05 132.554 135.183 -2.629
69.1 136.858 135.179 1.679
69.15 132.116 135.176 -3.06
69.2 126.479 135.173 -8.694
69.25 131.964 135.17 -3.206
69.3 137.839 135.168 2.671
69.35 138.162 135.166 2.996
69.4 140.091 135.164 4.927
69.45 137.997 135.161 2.836
69.5 152.543 135.159 17.384
69.55 151.621 135.155 16.466
69.6 149.53 135.152 14.378
69.65 149.612 135.148 14.464
69.7 143.53 135.143 8.387
69.75 122.11 135.138 -13.028
69.8 132.638 135.133 -2.495
69.85 146.089 135.128 10.961
69.9 150.278 135.123 15.155
69.95 154.625 135.119 19.506
70 135.118 135.114 0.004
70.05 144.336 135.111 9.225
70.1 132.883 135.107 -2.224
70.15 136.74 135.104 1.636
70.2 131.081 135.101 -4.02
70.25 125.28 135.098 -9.818
70.3 142.661 135.095 7.566
70.35 124.984 135.091 -10.107
70.4 125.492 135.088 -9.596
70.45 140.618 135.083 5.535
70.5 139.47 135.078 4.392
70.55 138.19 135.071 3.119
70.6 134.488 135.065 -0.577
70.65 125.463 135.059 -9.596
70.7 148.159 135.052 13.107
70.75 147.666 135.046 12.62
70.8 138.268 135.04 3.228
70.85 126.831 135.035 -8.204
70.9 147.389 135.03 12.359
70.95 145.442 135.025 10.417
71 153.08 135.021 18.059
71.05 123.971 135.017 -11.046
71.1 118.197 135.013 -16.816
71.15 140.211 135.008 5.203
71.2 140.848 135.003 5.845
71.25 131.421 134.997 -3.576
71.3 120.399 134.991 -14.592
71.35 143.418 134.984 8.434
71.4 133.425 134.977 -1.552
71.45 139.44 134.969 4.471
71.5 142.634 134.961 7.673
71.55 117.257 134.952 -17.695
71.6 133.083 134.944 -1.861
71.65 138.057 134.937 3.12
71.7 122.234 134.929 -12.695
71.75 123.085 134.923 -11.838
71.8 155.05 134.916 20.134
71.85 147.422 134.91 12.512
71.9 119.613 134.904 -15.291
71.95 135.057 134.898 0.159
72 116.384 134.892 -18.508
72.05 144.799 134.885 9.914
72.1 135.693 134.878 0.815
72.15 128.409 134.87 -6.461
72.2 135.137 134.861 0.276
72.25 124.249 134.851 -10.602
72.3 145.036 134.841 10.195
72.35 123.811 134.831 -11.02
72.4 131.592 134.82 -3.228
72.45 143.423 134.81 8.613
72.5 143.542 134.8 8.742
72.55 135.345 134.79 0.555
72.6 142.293 134.781 7.512
72.65 140.242 134.772 5.47
72.7 136.416 134.764 1.652
72.75 140.707 134.756 5.951
72.8 148.865 134.748 14.117
72.85 123.209 134.739 -11.53
72.9 125.04 134.731 -9.691
72.95 148.839 134.721 14.118
73 148.747 134.711 14.036
73.05 141.467 134.699 6.768
73.1 134.184 134.688 -0.504
73.15 166.024 134.675 31.349
73.2 129.18 134.662 -5.482
73.25 147.678 134.648 13.03
73.3 122.799 134.635 -11.836
73.35 147.145 134.622 12.523
73.4 124.459 134.609 -10.15
73.45 143.669 134.598 9.071
73.5 149.695 134.586 15.109
73.55 142.84 134.576 8.264
73.6 146.429 134.566 11.863
73.65 156.282 134.556 21.726
73.7 149.095 134.546 14.549
73.75 144.664 134.536 10.128
73.8 126.358 134.525 -8.167
73.85 121.549 134.514 -12.965
73.9 125.241 134.502 -9.261
73.95 122.044 134.489 -12.445
74 155.453 134.476 20.977
74.05 128.008 134.462 -6.454
74.1 135.362 134.448 0.914
74.15 145.764 134.434 11.33
74.2 134.446 134.42 0.026
74.25 125.367 134.408 -9.041
74.3 151.53 134.395 17.135
74.35 139.715 134.385 5.33
74.4 137.881 134.374 3.507
74.45 120.699 134.364 -13.665
74.5 155.065 134.355 20.71
74.55 126.946 134.345 -7.399
74.6 139.502 134.336 5.166
74.65 132.953 134.326 -1.373
74.7 137.609 134.316 3.293
74.75 128.194 134.304 -6.11
74.8 154.51 134.293 20.217
74.85 134.514 134.279 0.235
74.9 144.753 134.266 10.487
74.95 141.252 134.252 7
75 125.797 134.238 -8.441
75.05 144.028 134.225 9.803
75.1 144.483 134.212 10.271
75.15 122.236 134.2 -11.964
75.2 137.968 134.188 3.78
75.25 126.115 134.178 -8.063
75.3 130.684 134.168 -3.484
75.35 140.365 134.159 6.206
75.4 127.865 134.151 -6.286
75.45 133.628 134.142 -0.514
75.5 140.723 134.133 6.59
75.55 120.866 134.124 -13.258
75.6 151.147 134.114 17.033
75.65 136.783 134.102 2.681
75.7 130.082 134.091 -4.009
75.75 137.508 134.077 3.431
75.8 126.44 134.064 -7.624
75.85 152.251 134.051 18.2
75.9 140.771 134.037 6.734
75.95 116.647 134.024 -17.377
76 171.386 134.011 37.375
76.05 146.707 134 12.707
76.1 144.946 133.989 10.957
76.15 140.161 133.98 6.181
76.2 133.555 133.971 -0.416
76.25 128.381 133.963 -5.582
76.3 125.649 133.955 -8.306
76.35 141.208 133.947 7.261
76.4 156.821 133.939 22.882
76.45 133.971 133.93 0.041
76.5 141.008 133.921 7.087
76.55 143.01 133.909 9.101
76.6 134.569 133.898 0.671
76.65 145.285 133.885 11.4
76.7 136.937 133.872 3.065
76.75 121.829 133.859 -12.03
76.8 141.514 133.846 7.668
76.85 141.562 133.833 7.729
76.9 132.661 133.821 -1.16
76.95 127.621 133.81 -6.189
77 129.392 133.8 -4.408
77.05 127.487 133.792 -6.305
77.1 117.719 133.784 -16.065
77.15 124.721 133.777 -9.056
77.2 131.92 133.771 -1.851
77.25 141.137 133.764 7.373
77.3 157.619 133.757 23.862
77.35 144.374 133.749 10.625
77.4 158.369 133.741 24.628
77.45 146.855 133.73 13.125
77.5 130.415 133.72 -3.305
77.55 103.114 133.707 -30.593
77.6 146.056 133.695 12.361
77.65 132.95 133.682 -0.732
77.7 147.241 133.669 13.572
77.75 138.186 133.658 4.528
77.8 132.857 133.646 -0.789
77.85 128.732 133.637 -4.905
77.9 133.245 133.628 -0.383
77.95 141.268 133.621 7.647
78 123.51 133.614 -10.104
78.05 124.475 133.61 -9.135
78.1 143.038 133.605 9.433
78.15 141.161 133.6 7.561
78.2 121.554 133.596 -12.042
78.25 116.24 133.589 -17.349
78.3 140.796 133.583 7.213
78.35 136.665 133.575 3.09
78.4 131.149 133.566 -2.417
78.45 134.168 133.556 0.612
78.5 146.818 133.545 13.273
78.55 146.457 133.534 12.923
78.6 148.701 133.523 15.178
78.65 117.213 133.514 -16.301
78.7 131.605 133.504 -1.899
78.75 124.99 133.497 -8.507
78.8 110.59 133.49 -22.9
78.85 131.839 133.487 -1.648
78.9 123.517 133.484 -9.967
78.95 137.032 133.483 3.549
79 138.621 133.482 5.139
79.05 122.973 133.483 -10.51
79.1 111.005 133.483 -22.478
79.15 151.451 133.483 17.968
79.2 149.101 133.482 15.619
79.25 149.489 133.48 16.009
79.3 150.07 133.478 16.592
79.35 137.553 133.473 4.08
79.4 128.715 133.468 -4.753
79.45 135.908 133.465 2.443
79.5 137.98 133.463 4.517
79.55 142.774 133.463 9.311
79.6 125.035 133.463 -8.428
79.65 136.055 133.467 2.588
79.7 123.377 133.472 -10.095
79.75 150.215 133.481 16.734
79.8 144.785 133.491 11.294
79.85 154.194 133.506 20.688
79.9 122.133 133.521 -11.388
79.95 128.622 133.541 -4.919
80 121.314 133.56 -12.246
80.05 134.607 133.584 1.023
80.1 138.033 133.607 4.426
80.15 132.617 133.636 -1.019
80.2 132.144 133.664 -1.52
80.25 128.192 133.7 -5.508
80.3 135.351 133.736 1.615
80.35 107.235 133.783 -26.548
80.4 120.519 133.83 -13.311
80.45 129.115 133.897 -4.782
80.5 137.852 133.963 3.889
80.55 162.623 134.058 28.565
80.6 138.309 134.154 4.155
80.65 130.945 134.296 -3.351
80.7 122.481 134.438 -11.957
80.75 140.85 134.665 6.185
80.8 123.617 134.892 -11.275
80.85 124.898 135.286 -10.388
80.9 140.103 135.68 4.423
80.95 155.37 136.205 19.165
81 140.764 136.73 4.034
81.05 141.22 137.359 3.861
81.1 135.792 137.988 -2.196
81.15 137.488 138.874 -1.386
81.2 148.506 139.759 8.747
81.25 140.376 141.113 -0.737
81.3 128.701 142.466 -13.765
81.35 131.246 144.658 -13.412
81.4 155.571 146.85 8.721
81.45 146.005 150.621 -4.616
81.5 148.974 154.392 -5.418
81.55 151.537 161.389 -9.852
81.6 153.877 168.386 -14.509
81.65 148.917 182.784 -33.867
81.7 174.159 197.181 -23.022
81.75 210.096 224.368 -14.272
81.8 258.651 265.708 -7.057
81.85 310.423 337.168 -26.745
81.9 436.071 455.474 -19.403
81.95 617.433 644.315 -26.882
82 824.769 884.665 -59.896
82.05 1018.58 1071.31 -52.73
82.1 957.281 1063.51 -106.229
82.15 785.205 858.357 -73.152
82.2 567.934 608.609 -40.675
82.25 367.883 425.881 -57.998
82.3 280.701 314.946 -34.245
82.35 209.966 252.733 -42.767
82.4 204.84 213.488 -8.648
82.45 173.781 189.88 -16.099
82.5 142.834 174.488 -31.654
82.55 138.62 165.629 -27.009
82.6 138.806 156.77 -17.964
82.65 155.659 152.227 3.432
82.7 141.823 147.683 -5.86
82.75 135.057 145.14 -10.083
82.8 140.635 142.597 -1.962
82.85 128.368 141.077 -12.709
82.9 130.253 139.556 -9.303
82.95 125.836 138.593 -12.757
83 136.615 137.631 -1.016
83.05 156.948 136.985 19.963
83.1 116.798 136.34 -19.542
83.15 112.623 135.867 -23.244
83.2 133.535 135.394 -1.859
83.25 135.443 135.011 0.432
83.3 134.226 134.627 -0.401
83.35 126.611 134.364 -7.753
83.4 151.59 134.101 17.489
83.45 138.215 133.927 4.288
83.5 140.36 133.753 6.607
83.55 148.703 133.629 15.074
83.6 131.724 133.505 -1.781
83.65 122.338 133.413 -11.075
83.7 138.133 133.321 4.812
83.75 136.013 133.25 2.763
83.8 136.802 133.18 3.622
83.85 109.671 133.123 -23.452
83.9 123.257 133.067 -9.81
83.95 136.559 133.019 3.54
84 134.366 132.971 1.395
84.05 146.757 132.929 13.828
84.1 124.104 132.887 -8.783
84.15 138.297 132.849 5.448
84.2 134.892 132.81 2.082
84.25 127.036 132.776 -5.74
84.3 126.52 132.741 -6.221
84.35 122.238 132.711 -10.473
84.4 133.782 132.681 1.101
84.45 139 132.656 6.344
84.5 141.238 132.63 8.608
84.55 123.144 132.61 -9.466
84.6 129.472 132.589 -3.117
84.65 144.003 132.573 11.43
84.7 130.02 132.557 -2.537
84.75 129.757 132.543 -2.786
84.8 139.448 132.529 6.919
84.85 120.951 132.516 -11.565
84.9 122.709 132.503 -9.794
84.95 139.284 132.489 6.795
85 133.213 132.476 0.737
85.05 140.035 132.461 7.574
85.1 130.725 132.446 -1.721
85.15 144.655 132.431 12.224
85.2 154.499 132.415 22.084
85.25 135.43 132.399 3.031
85.3 132.43 132.383 0.047
85.35 133.831 132.369 1.462
85.4 140.51 132.355 8.155
85.45 126.584 132.343 -5.759
85.5 164.082 132.331 31.751
85.55 139.892 132.321 7.571
85.6 137.889 132.311 5.578
85.65 118.683 132.304 -13.621
85.7 126.093 132.296 -6.203
85.75 133.587 132.29 1.297
85.8 136.428 132.283 4.145
85.85 139.021 132.276 6.745
85.9 126.874 132.269 -5.395
85.95 122.95 132.261 -9.311
86 150.663 132.252 18.411
86.05 130.376 132.242 -1.866
86.1 132.612 132.232 0.38
86.15 126.556 132.221 -5.665
86.2 125.509 132.21 -6.701
86.25 120.585 132.199 -11.614
86.3 132.598 132.188 0.41
86.35 129.56 132.177 -2.617
86.4 131.306 132.167 -0.861
86.45 139.38 132.159 7.221
86.5 154.527 132.15 22.377
86.55 153.606 132.143 21.463
86.6 138.924 132.137 6.787
86.65 131.068 132.132 -1.064
86.7 135.732 132.126 3.606
86.75 137.717 132.121 5.596
86.8 125.303 132.117 -6.814
86.85 114.966 132.111 -17.145
86.9 141.497 132.106 9.391
86.95 122.709 132.099 -9.39
87 119.431 132.093 -12.662
87.05 120.236 132.084 -11.848
87.1 106.894 132.076 -25.182
87.15 141.345 132.067 9.278
87.2 121.463 132.058 -10.595
87.25 116.769 132.049 -15.28
87.3 142.428 132.039 10.389
87.35 135.293 132.031 3.262
87.4 122.639 132.023 -9.384
87.45 124.576 132.016 -7.44
87.5 150.757 132.009 18.748
87.55 124.653 132.003 -7.35
87.6 110.54 131.998 -21.458
87.65 138.881 131.994 6.887
87.7 127.456 131.99 -4.534
87.75 129.586 131.986 -2.4
87.8 148.81 131.982 16.828
87.85 132.647 131.977 0.67
87.9 110.023 131.973 -21.95
87.95 109.52 131.967 -22.447
88 147.481 131.961 15.52
88.05 121.92 131.954 -10.034
88.1 127.795 131.947 -4.152
88.15 161.042 131.939 29.103
88.2 126.471 131.931 -5.46
88.25 145.216 131.923 13.293
88.3 136.051 131.915 4.136
88.35 127.154 131.908 -4.754
88.4 122.299 131.901 -9.602
88.45 105.424 131.895 -26.471
88.5 131.007 131.889 -0.882
88.55 128.516 131.884 -3.368
88.6 112.98 131.88 -18.9
88.65 126.85 131.876 -5.026
88.7 133.649 131.873 1.776
88.75 118.316 131.87 -13.554
88.8 130.555 131.866 -1.311
88.85 140.89 131.862 9.028
88.9 129.454 131.859 -2.405
88.95 124.554 131.854 -7.3
89 157.718 131.849 25.869
89.05 106.231 131.843 -25.612
89.1 130.644 131.837 -1.193
89.15 133.302 131.83 1.472
89.2 143.268 131.823 11.445
89.25 151.536 131.816 19.72
89.3 139.025 131.809 7.216
89.35 128.034 131.803 -3.769
89.4 109.081 131.796 -22.715
89.45 103.209 131.791 -28.582
89.5 119.102 131.786 -12.684
89.55 132.809 131.782 1.027
89.6 114.807 131.778 -16.971
89.65 102.924 131.775 -28.851
89.7 123.355 131.772 -8.417
89.75 142.52 131.769 10.751
89.8 124.993 131.767 -6.774
89.85 140.892 131.764 9.128
89.9 142.054 131.76 10.294
89.95 154.88 131.756 23.124
90 126.448 131.752 -5.304
90.05 127.374 131.747 -4.373
90.1 145.378 131.742 13.636
90.15 156.728 131.736 24.992
90.2 123.108 131.73 -8.622
90.25 156.442 131.724 24.718
90.3 135.571 131.718 3.853
90.35 123.607 131.713 -8.106
90.4 132.805 131.707 1.098
90.45 116.176 131.702 -15.526
90.5 136.472 131.698 4.774
90.55 130.428 131.695 -1.267
90.6 152.2 131.691 20.509
90.65 142.265 131.689 10.576
90.7 146.196 131.687 14.509
90.75 145.244 131.685 13.559
90.8 137.479 131.683 5.796
90.85 141.034 131.681 9.353
90.9 143.721 131.679 12.042
90.95 137.656 131.676 5.98
91 129.896 131.673 -1.777
91.05 127.808 131.669 -3.861
91.1 121.21 131.665 -10.455
91.15 127.698 131.661 -3.963
91.2 130.612 131.656 -1.044
91.25 136.823 131.651 5.172
91.3 113.282 131.646 -18.364
91.35 112.279 131.642 -19.363
91.4 137.82 131.637 6.183
91.45 114.335 131.633 -17.298
91.5 132.109 131.629 0.48
91.55 126.021 131.627 -5.606
91.6 125.276 131.624 -6.348
91.65 123.609 131.623 -8.014
91.7 133.487 131.621 1.866
91.75 124.545 131.62 -7.075
91.8 117.799 131.619 -13.82
91.85 115.812 131.618 -15.806
91.9 138.339 131.617 6.722
91.95 129.572 131.616 -2.044
92 123.232 131.615 -8.383
92.05 127.486 131.612 -4.126
92.1 143.022 131.61 11.412
92.15 119.944 131.607 -11.663
92.2 127.542 131.603 -4.061
92.25 137.25 131.6 5.65
92.3 134.175 131.596 2.579
92.35 116.394 131.592 -15.198
92.4 135.096 131.588 3.508
92.45 139.101 131.585 7.516
92.5 135.63 131.582 4.048
92.55 145.658 131.58 14.078
92.6 124.588 131.578 -6.99
92.65 135.67 131.578 4.092
92.7 108.861 131.577 -22.716
92.75 123.61 131.577 -7.967
92.8 134.375 131.577 2.798
92.85 135.886 131.577 4.309
92.9 120.803 131.577 -10.774
92.95 161.446 131.578 29.868
93 136.52 131.578 4.942
93.05 160.828 131.577 29.251
93.1 136.534 131.576 4.958
93.15 143.41 131.575 11.835
93.2 128.16 131.573 -3.413
93.25 144.161 131.571 12.59
93.3 126.426 131.568 -5.142
93.35 147.747 131.565 16.182
93.4 150.291 131.562 18.729
93.45 133.304 131.561 1.743
93.5 125.748 131.559 -5.811
93.55 134.627 131.558 3.069
93.6 121.628 131.558 -9.93
93.65 118.885 131.558 -12.673
93.7 153.306 131.559 21.747
93.75 121.681 131.56 -9.879
93.8 133.306 131.562 1.744
93.85 142.452 131.564 10.888
93.9 146.93 131.566 15.364
93.95 151.08 131.567 19.513
94 118.524 131.569 -13.045
94.05 118.977 131.57 -12.593
94.1 128.495 131.571 -3.076
94.15 127.894 131.571 -3.677
94.2 126.798 131.571 -4.773
94.25 120.121 131.57 -11.449
94.3 126.379 131.57 -5.191
94.35 141.406 131.569 9.837
94.4 130.375 131.569 -1.194
94.45 136.764 131.568 5.196
94.5 138.385 131.568 6.817
94.55 136.238 131.569 4.669
94.6 125.32 131.57 -6.25
94.65 144.559 131.572 12.987
94.7 126.737 131.574 -4.837
94.75 130.042 131.578 -1.536
94.8 124.346 131.581 -7.235
94.85 123.998 131.586 -7.588
94.9 125.652 131.59 -5.938
94.95 139.236 131.595 7.641
95 159.335 131.601 27.734
95.05 131.549 131.606 -0.057
95.1 133.404 131.611 1.793
95.15 153.332 131.616 21.716
95.2 132.704 131.62 1.084
95.25 143.438 131.625 11.813
95.3 138.222 131.629 6.593
95.35 135.147 131.634 3.513
95.4 134.953 131.638 3.315
95.45 130.962 131.643 -0.681
95.5 118.692 131.648 -12.956
95.55 116.424 131.655 -15.231
95.6 120.508 131.661 -11.153
95.65 141.08 131.669 9.411
95.7 133.148 131.677 1.471
95.75 124.204 131.688 -7.484
95.8 136.65 131.699 4.951
95.85 133.136 131.712 1.424
95.9 147.248 131.726 15.522
95.95 149.224 131.742 17.482
96 150.813 131.758 19.055
96.05 132.677 131.777 0.9
96.1 117.129 131.795 -14.666
96.15 148.371 131.817 16.554
96.2 145.515 131.838 13.677
96.25 136.52 131.863 4.657
96.3 137.733 131.887 5.846
96.35 134.608 131.915 2.693
96.4 125.438 131.944 -6.506
96.45 135.777 131.977 3.8
96.5 133.579 132.011 1.568
96.55 139.893 132.051 7.842
96.6 124.772 132.092 -7.32
96.65 117.048 132.143 -15.095
96.7 133.719 132.193 1.526
96.75 119.211 132.258 -13.047
96.8 126.276 132.323 -6.047
96.85 132.492 132.406 0.086
96.9 126.822 132.489 -5.667
96.95 117.071 132.598 -15.527
97 140.65 132.707 7.943
97.05 154.792 132.851 21.941
97.1 131.57 132.996 -1.426
97.15 134.742 133.193 1.549
97.2 125.648 133.39 -7.742
97.25 146.273 133.668 12.605
97.3 152.997 133.947 19.05
97.35 160.656 134.349 26.307
97.4 118.113 134.751 -16.638
97.45 134.683 135.305 -0.622
97.5 119.617 135.859 -16.242
97.55 117.667 136.611 -18.944
97.6 144.954 137.362 7.592
97.65 123.762 138.441 -14.679
97.7 131.541 139.52 -7.979
97.75 145.755 141.153 4.602
97.8 120.252 142.785 -22.533
97.85 147.761 145.37 2.391
97.9 143.338 147.956 -4.618
97.95 143.782 152.26 -8.478
98 148.582 156.564 -7.982
98.05 154.303 164.176 -9.873
98.1 148.889 171.789 -22.9
98.15 163.748 186.28 -22.532
98.2 156.617 200.771 -44.154
98.25 202.627 225.065 -22.438
98.3 203.409 260.493 -57.084
98.35 257.748 312.346 -54.598
98.4 339.992 386.317 -46.325
98.45 430.006 483.654 -53.648
98.5 542.753 591.456 -48.703
98.55 672.67 676.104 -3.434
98.6 706.26 698.732 7.528
98.65 651.886 646.512 5.374
98.7 518.136 547.992 -29.856
98.75 410.872 443.655 -32.783
98.8 300.97 357.228 -56.258
98.85 238.474 295.221 -56.747
98.9 209.312 250.121 -40.809
98.95 177.934 219.585 -41.651
99 149.222 198.182 -48.96
99.05 159.354 185 -25.646
99.1 164.504 171.817 -7.313
99.15 164.191 164.612 -0.421
99.2 143.379 157.406 -14.027
99.25 135.884 153.198 -17.314
99.3 145.121 148.991 -3.87
99.35 126.592 146.393 -19.801
99.4 145.431 143.795 1.636
99.45 128.191 142.112 -13.921
99.5 130.843 140.428 -9.585
99.55 147.925 139.28 8.645
99.6 107.225 138.131 -30.906
99.65 135.515 137.291 -1.776
99.7 147.891 136.45 11.441
99.75 139.122 135.795 3.327
99.8 130.78 135.14 -4.36
99.85 136.489 134.668 1.821
99.9 138.58 134.197 4.383
99.95 133.271 133.884 -0.613
100 131.422 133.571 -2.149
100.05 136.756 133.356 3.4
100.1 140.396 133.142 7.254
100.15 134.293 132.987 1.306
100.2 139.721 132.833 6.888
100.25 137.963 132.718 5.245
100.3 131.132 132.604 -1.472
100.35 150.93 132.517 18.413
100.4 143.351 132.43 10.921
100.45 127.648 132.364 -4.716
100.5 132.95 132.297 0.653
100.55 135.521 132.246 3.275
100.6 131.418 132.194 -0.776
100.65 113.06 132.154 -19.094
100.7 156.613 132.113 24.5
100.75 128.782 132.08 -3.298
100.8 135.243 132.048 3.195
100.85 132.079 132.02 0.059
100.9 144.965 131.993 12.972
100.95 120.665 131.97 -11.305
101 130.564 131.946 -1.382
101.05 135.205 131.925 3.28
101.1 130.172 131.905 -1.733
101.15 128.472 131.886 -3.414
101.2 138.258 131.868 6.39
101.25 151.238 131.851 19.387
101.3 124.034 131.835 -7.801
101.35 121.318 131.821 -10.503
101.4 107.34 131.808 -24.468
101.45 107.302 131.797 -24.495
101.5 157.54 131.785 25.755
101.55 117.158 131.777 -14.619
101.6 111.57 131.769 -20.199
101.65 121.891 131.763 -9.872
101.7 126.499 131.757 -5.258
101.75 152.298 131.753 20.545
101.8 135.53 131.749 3.781
101.85 129.533 131.747 -2.214
101.9 143.598 131.745 11.853
101.95 123.704 131.742 -8.038
102 128.288 131.738 -3.45
102.05 141.984 131.733 10.251
102.1 140.251 131.729 8.522
102.15 122.011 131.724 -9.713
102.2 137.079 131.718 5.361
102.25 133.844 131.713 2.131
102.3 127.333 131.707 -4.374
102.35 120.003 131.702 -11.699
102.4 131.243 131.698 -0.455
102.45 131.308 131.694 -0.386
102.5 127.821 131.69 -3.869
102.55 109.593 131.688 -22.095
102.6 120.697 131.686 -10.989
102.65 137.609 131.685 5.924
102.7 133.362 131.685 1.677
102.75 126.569 131.686 -5.117
102.8 132.225 131.687 0.538
102.85 113.735 131.688 -17.953
102.9 145.709 131.69 14.019
102.95 124.641 131.691 -7.05
103 112.101 131.693 -19.592
103.05 137.741 131.694 6.047
103.1 125.669 131.694 -6.025
103.15 113.509 131.694 -18.185
103.2 128.806 131.694 -2.888
103.25 144.116 131.692 12.424
103.3 127.537 131.691 -4.154
103.35 133.783 131.688 2.095
103.4 124.12 131.686 -7.566
103.45 133.835 131.684 2.151
103.5 131.016 131.681 -0.665
103.55 126.036 131.68 -5.644
103.6 133.618 131.678 1.94
103.65 128.23 131.677 -3.447
103.7 122.853 131.676 -8.823
103.75 118.55 131.676 -13.126
103.8 134.3 131.677 2.623
103.85 122.769 131.678 -8.909
103.9 176.946 131.68 45.266
103.95 130.138 131.682 -1.544
104 146.92 131.685 15.235
104.05 136.784 131.687 5.097
104.1 137.114 131.69 5.424
104.15 104.761 131.692 -26.931
104.2 141.226 131.694 9.532
104.25 119.678 131.695 -12.017
104.3 123.546 131.696 -8.15
104.35 130.32 131.696 -1.376
104.4 147.082 131.696 15.386
104.45 132.916 131.695 1.221
104.5 160.271 131.695 28.576
104.55 134.601 131.693 2.908
104.6 146.828 131.692 15.136
104.65 137.619 131.69 5.929
104.7 130.44 131.689 -1.249
104.75 119.769 131.688 -11.919
104.8 125.918 131.687 -5.769
104.85 136.105 131.687 4.418
104.9 127.937 131.687 -3.75
104.95 159.141 131.689 27.452
105 125.601 131.69 -6.089
105.05 121.864 131.692 -9.828
105.1 120.046 131.694 -11.648
105.15 152.179 131.696 20.483
105.2 140.946 131.699 9.247
105.25 137.69 131.701 5.989
105.3 121.221 131.704 -10.483
105.35 130.084 131.706 -1.622
105.4 109.573 131.707 -22.134
105.45 136.824 131.708 5.116
105.5 132.192 131.709 0.483
105.55 141.077 131.709 9.368
105.6 129.459 131.709 -2.25
105.65 163.001 131.708 31.293
105.7 129.618 131.708 -2.09
105.75 132.5 131.706 0.794
105.8 131.106 131.705 -0.599
105.85 115.999 131.704 -15.705
105.9 132.98 131.703 1.277
105.95 126.787 131.702 -4.915
106 135.232 131.702 3.53
106.05 119.727 131.702 -11.975
106.1 117.626 131.702 -14.076
106.15 120.004 131.704 -11.7
106.2 124.018 131.705 -7.687
106.25 141.121 131.707 9.414
106.3 147.156 131.709 15.447
106.35 128.627 131.711 -3.084
106.4 134.03 131.713 2.317
106.45 125.879 131.715 -5.836
106.5 139.65 131.717 7.933
106.55 126.238 131.719 -5.481
106.6 136.896 131.72 5.176
106.65 110.633 131.721 -21.088
106.7 142.197 131.721 10.476
106.75 124.113 131.721 -7.608
106.8 125.785 131.721 -5.936
106.85 127.77 131.72 -3.95
106.9 120.56 131.719 -11.159
106.95 119.9 131.718 -11.818
107 153.429 131.716 21.713
107.05 135.891 131.715 4.176
107.1 131.425 131.714 -0.289
107.15 122.357 131.713 -9.356
107.2 128.972 131.713 -2.741
107.25 137.131 131.713 5.418
107.3 116.65 131.713 -15.063
107.35 118.925 131.714 -12.789
107.4 130.754 131.715 -0.961
107.45 136.551 131.716 4.835
107.5 117.428 131.718 -14.29
107.55 130.234 131.719 -1.485
107.6 129.179 131.721 -2.542
107.65 135.923 131.723 4.2
107.7 146.739 131.724 15.015
107.75 129.68 131.725 -2.045
107.8 132.116 131.726 0.39
107.85 123.279 131.726 -8.447
107.9 131.313 131.727 -0.414
107.95 128.212 131.726 -3.514
108 133.634 131.726 1.908
108.05 140.851 131.725 9.126
108.1 132.443 131.724 0.719
108.15 146.11 131.722 14.388
108.2 144.275 131.721 12.554
108.25 134.216 131.72 2.496
108.3 138.699 131.718 6.981
108.35 140.333 131.718 8.615
108.4 138.503 131.717 6.786
108.45 119.59 131.717 -12.127
108.5 127.038 131.717 -4.679
108.55 112.202 131.717 -19.515
108.6 125.86 131.718 -5.858
108.65 104.967 131.719 -26.752
108.7 122.353 131.72 -9.367
108.75 143.338 131.722 11.616
108.8 121.808 131.724 -9.916
108.85 125.076 131.725 -6.649
108.9 116.959 131.727 -14.768
108.95 123.05 131.728 -8.678
109 136.552 131.729 4.823
109.05 112.753 131.73 -18.977
109.1 109.934 131.731 -21.797
109.15 146.433 131.731 14.702
109.2 138.708 131.731 6.977
109.25 119.272 131.73 -12.458
109.3 146.319 131.729 14.59
109.35 129.288 131.728 -2.44
109.4 119.957 131.728 -11.771
109.45 128.156 131.727 -3.571
109.5 136.067 131.726 4.341
109.55 117.467 131.725 -14.258
109.6 116.54 131.725 -15.185
109.65 127.138 131.725 -4.587
109.7 139.143 131.724 7.419
109.75 132.096 131.725 0.371
109.8 114.226 131.726 -17.5
109.85 130.337 131.727 -1.39
109.9 139.514 131.729 7.785
109.95 122.424 131.73 -9.306
110 120.059 131.732 -11.673
110.05 111.964 131.734 -19.77
110.1 121.272 131.736 -10.464
110.15 146.923 131.738 15.185
110.2 126.592 131.74 -5.148
110.25 130.811 131.741 -0.93
110.3 120.026 131.742 -11.716
110.35 124.391 131.743 -7.352
110.4 121.147 131.744 -10.597
110.45 143.221 131.744 11.477
110.5 128.252 131.745 -3.493
110.55 116.446 131.745 -15.299
110.6 119.343 131.744 -12.401
110.65 127.766 131.744 -3.978
110.7 133.007 131.744 1.263
110.75 113.512 131.744 -18.232
110.8 128.413 131.744 -3.331
110.85 123.469 131.744 -8.275
110.9 140.613 131.745 8.868
110.95 130.564 131.746 -1.182
111 133.142 131.747 1.395
111.05 126.439 131.749 -5.31
111.1 138.199 131.751 6.448
111.15 105.9 131.753 -25.853
111.2 129.326 131.756 -2.43
111.25 148.223 131.759 16.464
111.3 117.701 131.761 -14.06
111.35 131.54 131.765 -0.225
111.4 129.4 131.768 -2.368
111.45 130.026 131.771 -1.745
111.5 133.961 131.774 2.187
111.55 120.965 131.777 -10.812
111.6 133.604 131.779 1.825
111.65 137.427 131.782 5.645
111.7 134.893 131.784 3.109
111.75 116.478 131.787 -15.309
111.8 123.038 131.789 -8.751
111.85 135.689 131.791 3.898
111.9 127.201 131.793 -4.592
111.95 136.541 131.796 4.745
112 143.173 131.798 11.375
112.05 136.901 131.801 5.1
112.1 155.197 131.804 23.393
112.15 138.502 131.807 6.695
112.2 129.074 131.811 -2.737
112.25 130.289 131.816 -1.527
112.3 134.741 131.82 2.921
112.35 130.118 131.826 -1.708
112.4 118.969 131.832 -12.863
112.45 134.074 131.839 2.235
112.5 126.245 131.846 -5.601
112.55 109.262 131.854 -22.592
112.6 123.173 131.862 -8.689
112.65 124.525 131.872 -7.347
112.7 138.739 131.881 6.858
112.75 140.3 131.891 8.409
112.8 114.1 131.901 -17.801
112.85 111.779 131.912 -20.133
112.9 125.183 131.923 -6.74
112.95 144.079 131.936 12.143
113 124.37 131.948 -7.578
113.05 139.267 131.962 7.305
113.1 164.312 131.976 32.336
113.15 133.581 131.992 1.589
113.2 142.246 132.008 10.238
113.25 118.799 132.026 -13.227
113.3 130.856 132.045 -1.189
113.35 130.045 132.067 -2.022
113.4 127.732 132.089 -4.357
113.45 125.786 132.116 -6.33
113.5 111.262 132.143 -20.881
113.55 98.0478 132.176 -34.1282
113.6 130.646 132.209 -1.563
113.65 121.34 132.249 -10.909
113.7 137.82 132.289 5.531
113.75 159.124 132.339 26.785
113.8 126.451 132.389 -5.938
113.85 118.022 132.452 -14.43
113.9 125.523 132.514 -6.991
113.95 133.669 132.592 1.077
114 136.035 132.67 3.365
114.05 138.411 132.769 5.642
114.1 122.462 132.867 -10.405
114.15 129.179 132.994 -3.815
114.2 142.077 133.121 8.956
114.25 118.725 133.287 -14.562
114.3 127.748 133.453 -5.705
114.35 113.846 133.674 -19.828
114.4 114.447 133.895 -19.448
114.45 135.19 134.194 0.996
114.5 140.42 134.493 5.927
114.55 130.121 134.902 -4.781
114.6 131.081 135.311 -4.23
114.65 138.911 135.869 3.042
114.7 153.357 136.427 16.93
114.75 129.121 137.192 -8.071
114.8 125.006 137.957 -12.951
114.85 144.692 139.035 5.657
114.9 121.591 140.113 -18.522
114.95 140.857 141.68 -0.823
115 163.607 143.246 20.361
115.05 129.584 145.596 -16.012
115.1 151.203 147.945 3.258
115.15 140.703 151.584 -10.881
115.2 132.538 155.223 -22.685
115.25 137.747 161.043 -23.296
115.3 153.465 166.862 -13.397
115.35 176.046 176.422 -0.376
115.4 172.049 185.982 -13.933
115.45 207.052 199.822 7.23
115.5 227.346 217.471 9.875
115.55 229.197 239.741 -10.544
115.6 277.906 265.847 12.059
115.65 283.277 295.16 -11.883
115.7 313.826 324.069 -10.243
115.75 375.06 347.295 27.765
115.8 347.897 359.19 -11.293
115.85 373.722 356.396 17.326
115.9 363.023 339.762 23.261
115.95 343.573 313.838 29.735
116 284.347 284.406 -0.059
116.05 266.038 256.088 9.95
116.1 244.812 231.416 13.396
116.15 199.818 211.152 -11.334
116.2 192.243 195.045 -2.802
116.25 169.426 182.44 -13.014
116.3 182.531 172.623 9.908
116.35 151.422 165.794 -14.372
116.4 151.122 158.966 -7.844
116.45 139.565 154.714 -15.149
116.5 124.636 150.462 -25.826
116.55 121.537 147.73 -26.193
116.6 114.885 144.998 -30.113
116.65 124.754 143.185 -18.431
116.7 126.719 141.372 -14.653
116.75 138.894 140.129 -1.235
116.8 101.581 138.886 -37.305
116.85 138.302 138.007 0.295
116.9 119.428 137.127 -17.699
116.95 126.99 136.488 -9.498
117 126.07 135.848 -9.778
117.05 125.186 135.378 -10.192
117.1 124.17 134.908 -10.738
117.15 127.443 134.563 -7.12
117.2 157.063 134.218 22.845
117.25 152.957 133.964 18.993
117.3 134.77 133.709 1.061
117.35 133.102 133.519 -0.417
117.4 152.197 133.328 18.869
117.45 130.453 133.183 -2.73
117.5 134.713 133.038 1.675
117.55 130.259 132.925 -2.666
117.6 133.699 132.812 0.887
117.65 108.392 132.723 -24.331
117.7 119.167 132.634 -13.467
117.75 134.801 132.564 2.237
117.8 112.612 132.493 -19.881
117.85 162.229 132.436 29.793
117.9 150.445 132.379 18.066
117.95 145.205 132.333 12.872
118 133.92 132.287 1.633
118.05 139.952 132.249 7.703
118.1 123.086 132.211 -9.125
118.15 120.647 132.18 -11.533
118.2 125.946 132.149 -6.203
118.25 136.801 132.123 4.678
118.3 114.58 132.097 -17.517
118.35 127.145 132.075 -4.93
118.4 142.279 132.054 10.225
118.45 126.681 132.035 -5.354
118.5 131.697 132.017 -0.32
118.55 101.733 132.001 -30.268
118.6 119.533 131.985 -12.452
118.65 130.067 131.971 -1.904
118.7 113.185 131.957 -18.772
118.75 129.002 131.945 -2.943
118.8 125.447 131.933 -6.486
118.85 108.374 131.922 -23.548
118.9 108.452 131.911 -23.459
118.95 122.608 131.901 -9.293
119 130.061 131.891 -1.83
119.05 139.71 131.882 7.828
119.1 141.251 131.873 9.378
119.15 149.981 131.865 18.116
119.2 138.62 131.858 6.762
119.25 149.568 131.851 17.717
119.3 115.921 131.844 -15.923
119.35 122.165 131.838 -9.673
119.4 135.823 131.832 3.991
119.45 135.264 131.827 3.437
119.5 119.068 131.821 -12.753
119.55 123.568 131.817 -8.249
119.6 121.466 131.813 -10.347
119.65 128.296 131.809 -3.513
119.7 109.438 131.806 -22.368
119.75 128.668 131.803 -3.135
119.8 130.696 131.8 -1.104
119.85 115.766 131.797 -16.031
119.9 118.462 131.794 -13.332
119.95 133.686 131.792 1.894
120 118.883 131.789 -12.906
120.05 126.925 131.787 -4.862
120.1 131.915 131.785 0.13
120.15 107.033 131.782 -24.749
120.2 137.932 131.78 6.152
120.25 132.188 131.777 0.411
120.3 135.528 131.775 3.753
120.35 129.363 131.772 -2.409
120.4 114.945 131.77 -16.825
120.45 119.42 131.767 -12.347
120.5 126.301 131.765 -5.464
120.55 138.085 131.762 6.323
120.6 132.156 131.76 0.396
120.65 151.9 131.758 20.142
120.7 127.75 131.755 -4.005
120.75 134.764 131.753 3.011
120.8 130.997 131.751 -0.754
120.85 134.077 131.75 2.327
120.9 137.446 131.748 5.698
120.95 146.144 131.747 14.397
121 122.579 131.746 -9.167
121.05 121.568 131.745 -10.177
121.1 135.947 131.744 4.203
121.15 133.76 131.743 2.017
121.2 141.93 131.743 10.187
121.25 131.241 131.742 -0.501
121.3 129.431 131.742 -2.311
121.35 140.485 131.742 8.743
121.4 148.357 131.741 16.616
121.45 140.752 131.741 9.011
121.5 129.574 131.741 -2.167
121.55 122.909 131.74 -8.831
121.6 116.85 131.74 -14.89
121.65 136.885 131.739 5.146
121.7 126.659 131.738 -5.079
121.75 113.354 131.737 -18.383
121.8 139.107 131.737 7.37
121.85 125.221 131.735 -6.514
121.9 136.892 131.734 5.158
121.95 108.101 131.733 -23.632
122 133.159 131.732 1.427
122.05 126.459 131.731 -5.272
122.1 119.764 131.729 -11.965
122.15 110.781 131.728 -20.947
122.2 120.728 131.727 -10.999
122.25 141.62 131.726 9.894
122.3 147.16 131.725 15.435
122.35 142.516 131.724 10.792
122.4 135.142 131.723 3.419
122.45 145.914 131.723 14.191
122.5 142.102 131.723 10.379
122.55 140.634 131.722 8.912
122.6 113.197 131.722 -18.525
122.65 141.338 131.722 9.616
122.7 136.972 131.722 5.25
122.75 130.828 131.724 -0.896
122.8 106.639 131.725 -25.086
122.85 110.995 131.725 -20.73
122.9 140.065 131.725 8.34
122.95 127.659 131.724 -4.065
123 149.802 131.724 18.078
123.05 140.363 131.723 8.64
123.1 132.796 131.722 1.074
123.15 110.919 131.721 -20.802
123.2 115.326 131.72 -16.394
123.25 112.792 131.718 -18.926
123.3 124.711 131.717 -7.006
123.35 123.942 131.716 -7.774
123.4 116.219 131.715 -15.496
123.45 118.53 131.714 -13.184
123.5 129.693 131.712 -2.019
123.55 124.837 131.712 -6.875
123.6 132.495 131.711 0.784
123.65 132.362 131.711 0.651
123.7 146.909 131.711 15.198
123.75 154.113 131.711 22.402
123.8 120.463 131.711 -11.248
123.85 112.331 131.711 -19.38
123.9 155.389 131.712 23.677
123.95 142.628 131.712 10.916
124 130.174 131.713 -1.539
124.05 128.743 131.714 -2.971
124.1 123.23 131.715 -8.485
124.15 119.574 131.715 -12.141
124.2 118.302 131.716 -13.414
124.25 138.142 131.716 6.426
124.3 133.998 131.716 2.282
124.35 123.608 131.716 -8.108
124.4 136.012 131.716 4.296
124.45 135.597 131.716 3.881
124.5 147.95 131.716 16.234
124.55 138.545 131.715 6.83
124.6 118.118 131.714 -13.596
124.65 139.978 131.714 8.264
124.7 124.021 131.713 -7.692
124.75 124.385 131.712 -7.327
124.8 110.499 131.711 -21.212
124.85 128.696 131.71 -3.014
124.9 128.21 131.709 -3.499
124.95 125.427 131.708 -6.281
125 131.438 131.707 -0.269
125.05 134.596 131.707 2.889
125.1 115.293 131.706 -16.413
125.15 113.731 131.706 -17.975
125.2 126.067 131.706 -5.639
125.25 133.036 131.706 1.33
125.3 125.98 131.706 -5.726
125.35 137.619 131.706 5.913
125.4 125.351 131.707 -6.356
125.45 142.412 131.708 10.704
125.5 120.853 131.708 -10.855
125.55 130.942 131.709 -0.767
125.6 130.592 131.71 -1.118
125.65 123.814 131.71 -7.896
125.7 127.331 131.711 -4.38
125.75 133.498 131.711 1.787
125.8 119.511 131.712 -12.201
125.85 129.976 131.712 -1.736
125.9 115.172 131.712 -16.54
125.95 127.18 131.712 -4.532
126 110.948 131.712 -20.764
126.05 124.255 131.711 -7.456
126.1 134.159 131.711 2.448
126.15 135.839 131.71 4.129
126.2 134.851 131.709 3.142
126.25 120.766 131.709 -10.943
126.3 118.536 131.708 -13.172
126.35 133.663 131.707 1.956
126.4 129.999 131.706 -1.707
126.45 119.086 131.705 -12.619
126.5 125.733 131.705 -5.972
126.55 144.354 131.704 12.65
126.6 104.365 131.704 -27.339
126.65 140.067 131.703 8.364
126.7 118.195 131.703 -13.508
126.75 148.028 131.703 16.325
126.8 151.367 131.703 19.664
126.85 126.022 131.704 -5.682
126.9 108.933 131.704 -22.771
126.95 138.519 131.704 6.815
127 131.522 131.705 -0.183
127.05 143.61 131.706 11.904
127.1 132.999 131.706 1.293
127.15 116.293 131.707 -15.414
127.2 91.1145 131.708 -40.5935
127.25 126.909 131.708 -4.799
127.3 133.389 131.709 1.68
127.35 113.589 131.709 -18.12
127.4 133.28 131.709 1.571
127.45 118.736 131.709 -12.973
127.5 145.814 131.709 14.105
127.55 92.2285 131.709 -39.4805
127.6 135.641 131.709 3.932
127.65 103.88 131.708 -27.828
127.7 108.292 131.708 -23.416
127.75 129.742 131.707 -1.965
127.8 132.596 131.707 0.889
127.85 136.601 131.706 4.895
127.9 126.958 131.705 -4.747
127.95 119.608 131.704 -12.096
128 129.873 131.704 -1.831
128.05 135.079 131.703 3.376
128.1 115.628 131.703 -16.075
128.15 132.558 131.702 0.856
128.2 120.951 131.702 -10.751
128.25 134.342 131.702 2.64
128.3 133.209 131.702 1.507
128.35 123.246 131.702 -8.456
128.4 122.891 131.702 -8.811
128.45 123.432 131.702 -8.27
128.5 132.147 131.702 0.445
128.55 134.003 131.703 2.3
128.6 133.802 131.703 2.099
128.65 151.72 131.704 20.016
128.7 125.986 131.705 -5.719
128.75 134.335 131.705 2.63
128.8 112.1 131.706 -19.606
128.85 123.552 131.706 -8.154
128.9 135.899 131.707 4.192
128.95 118.683 131.707 -13.024
129 114.36 131.707 -17.347
129.05 142.709 131.708 11.001
129.1 131.376 131.708 -0.332
129.15 139.126 131.707 7.419
129.2 119.368 131.707 -12.339
129.25 115.217 131.707 -16.49
129.3 116.988 131.707 -14.719
129.35 150.923 131.706 19.217
129.4 145.375 131.705 13.67
129.45 131.748 131.705 0.043
129.5 139.337 131.704 7.633
129.55 146.099 131.703 14.396
129.6 139.643 131.703 7.94
129.65 124.324 131.702 -7.378
129.7 118.338 131.702 -13.364
129.75 133.656 131.701 1.955
129.8 122.053 131.701 -9.648
129.85 142.796 131.701 11.095
129.9 150.553 131.701 18.852
129.95 118.891 131.751 -12.86
130 97.5161 131.802 -34.2859
