40 209.2517 14.4655349019661
40.05 174.5425 13.2114533644107
40.1 169.7374 13.0283306682015
40.15 164.6877 12.8330705600803
40.2 175.2053 13.2365138915048
40.25 175.6185 13.2521130390591
40.3 191.7032 13.8456924709456
40.35 173.6238 13.1766384180488
40.4 178.2718 13.3518463142743
40.45 170.2077 13.0463673104815
40.5 180.4567 13.4334172867517
40.55 195.0807 13.967129268393
40.6 191.5103 13.8387246522214
40.65 175.501 13.2476790420058
40.7 184.9517 13.5996948495178
40.75 170.5129 13.0580588143874
40.8 152.5793 12.3522993810869
40.85 166.8924 12.9186841435186
40.9 177.3386 13.3168539828294
40.95 170.7691 13.0678651661241
41 186.6873 13.6633561030956
41.05 180.729 13.4435486386594
41.1 163.239 12.776501868665
41.15 181.1307 13.4584805977495
41.2 189.5549 13.7678938113279
41.25 182.5174 13.5099000736497
41.3 166.2497 12.8937853247214
41.35 188.8016 13.7405094519818
41.4 185.0216 13.6022645173515
41.45 178.4615 13.3589483118994
41.5 190.9883 13.8198516634586
41.55 167.021 12.9236604721727
41.6 146.7233 12.1129393625164
41.65 159.0784 12.6126285920105
41.7 162.9804 12.7663777164864
41.75 185.2668 13.6112747382455
41.8 166.419 12.9003488324929
41.85 207.3612 14.4000416666064
41.9 172.0913 13.1183573666828
41.95 182.3472 13.503599520128
42 171.6931 13.1031713718474
42.05 194.0559 13.930394825704
42.1 168.5892 12.9841903867742
42.15 175.6931 13.2549273856932
42.2 165.4638 12.8632733003695
42.25 162.541 12.7491568348656
42.3 157.6489 12.5558313145725
42.35 166.7773 12.914228587105
42.4 178.0384 13.3431030873631
42.45 180.2659 13.4263137159833
42.5 163.5929 12.7903440141382
42.55 182.5959 13.5128050381851
42.6 173.9323 13.188339546736
42.65 157.5375 12.5513943448527
42.7 158.7949 12.601384844532
42.75 164.2363 12.815471118925
42.8 191.2714 13.8300903829295
42.85 196.9712 14.0346428525987
42.9 175.9389 13.2641961686338
42.95 205.072 14.3203351916078
43 176.5403 13.2868468795271
43.05 213.1083 14.5982293446842
43.1 186.574 13.6592093475428
43.15 177.9419 13.3394864968634
43.2 213.7749 14.6210430544472
43.25 199.4472 14.1225776684003
43.3 210.0617 14.4935054420937
43.35 199.6144 14.1284960275324
43.4 202.7329 14.2384303910227
43.45 213.4144 14.6087097308421
43.5 225.5764 15.019201043997
43.55 210.1915 14.4979826182818
43.6 213.5159 14.612183272872
43.65 236.3062 15.3722542263651
43.7 223.8635 14.9620687072343
43.75 239.0966 15.4627487853874
43.8 254.535 15.9541530643278
43.85 248.0643 15.7500571427535
43.9 264.6866 16.2691917439066
43.95 330.1039 18.168761652903
44 352.2258 18.7676796647854
44.05 363.2623 19.0594412300046
44.1 530.7727 23.0385047257846
44.15 600.9854 24.5150035692431
44.2 764.1093 27.6425270190697
44.25 1153.3407 33.9608701301954
44.3 1768.6219 42.0549866246561
44.35 2918.5725 54.0238141933722
44.4 4475.6743 66.9004805662859
44.45 5661.6279 75.2437897769643
44.5 5619.344 74.9622838499468
44.55 4323.8606 65.7560689214311
44.6 2775.6658 52.6845878791891
44.65 1686.3527 41.0652249476367
44.7 1005.3567 31.7073603442481
44.75 679.4632 26.0665149185694
44.8 547.338 23.3952559293546
44.85 433.6517 20.8243055106287
44.9 340.9173 18.4639459487944
44.95 287.9133 16.9680081329542
45 294.1368 17.1504169045537
45.05 257.1859 16.0370165554569
45.1 226.0717 15.0356808957892
45.15 223.7873 14.9595220511887
45.2 213.2239 14.6021881921854
45.25 207.6534 14.4101838988959
45.3 217.992 14.7645521435633
45.35 175.9417 13.2643017155069
45.4 172.8663 13.1478629442203
45.45 180.9214 13.4507025838801
45.5 174.0882 13.1942487470867
45.55 164.1669 12.812763168029
45.6 167.3797 12.9375306762921
45.65 203.8337 14.277034005703
45.7 143.8306 11.9929395896085
45.75 171.9261 13.1120593348261
45.8 189.3946 13.7620710650687
45.85 169.0965 13.0037110087851
45.9 152.0025 12.3289293939093
45.95 195.9198 13.997135421221
46 169.0941 13.0036187271082
46.05 177.5581 13.3250928702205
46.1 164.0824 12.809465250353
46.15 135.2545 11.6298968181149
46.2 188.1962 13.7184620129226
46.25 164.5185 12.8264765231922
46.3 178.3074 13.353179396683
46.35 169.2038 13.0078360998284
46.4 181.3587 13.4669484293956
46.45 135.6576 11.6472142592124
46.5 160.7908 12.6803312259578
46.55 173.4486 13.1699886104734
46.6 145.7905 12.0743736897613
46.65 173.8999 13.1871111317074
46.7 166.4812 12.9027593947961
46.75 164.8218 12.8382942792257
46.8 176.505 13.2855184317361
46.85 160.3194 12.6617297396525
46.9 158.7603 12.6000119047563
46.95 161.3119 12.7008621754588
47 180.7281 13.443515165313
47.05 145.9646 12.0815810223662
47.1 195.1353 13.9690837208458
47.15 160.0218 12.6499723319856
47.2 159.2341 12.6187994674612
47.25 140.6493 11.8595657593354
47.3 139.6527 11.8174743494539
47.35 145.6692 12.0693496096517
47.4 162.5947 12.7512626825738
47.45 150.0649 12.250097958792
47.5 157.1796 12.5371288579164
47.55 143.7175 11.9882233879754
47.6 178.3026 13.3529996629971
47.65 144.0415 12.0017290421006
47.7 150.6946 12.2757728880914
47.75 161.8997 12.7239812951764
47.8 159.3175 12.6221036281596
47.85 133.7924 11.566866472818
47.9 158.322 12.5826070430575
47.95 158.5943 12.5934228865706
48 177.7877 13.3337054114751
48.05 163.8256 12.7994374876398
48.1 167.7397 12.951436213795
48.15 150.3476 12.2616312128526
48.2 163.648 12.792497801446
48.25 172.0205 13.1156585804907
48.3 136.5662 11.6861542005914
48.35 146.5061 12.1039704229645
48.4 155.3293 12.4631175875059
48.45 155.9986 12.4899399518172
48.5 162.5513 12.7495607767483
48.55 140.5155 11.853923401136
48.6 142.5911 11.9411515357607
48.65 171.6211 13.1004236572715
48.7 157.3549 12.5441181435763
48.75 144.0974 12.0040576473124
48.8 139.6731 11.8183374465277
48.85 142.2533 11.9269987842709
48.9 177.1555 13.3099774605369
48.95 145.6769 12.0696685952846
49 150.0084 12.247791637679
49.05 140.9455 11.8720470012547
49.1 147.8874 12.1608963485427
49.15 141.8194 11.9087950691915
49.2 150.5088 12.2682028023668
49.25 164.4543 12.823973643142
49.3 154.9201 12.4466903231341
49.35 169.4732 13.0181872778048
49.4 161.1601 12.6948847966415
49.45 149.9188 12.2441332890491
49.5 182.3557 13.5039142473581
49.55 169.407 13.0156444327586
49.6 147.5485 12.1469543507827
49.65 168.2171 12.9698535072683
49.7 150.4283 12.2649215244126
49.75 173.1968 13.1604255250353
49.8 176.5304 13.2864743254183
49.85 154.1104 12.4141209918383
49.9 133.9563 11.5739491963634
49.95 140.7203 11.862558745903
50 159.6109 12.6337207504361
50.05 152.2237 12.3378969034435
50.1 143.6178 11.9840644190525
50.15 161.7613 12.718541583059
50.2 138.5196 11.7694349906867
50.25 139.6864 11.8189001180313
50.3 161.6397 12.7137602620153
50.35 134.4694 11.5960941700212
50.4 153.8654 12.4042492719229
50.45 171.0074 13.0769797736327
50.5 163.3628 12.7813457820372
50.55 166.4318 12.9008449335693
50.6 167.7578 12.9521349591486
50.65 153.0101 12.3697251384176
50.7 157.2259 12.5389752372353
50.75 150.4302 12.2649989808397
50.8 154.8608 12.4443079357592
50.85 161.2824 12.6997007838768
50.9 159.4002 12.625379202226
50.95 140.0116 11.8326497455135
51 156.608 12.5143118068873
51.05 173.0256 13.1539195679463
51.1 144.0745 12.0031037652767
51.15 144.2607 12.0108575880326
51.2 156.0806 12.4932221624367
51.25 129.3628 11.3737768573153
51.3 154.459 12.4281535233517
51.35 147.595 12.1488682600479
51.4 134.6943 11.6057873494218
51.45 141.2905 11.8865680496937
51.5 164.9377 12.8428073255033
51.55 166.142 12.889608217475
51.6 166.1634 12.89043831683
51.65 157.292 12.5416107418465
51.7 139.1132 11.7946258948726
51.75 160.523 12.6697671643957
51.8 169.2657 13.0102152172822
51.85 140.6512 11.8596458631782
51.9 145.6688 12.0693330387391
51.95 134.7421 11.6078464841675
52 141.9378 11.9137651479287
52.05 150.5975 12.2718173063324
52.1 160.1234 12.6539875138235
52.15 141.6822 11.9030332268712
52.2 133.8194 11.5680335407536
52.25 173.934 13.1884039974517
52.3 138.6217 11.7737716981433
52.35 137.0812 11.7081680889881
52.4 141.5349 11.8968441193453
52.45 152.5271 12.3501862334136
52.5 141.1876 11.8822388462781
52.55 138.2001 11.7558538609494
52.6 144.1579 12.0065773640951
52.65 147.0975 12.1283758187154
52.7 166.6289 12.9084817077765
52.75 147.4457 12.1427221000894
52.8 158.222 12.57863267609
52.85 135.531 11.6417782146887
52.9 152.8599 12.3636523729843
52.95 157.0687 12.5327052147571
53 136.7376 11.6934853657924
53.05 128.8017 11.3490836634505
53.1 164.3331 12.8192472477911
53.15 129.5883 11.3836856948881
53.2 152.2991 12.3409521512726
53.25 146.1183 12.0879402711959
53.3 169.2799 13.0107609308603
53.35 138.9553 11.787930267863
53.4 129.7206 11.3894951600148
53.45 143.2209 11.9674934719013
53.5 111.7904 10.5730979376907
53.55 132.7793 11.5229900633473
53.6 138.0679 11.7502297849872
53.65 129.1748 11.3655092274829
53.7 141.4211 11.8920603765706
53.75 117.6244 10.8454783204799
53.8 146.7525 12.1141446251892
53.85 153.7603 12.4000120967683
53.9 133.4404 11.551640576126
53.95 160.3186 12.6616981483528
54 119.284 10.9217214760311
54.05 145.7961 12.0746055836205
54.1 140.2044 11.840793892303
54.15 125.7442 11.2135721338029
54.2 129.3595 11.3736317858457
54.25 141.3117 11.8874597791118
54.3 137.0706 11.7077154048089
54.35 135.771 11.6520813591392
54.4 160.367 12.6636092801381
54.45 129.4321 11.3768229308538
54.5 127.6089 11.2964109344517
54.55 143.6625 11.9859292505838
54.6 149.6173 12.2318150738147
54.65 133.5641 11.5569935536886
54.7 148.6578 12.1925305002694
54.75 146.3635 12.0980783598057
54.8 164.5016 12.825817712723
54.85 142.3324 11.9303143294718
54.9 133.0453 11.5345264315446
54.95 108.6753 10.4247446011881
55 146.249 12.0933452774656
55.05 149.8903 12.2429694110538
55.1 136.9105 11.7008760355796
55.15 137.0982 11.7088940553752
55.2 144.0221 12.0009207980055
55.25 138.3528 11.7623467046334
55.3 135.7027 11.6491501835971
55.35 125.4289 11.1995044533229
55.4 131.2966 11.4584728476355
55.45 117.8308 10.8549896361074
55.5 161.488 12.707792884683
55.55 149.3733 12.2218370141317
55.6 146.8781 12.1193275391005
55.65 130.8742 11.4400262237462
55.7 145.6213 12.0673650810771
55.75 133.8033 11.5673376366388
55.8 136.5845 11.6869371522226
55.85 151.9766 12.3278789740977
55.9 148.8179 12.1990942286712
55.95 135.7601 11.6516136221555
56 138.8628 11.784006109978
56.05 142.9115 11.9545597995075
56.1 139.3149 11.8031733021252
56.15 154.7649 12.4404541717736
56.2 132.5123 11.5113986986812
56.25 157.7654 12.560469736439
56.3 147.5819 12.1483291032142
56.35 138.7368 11.7786586672677
56.4 127.7416 11.3022829552263
56.45 138.6031 11.7729817803308
56.5 160.9846 12.6879706809245
56.55 126.0467 11.2270521509433
56.6 143.9689 11.9987040966931
56.65 159.9801 12.6483239996452
56.7 143.111 11.9629009859649
56.75 169.4089 13.0157174216407
56.8 122.6975 11.0768903578577
56.85 146.6113 12.1083153246023
56.9 136.0603 11.6644888443515
56.95 146.6728 12.1108546354087
57 144.565 12.0235186197718
57.05 149.3464 12.220736475352
57.1 144.488 12.0203161356097
57.15 121.9046 11.0410416175287
57.2 137.5809 11.7294884798954
57.25 152.8005 12.3612499367985
57.3 156.6316 12.5152546917752
57.35 138.911 11.786051077439
57.4 117.9922 10.862421461166
57.45 174.7599 13.2196785134889
57.5 131.6417 11.4735216912681
57.55 134.6988 11.6059812165969
57.6 133.1079 11.5372397045394
57.65 133.9026 11.5716290987916
57.7 138.8776 11.7846340630501
57.75 148.8766 12.2014999077982
57.8 143.3306 11.9720758433949
57.85 147.9342 12.1628203966021
57.9 138.2457 11.7577931602831
57.95 156.1465 12.4958593141888
58 136.795 11.6959394663276
58.05 151.9323 12.3260821025985
58.1 146.0871 12.086649659852
58.15 141.2168 11.8834675074239
58.2 123.9194 11.1319090905379
58.25 145.3276 12.0551897537948
58.3 132.3951 11.5063069661816
58.35 151.6649 12.3152304079136
58.4 114.7122 10.7103781445848
58.45 144.9106 12.0378818734859
58.5 140.6699 11.860434224766
58.55 116.1655 10.7780100204073
58.6 162.7757 12.7583580448269
58.65 139.0987 11.7940111921263
58.7 143.7769 11.9907005633533
58.75 147.4123 12.1413467127827
58.8 133.3866 11.5493116678008
58.85 134.0681 11.5787780011537
58.9 128.1931 11.3222391778305
58.95 160.1674 12.6557259768059
59 127.3339 11.2842323620174
59.05 158.0531 12.5719171171305
59.1 148.5039 12.1862176248416
59.15 141.4955 11.8951881027582
59.2 125.4508 11.2004821324798
59.25 123.8649 11.1294609033861
59.3 129.1395 11.3639561773178
59.35 147.2193 12.1333960621089
59.4 130.9906 11.4451124939862
59.45 140.9801 11.8735041163087
59.5 154.1593 12.4160903669392
59.55 133.2751 11.544483531107
59.6 148.353 12.180024630517
59.65 127.6755 11.2993583888644
59.7 130.3993 11.4192512889418
59.75 122.0363 11.0470041187645
59.8 127.9329 11.3107426811859
59.85 165.3161 12.8575308671611
59.9 141.3432 11.8887846309032
59.95 121.8888 11.0403260821409
60 130.6936 11.4321301602107
60.05 133.1552 11.5392894061983
60.1 115.7405 10.758275884174
60.15 129.6078 11.3845421515316
60.2 133.7576 11.5653620782058
60.25 159.2937 12.6211608023985
60.3 145.565 12.0650321176531
60.35 141.0954 11.878358472449
60.4 130.4096 11.4197022728266
60.45 127.6331 11.2974820203442
60.5 135.2606 11.6301590702793
60.55 126.6917 11.2557407574979
60.6 149.6264 12.2321870489296
60.65 143.5136 11.9797161902943
60.7 140.8644 11.8686309235733
60.75 147.9652 12.1640947053202
60.8 134.897 11.6145167785836
60.85 149.0405 12.2082144476578
60.9 146.7122 12.112481166136
60.95 141.9968 11.9162410180392
61 147.2093 12.1329839693292
61.05 113.2148 10.6402443580963
61.1 132.3918 11.5061635656721
61.15 139.8319 11.8250539110822
61.2 110.4849 10.5111797625195
61.25 108.319 10.4076414234926
61.3 121.4154 11.0188656403461
61.35 133.6649 11.5613537269647
61.4 144.5344 12.0222460463925
61.45 117.7547 10.8514837695128
61.5 146.7195 12.1127825044455
61.55 142.0859 11.9199790268272
61.6 136.6968 11.6917406745104
61.65 161.9799 12.7271324342917
61.7 150.2065 12.2558761416718
61.75 154.5043 12.4299758648197
61.8 147.1655 12.131178838019
61.85 127.4315 11.2885561521392
61.9 118.4684 10.8843189956928
61.95 126.9355 11.2665655814006
62 150.3281 12.2608360236976
62.05 143.4401 11.9766481120554
62.1 140.595 11.8572762470982
62.15 126.1598 11.2320879626185
62.2 135.4746 11.6393556522687
62.25 112.2349 10.5940974131825
62.3 132.6937 11.519275150807
62.35 130.0548 11.4041571367638
62.4 134.5129 11.5979696498999
62.45 150.1286 12.2526976621477
62.5 156.6636 12.5165330663087
62.55 117.3915 10.8347358066544
62.6 137.8527 11.7410689462246
62.65 130.6729 11.4312247812734
62.7 151.8249 12.321724716938
62.75 121.8824 11.0400362318246
62.8 137.6212 11.7312062465886
62.85 134.0668 11.5787218638328
62.9 123.89 11.1305884839931
62.95 147.7532 12.1553774108417
63 150.4355 12.2652150409196
63.05 145.1757 12.0488879154883
63.1 129.9934 11.4014648181714
63.15 140.9175 11.8708677020679
63.2 135.7059 11.6492875318622
63.25 140.9813 11.8735546488825
63.3 128.8809 11.3525723957172
63.35 161.7905 12.7196894616182
63.4 137.5711 11.7290707219285
63.45 137.6891 11.7340998802635
63.5 138.4022 11.7644464383157
63.55 152.3309 12.3422404773202
63.6 167.5855 12.9454818373052
63.65 159.8463 12.6430336549422
63.7 145.9359 12.0803932055211
63.75 142.3443 11.930813048573
63.8 152.4483 12.3469955859715
63.85 155.6096 12.4743576988958
63.9 145.8877 12.0783980725922
63.95 140.0931 11.8360931054128
64 176.0689 13.2690956737827
64.05 149.2216 12.2156293329488
64.1 145.9098 12.0793128943661
64.15 170.5435 13.0592304520596
64.2 194.9046 13.9608237579306
64.25 200.3035 14.1528619013965
64.3 213.1238 14.5987602213339
64.35 250.4911 15.8269106271565
64.4 254.5631 15.9550336884633
64.45 282.8746 16.8188763001575
64.5 318.9291 17.8585861702432
64.55 336.2723 18.3377288670108
64.6 311.4355 17.6475352386672
64.65 301.7082 17.3697495664157
64.7 271.391 16.473949131887
64.75 258.6956 16.0840169112072
64.8 249.7928 15.8048347033432
64.85 212.302 14.5705868104205
64.9 188.7319 13.737972921796
64.95 172.3543 13.1283776606251
65 160.7817 12.6799723974463
65.05 144.3348 12.0139419009749
65.1 134.7495 11.6081652296993
65.15 144.1733 12.0072186621215
65.2 165.4761 12.8637513968515
65.25 169.49 13.0188325129406
65.3 159.2624 12.6199207604485
65.35 142.0507 11.918502422704
65.4 157.9299 12.5670163523408
65.45 140.758 11.8641476727155
65.5 123.4288 11.1098514841559
65.55 130.5074 11.4239835434055
65.6 132.0702 11.4921799498616
65.65 132.0796 11.4925889163408
65.7 132.0929 11.4931675355404
65.75 139.9459 11.8298732030398
65.8 131.5255 11.4684567401198
65.85 156.1279 12.4951150454888
65.9 150.3933 12.2634946079819
65.95 137.2144 11.7138550443481
66 148.4021 12.1820400590377
66.05 135.7393 11.6507210077317
66.1 142.0078 11.9167025640485
66.15 166.1483 12.8898525980711
66.2 142.5454 11.9392378316206
66.25 148.5386 12.1876412812324
66.3 129.0267 11.3589920327466
66.35 123.9241 11.1321201933863
66.4 132.8096 11.5243047512637
66.45 136.3919 11.6786942763307
66.5 151.9544 12.3269785430169
66.55 134.0208 11.5767352910914
66.6 131.954 11.4871232255948
66.65 134.033 11.5772621979465
66.7 127.0206 11.2703416097295
66.75 129.7755 11.3919050206715
66.8 143.6279 11.9844858045725
66.85 134.6046 11.6019222545232
66.9 125.7217 11.2125688403684
66.95 124.086 11.139389570349
67 140.2776 11.8438844979171
67.05 131.2464 11.4562821194312
67.1 126.5271 11.2484265566345
67.15 124.7504 11.1691718582892
67.2 134.2546 11.586828729208
67.25 127.1067 11.2741607226436
67.3 121.5402 11.0245272007465
67.35 140.9582 11.8725818590566
67.4 140.6919 11.8613616419027
67.45 126.1699 11.2325375583614
67.5 132.399 11.506476437207
67.55 124.7626 11.1697179910685
67.6 140.2644 11.8433272351987
67.65 144.6416 12.0267036215249
67.7 139.3515 11.8047236308183
67.75 147.2523 12.1347558689905
67.8 141.0245 11.8753736783311
67.85 112.9966 10.629985888984
67.9 124.5312 11.1593548200602
67.95 164.1671 12.8127709727443
68 135.0539 11.6212692938422
68.05 138.37 11.7630778285277
68.1 138.1874 11.7553136921139
68.15 134.9221 11.615597272633
68.2 129.9718 11.4005175321123
68.25 130.5913 11.4276550525469
68.3 149.5576 12.2293744729647
68.35 128.7425 11.3464752236102
68.4 142.8812 11.9532924334679
68.45 130.8206 11.437683331864
68.5 119.8859 10.9492419828954
68.55 142.9676 11.9569059543011
68.6 128.7316 11.3459948880651
68.65 118.9986 10.9086479455522
68.7 142.2747 11.927895874797
68.75 151.1929 12.2960522119906
68.8 125.8612 11.2187878133067
68.85 123.2136 11.1001621609776
68.9 139.2506 11.8004491439945
68.95 133.3699 11.5485886583599
69 142.8023 11.9499916317962
69.05 124.9199 11.1767571325497
69.1 121.0696 11.0031631815583
69.15 139.9266 11.8290574434314
69.2 130.8029 11.4369095476007
69.25 144.9817 12.040834688675
69.3 152.4209 12.3458859544384
69.35 137.1294 11.7102263001191
69.4 119.7133 10.941357319821
69.45 149.1347 12.2120718962836
69.5 141.1369 11.8801052183893
69.55 126.0989 11.2293766523347
69.6 112.1718 10.5911189210583
69.65 127.2574 11.2808421671434
69.7 127.8073 11.3051890740491
69.75 115.5831 10.7509580968396
69.8 124.138 11.141723385545
69.85 118.519 10.886643192463
69.9 125.8486 11.2182262412558
69.95 106.3259 10.3114450975603
70 123.1429 11.09697706585
70.05 136.2093 11.6708740032613
70.1 135.0164 11.6196557608218
70.15 131.5949 11.4714820315424
70.2 130.8419 11.4386144265816
70.25 123.6355 11.1191501473809
70.3 132.6817 11.5187542729238
70.35 131.0189 11.4463487628152
70.4 139.9283 11.8291293001641
70.45 132.4788 11.509943527229
70.5 127.4891 11.2911071202075
70.55 150.8441 12.2818606082303
70.6 129.5417 11.3816387220822
70.65 128.6502 11.3424071519233
70.7 128.0452 11.3157058993242
70.75 129.6904 11.3881692997602
70.8 127.5246 11.2926790444075
70.85 127.6506 11.2982565026645
70.9 128.5283 11.3370322395237
70.95 123.1989 11.0994999887382
71 134.2751 11.5877133205823
71.05 142.4624 11.9357613917169
71.1 139.6407 11.8169666158452
71.15 132.2182 11.498617308181
71.2 123.7002 11.1220591618639
71.25 127.2058 11.2785548719683
71.3 138.8684 11.7842437177784
71.35 138.6884 11.7766039247314
71.4 137.9405 11.7448073632563
71.45 127.4986 11.291527797424
71.5 142.456 11.9354932868315
71.55 120.5051 10.9774814962267
71.6 134.2335 11.5859181768214
71.65 150.9419 12.2858414445247
71.7 150.4403 12.2654107146887
71.75 137.9596 11.7456204604099
71.8 123.6324 11.1190107473642
71.85 116.6073 10.7984860049916
71.9 135.0871 11.6226976214646
71.95 133.8586 11.5697277409626
72 137.7938 11.7385603887359
72.05 117.0179 10.8174812225397
72.1 145.8067 12.0750445133755
72.15 136.4698 11.682028933366
72.2 139.3865 11.8062059951536
72.25 144.4098 12.0170628691041
72.3 133.949 11.5736338286642
72.35 137.2251 11.7143117595529
72.4 138.6494 11.7749479829
72.45 134.2688 11.5874414777379
72.5 138.8506 11.7834884478239
72.55 120.9387 10.9972132833732
72.6 129.1453 11.3642113672705
72.65 135.789 11.6528537277355
72.7 107.555 10.3708726730203
72.75 145.0573 12.0439735967827
72.8 129.2193 11.367466736261
72.85 132.9719 11.5313442408073
72.9 138.4205 11.7652241797596
72.95 129.5659 11.3827017882399
73 130.182 11.409732687491
73.05 122.9666 11.0890306158834
73.1 122.4467 11.0655637000561
73.15 126.6237 11.2527196712617
73.2 154.451 12.4278316692817
73.25 119.689 10.9402467979475
73.3 148.9368 12.2039665682925
73.35 136.7897 11.6957128897729
73.4 136.8499 11.6982861992687
73.45 136.4035 11.6791908966332
73.5 136.6053 11.6878270007731
73.55 118.3143 10.8772377008136
73.6 140.1427 11.8381882059714
73.65 150.8682 12.2828416907489
73.7 129.0989 11.362169687168
73.75 130.2355 11.4120769362987
73.8 114.7612 10.7126654012902
73.85 127.5168 11.2923336826362
73.9 138.0832 11.7508808180493
73.95 137.6539 11.732599882379
74 146.239 12.092931819869
74.05 126.743 11.2580193639912
74.1 122.8821 11.0852198895647
74.15 115.6684 10.7549244534771
74.2 129.2883 11.3705013082098
74.25 118.2103 10.8724560242845
74.3 130.5567 11.4261410808724
74.35 154.5138 12.4303579996716
74.4 121.5705 11.0259013237014
74.45 159.4622 12.6278343353086
74.5 128.3033 11.3271046609449
74.55 116.1163 10.7757273536407
74.6 135.7456 11.6509913741278
74.65 112.3296 10.5985659407299
74.7 150.0167 12.248130469586
74.75 155.1515 12.4559824983821
74.8 136.7179 11.6926429860832
74.85 135.7458 11.6509999570852
74.9 134.51 11.5978446273435
74.95 138.5733 11.771716102591
75 131.7694 11.4790853294154
75.05 127.4708 11.2902967188644
75.1 142.0178 11.9171221358179
75.15 132.1824 11.4970604938828
75.2 137.5462 11.7280092087276
75.25 125.2217 11.1902502206162
75.3 140.9245 11.8711625378478
75.35 150.199 12.2555701621752
75.4 143.5449 11.9810224939276
75.45 139.315 11.8031775382733
75.5 120.6834 10.985599665016
75.55 130.7288 11.4336695771742
75.6 130.3116 11.4154106365036
75.65 125.0743 11.1836621908926
75.7 121.7346 11.0333403826765
75.75 122.3344 11.0604882351549
75.8 140.9889 11.8738746835226
75.85 129.2701 11.3697009635258
75.9 131.9482 11.486870766227
75.95 131.8101 11.4808579818757
76 141.13 11.8798148133715
76.05 121.1364 11.0061982537114
76.1 116.9546 10.8145550070264
76.15 135.5631 11.6431567884316
76.2 129.2957 11.3708267069725
76.25 155.5052 12.4701724126012
76.3 136.2786 11.6738425550459
76.35 110.3433 10.504441917589
76.4 138.9666 11.7884095619384
76.45 115.9098 10.7661413700545
76.5 149.3383 12.2204050669362
76.55 162.9437 12.7649402662135
76.6 141.8842 11.9115154367528
76.65 143.6684 11.9861753699835
76.7 119.5405 10.9334578244945
76.75 128.5565 11.3382758830432
76.8 130.502 11.4237471960824
76.85 131.5444 11.4692807097917
76.9 123.2964 11.1038912098417
76.95 127.0602 11.2720982962357
77 142.1507 11.9226968425772
77.05 152.5587 12.3514655000935
77.1 120.8346 10.9924792471944
77.15 139.1195 11.7948929626343
77.2 127.4984 11.2915189412231
77.25 125.3913 11.1978256818009
77.3 136.5813 11.6868002464319
77.35 114.3747 10.6946107923571
77.4 137.7173 11.7353014447862
77.45 124.8155 11.1720857497604
77.5 142.0057 11.9166144521001
77.55 154.5348 12.4312026771347
77.6 155.4347 12.4673453469454
77.65 109.8039 10.47873561075
77.7 114.4009 10.6958356382286
77.75 119.2724 10.9211904113059
77.8 127.3857 11.2865273667324
77.85 120.9693 10.99860445693
77.9 130.9262 11.4422987200999
77.95 133.3943 11.5496450161899
78 142.6608 11.9440696582028
78.05 139.2884 11.8020506692693
78.1 128.6081 11.3405511329917
78.15 120.3656 10.9711257398683
78.2 135.287 11.6312939950807
78.25 127.6014 11.2960789657297
78.3 139.1116 11.7945580671766
78.35 138.9355 11.7870903958526
78.4 116.5379 10.7952721132911
78.45 125.6543 11.2095628817541
78.5 132.5956 11.5150162830975
78.55 131.653 11.4740141188688
78.6 131.8742 11.4836492457755
78.65 118.6001 10.8903673032639
78.7 139.6128 11.8157860508728
78.75 129.3764 11.3743747080884
78.8 116.767 10.8058780300353
78.85 119.8292 10.9466524563448
78.9 133.1875 11.5406888875838
78.95 123.5074 11.1133883221995
79 137.903 11.7432108045457
79.05 121.9865 11.0447498839947
79.1 128.3528 11.3292894746317
79.15 116.8687 10.8105827780005
79.2 133.7493 11.5650032425417
79.25 149.6039 12.2312673096454
79.3 133.3641 11.5483375426942
79.35 131.6692 11.4747200401578
79.4 142.1921 11.9244329005618
79.45 138.3637 11.7628100384219
79.5 126.6278 11.2529018479679
79.55 139.195 11.7980930662544
79.6 125.1054 11.1850525255807
79.65 128.057 11.3162272865121
79.7 144.0803 12.0033453670216
79.75 133.9526 11.573789353535
79.8 137.6901 11.7341424910387
79.85 143.6656 11.9860585681866
79.9 159.8491 12.6431443873745
79.95 123.9148 11.1317024753629
80 152.1929 12.3366486535039
80.05 137.0773 11.7080015374102
80.1 143.7406 11.9891867947747
80.15 144.0305 12.0012707660481
80.2 155.6479 12.4758927536269
80.25 145.3824 12.0574624195973
80.3 140.3024 11.8449314054578
80.35 159.2573 12.6197186973403
80.4 128.2295 11.323846519624
80.45 138.4194 11.7651774317262
80.5 140.4669 11.8518732696566
80.55 142.3402 11.9306412233375
80.6 134.627 11.6028875716349
80.65 135.5035 11.6405970637249
80.7 129.3037 11.371178478944
80.75 132.0226 11.4901087897374
80.8 154.7064 12.4381027492138
80.85 152.2788 12.3401296589623
80.9 150.2912 12.2593311399929
80.95 136.8405 11.697884424117
81 175.1027 13.2326376811277
81.05 139.6921 11.8191412547613
81.1 160.8149 12.6812814809861
81.15 162.7673 12.7580288446139
81.2 152.7949 12.3610234204131
81.25 188.1659 13.7173576172673
81.3 175.4245 13.2447914290864
81.35 212.5377 14.5786727790976
81.4 218.5654 14.783957521584
81.45 238.9963 15.4595051667251
81.5 264.5183 16.2640185686072
81.55 279.5069 16.7184598572955
81.6 324.9145 18.0253848779991
81.65 388.922 19.7211054456894
81.7 424.5534 20.6046936400423
81.75 504.993 22.4720493057487
81.8 533.7336 23.102675169772
81.85 652.7449 25.5488727735687
81.9 670.1488 25.8872323742806
81.95 635.0283 25.1997678560736
82 582.256 24.1299813510081
82.05 482.8865 21.9746786097089
82.1 449.9599 21.2122582484751
82.15 385.9541 19.6457145454168
82.2 311.1356 17.6390362548525
82.25 279.2646 16.7112118052522
82.3 247.6022 15.7353805165303
82.35 217.3636 14.7432560854107
82.4 191.9176 13.8534327875801
82.45 194.7224 13.9542968292924
82.5 182.4793 13.5084899230077
82.55 130.0766 11.405112888525
82.6 164.7277 12.8346289389292
82.65 162.2444 12.7375193817321
82.7 147.1855 12.1320031322119
82.75 136.5773 11.6866291119381
82.8 144.168 12.0069979595234
82.85 170.0112 13.0388343037252
82.9 164.4088 12.8221994993059
82.95 137.4879 11.7255234424737
83 145.2368 12.0514231524746
83.05 143.2032 11.9667539458284
83.1 136.1595 11.6687402919081
83.15 115.1093 10.7289002232288
83.2 123.5048 11.113271345558
83.25 135.6842 11.6483561071938
83.3 126.5889 11.2511732721526
83.35 123.5548 11.1155206805619
83.4 111.7682 10.5720480513475
83.45 121.4748 11.0215606880333
83.5 124.644 11.164407731716
83.55 115.4164 10.7432025020475
83.6 143.2373 11.9681786417149
83.65 138.036 11.748872286309
83.7 133.9892 11.5753704044406
83.75 140.2842 11.8441631194441
83.8 116.6169 10.7989305026007
83.85 160.9057 12.6848610556048
83.9 152.2154 12.3375605368322
83.95 118.8644 10.9024951272633
84 136.1302 11.6674847332234
84.05 116.7511 10.8051422942967
84.1 135.4 11.6361505662311
84.15 123.788 11.1260055725314
84.2 142.2813 11.9281725339634
84.25 133.06 11.5351636312625
84.3 137.7652 11.737342118214
84.35 116.4682 10.7920433653688
84.4 128.1065 11.318414199878
84.45 128.6219 11.3411595527089
84.5 110.4758 10.5107468811688
84.55 150.7803 12.2792630072004
84.6 130.439 11.4209894492553
84.65 153.633 12.3948779743893
84.7 142.728 11.9468824385276
84.75 147.9795 12.1646824866085
84.8 116.7792 10.8064425228657
84.85 121.9375 11.0425314126789
84.9 138.4011 11.7643996871919
84.95 171.0753 13.0795756811909
85 127.9421 11.3111493668858
85.05 138.8623 11.7839848947629
85.1 145.4137 12.0587603011255
85.15 118.8856 10.9034673384204
85.2 136.8659 11.698970040136
85.25 129.6921 11.3882439383779
85.3 152.5246 12.3500850199503
85.35 125.3686 11.1968120462925
85.4 135.7205 11.6499141627739
85.45 130.5747 11.4269287212269
85.5 119.1447 10.915342413319
85.55 123.6865 11.1214432516648
85.6 138.3219 11.7610331178855
85.65 126.3729 11.2415701750245
85.7 114.878 10.718115506002
85.75 135.4924 11.6401202742927
85.8 115.153 10.7309365854058
85.85 120.9822 10.9991908793329
85.9 127.753 11.3027872668648
85.95 131.0834 11.4491659084843
86 123.2356 11.1011530932602
86.05 120.9558 10.9979907255826
86.1 140.4507 11.8511898136854
86.15 144.4478 12.0186438502853
86.2 133.1984 11.5411611200953
86.25 123.3446 11.106061408078
86.3 149.6223 12.2320194571461
86.35 129.0499 11.3600132042177
86.4 135.7597 11.6515964571384
86.45 148.9372 12.2039829563958
86.5 139.3922 11.8064473911503
86.55 130.4058 11.4195358924958
86.6 135.9558 11.6600085763262
86.65 124.4425 11.1553798680278
86.7 122.8495 11.0837493656253
86.75 114.648 10.7073806320687
86.8 141.2379 11.8843552622765
86.85 119.2942 10.9221884254027
86.9 137.3436 11.7193685836738
86.95 124.2845 11.1482958338932
87 138.325 11.7611649082903
87.05 121.3226 11.0146538756331
87.1 133.1431 11.538765098571
87.15 124.0512 11.1378274362642
87.2 124.1862 11.1438862162174
87.25 122.0697 11.0485157374192
87.3 127.3255 11.2838601551065
87.35 111.9618 10.5812003099837
87.4 142.6326 11.9428890977016
87.45 121.6473 11.0293834823167
87.5 129.7594 11.391198356626
87.55 132.6082 11.515563381789
87.6 123.2049 11.0997702678929
87.65 152.7201 12.357997410584
87.7 134.5892 11.6012585524158
87.75 137.5576 11.7284952146471
87.8 108.3893 10.4110182018859
87.85 141.0356 11.8758410228497
87.9 137.4816 11.7252547946729
87.95 121.6645 11.0301631900893
88 125.0232 11.1813773749033
88.05 143.8488 11.9936983453812
88.1 124.5205 11.1588753913645
88.15 141.2452 11.8846623847714
88.2 121.7959 11.0361179768975
88.25 124.7373 11.1685854072931
88.3 117.9898 10.8623109879988
88.35 117.7916 10.8531838646546
88.4 108.5281 10.4176820838419
88.45 141.5485 11.8974156857697
88.5 119.0887 10.9127769151578
88.55 106.3574 10.3129724134218
88.6 128.8508 11.3512466275736
88.65 120.3033 10.9682861013013
88.7 144.0319 12.001329093063
88.75 123.1051 11.0952737685917
88.8 141.4338 11.8925943342906
88.85 125.4457 11.2002544613951
88.9 127.8047 11.3050740820218
88.95 120.2433 10.965550601771
89 155.1102 12.4543245501312
89.05 153.6508 12.3955959921256
89.1 140.6413 11.8592284740619
89.15 132.6157 11.5158890234319
89.2 131.9938 11.4888554695409
89.25 126.4195 11.2436426481812
89.3 127.63 11.2973448207975
89.35 134.6535 11.6040294725582
89.4 149.6112 12.2315657215256
89.45 138.5292 11.7698428196812
89.5 111.8186 10.5744314267955
89.55 154.8228 12.4427810396229
89.6 125.1995 11.1892582417245
89.65 114.6568 10.707791555685
89.7 118.1458 10.8694894084313
89.75 155.6351 12.475379753739
89.8 121.8208 11.0372460333183
89.85 116.1544 10.7774950707481
89.9 135.5279 11.641645072755
89.95 162.9122 12.7637063582644
90 135.6558 11.64713698726
90.05 129.6372 11.3858333028373
90.1 116.5995 10.7981248372113
90.15 142.1924 11.9244454797697
90.2 145.966 12.0816389616641
90.25 144.2805 12.0116818139676
90.3 132.051 11.4913445688483
90.35 135.6762 11.648012706037
90.4 143.2512 11.9687593342
90.45 145.0176 12.0423253568403
90.5 127.5661 11.2945163685746
90.55 142.6103 11.9419554512651
90.6 153.5952 12.3933530571835
90.65 135.0374 11.6205593669152
90.7 115.7397 10.758238703431
90.75 135.1418 11.6250505375246
90.8 123.0285 11.0918213112185
90.85 126.9147 11.2656424583776
90.9 149.056 12.2088492496222
90.95 139.6865 11.8189043485426
91 138.6679 11.7757335228002
91.05 123.3381 11.1057687712288
91.1 121.7511 11.0340880910024
91.15 131.3574 11.4611255991722
91.2 138.8934 11.7853044084572
91.25 137.2111 11.7137141846641
91.3 120.4705 10.9759054296217
91.35 142.4161 11.9338216846072
91.4 137.5565 11.728448320217
91.45 134.8587 11.6128678628494
91.5 131.8741 11.483644891758
91.55 122.1417 11.0517736133166
91.6 125.785 11.2153912102967
91.65 114.8354 10.7161280320832
91.7 147.8824 12.1606907698535
91.75 130.4399 11.4210288503269
91.8 121.4449 11.0202041723373
91.85 126.949 11.2671646832733
91.9 129.9422 11.3992192715115
91.95 142.8574 11.9522968503966
92 116.6984 10.8027033653618
92.05 141.4145 11.8917828772645
92.1 137.0169 11.7054218206778
92.15 129.4648 11.3782599724211
92.2 122.9476 11.0881738803105
92.25 141.4571 11.8935738951755
92.3 144.1983 12.0082596574191
92.35 111.6909 10.568391552171
92.4 125.4519 11.2005312374012
92.45 126.593 11.2513554738974
92.5 124.5506 11.1602240120886
92.55 126.3709 11.2414812191277
92.6 133.8136 11.5677828472011
92.65 98.7531 9.93745943387947
92.7 113.3292 10.6456188171473
92.75 125.1149 11.18547719143
92.8 139.9358 11.8294463099504
92.85 123.2572 11.1021259225429
92.9 133.0088 11.5329441167466
92.95 142.411 11.9336080042877
93 132.6579 11.517721128765
93.05 130.8505 11.4389903400606
93.1 149.6759 12.2342102319684
93.15 124.3506 11.1512600184912
93.2 138.3784 11.7634348725192
93.25 119.5619 10.9344364280927
93.3 139.6786 11.8185701334806
93.35 132.7847 11.5232243751478
93.4 124.9511 11.1781527990988
93.45 138.5454 11.7705309990671
93.5 125.8767 11.2194785975107
93.55 143.7248 11.9885278495735
93.6 116.7305 10.8041890024194
93.65 140.0557 11.8345130867307
93.7 141.8601 11.9105037676834
93.75 127.1792 11.2773755812246
93.8 125.8507 11.2183198385498
93.85 129.3332 11.3724755440493
93.9 126.61 11.2521109130687
93.95 109.0256 10.4415324545777
94 125.1349 11.1863711721005
94.05 117.1548 10.8238070936247
94.1 116.1828 10.7788125505549
94.15 141.1293 11.8797853515962
94.2 135.6685 11.6476821728617
94.25 132.4279 11.5077321831888
94.3 135.575 11.64366780701
94.35 113.6893 10.6625184642279
94.4 122.4728 11.0667429716245
94.45 139.1444 11.7959484569915
94.5 147.6114 12.1495432012895
94.55 112.7755 10.6195809710176
94.6 115.0448 10.7258939021417
94.65 121.024 11.0010908550016
94.7 127.2098 11.278732198257
94.75 132.0839 11.4927759919003
94.8 127.9284 11.3105437535072
94.85 128.5187 11.3366088403896
94.9 137.8934 11.7428020506181
94.95 123.9525 11.1333957084081
95 142.5615 11.9399120599777
95.05 140.531 11.854577175083
95.1 130.615 11.4286919636501
95.15 141.6782 11.9028652012866
95.2 118.8027 10.8996651324708
95.25 117.4073 10.835464918498
95.3 143.1238 11.9634359612947
95.35 137.6779 11.7336226290093
95.4 108.0792 10.3961146588521
95.45 133.723 11.5638661355102
95.5 119.1536 10.9157500887479
95.55 132.5161 11.5115637512894
95.6 140.9146 11.870745553671
95.65 158.0615 12.5722511906182
95.7 129.4745 11.3786862159038
95.75 149.8954 12.2431776920863
95.8 132.5805 11.5143605988348
95.85 143.1534 11.9646730001283
95.9 138.2369 11.7574189344431
95.95 131.5692 11.4703618077199
96 138.1191 11.7524082638411
96.05 128.9448 11.3553863870852
96.1 126.9956 11.2692324494617
96.15 124.9378 11.1775578728092
96.2 127.6577 11.2985707060672
96.25 143.2926 11.9704887118279
96.3 134.7695 11.6090266603191
96.35 129.7558 11.3910403387926
96.4 127.4845 11.2909034182389
96.45 138.919 11.7863904567938
96.5 133.5569 11.5566820497927
96.55 129.8101 11.3934235416753
96.6 125.0643 11.1832151012131
96.65 139.7417 11.8212393597287
96.7 120.1564 10.9615874762737
96.75 139.8748 11.8268677171938
96.8 99.2946 9.96466758100841
96.85 133.2484 11.5433270767141
96.9 132.6857 11.5189279015019
96.95 139.9249 11.8289855862622
97 116.2872 10.7836542971295
97.05 143.0671 11.9610660060046
97.1 120.9137 10.9960765730328
97.15 154.7448 12.4396462972224
97.2 153.7987 12.4015603856934
97.25 145.9842 12.082392147253
97.3 137.1294 11.7102263001191
97.35 161.6716 12.715014746354
97.4 139.8124 11.8242293617808
97.45 129.4337 11.3768932490377
97.5 147.0716 12.1273080277529
97.55 155.033 12.4512248393481
97.6 155.7454 12.4797996778794
97.65 150.096 12.2513672706356
97.7 160.4171 12.6655872347081
97.75 152.8617 12.3637251667934
97.8 157.6345 12.5552578627442
97.85 180.254 13.4258705490557
97.9 185.0091 13.6018050272749
97.95 143.7253 11.9885487028247
98 184.4694 13.5819512589318
98.05 217.7049 14.7548263290355
98.1 246.3657 15.6960409020874
98.15 279.8331 16.7282126959218
98.2 299.6797 17.3112593418272
98.25 335.8035 18.3249420190079
98.3 370.7512 19.2549006748931
98.35 355.3569 18.8509124447598
98.4 366.628 19.1475324781028
98.45 366.5952 19.1466759517155
98.5 353.1466 18.7921951884286
98.55 309.305 17.587069113414
98.6 255.2573 15.9767737669406
98.65 252.4166 15.8876241143854
98.7 234.9916 15.3294357365169
98.75 208.0888 14.4252833594353
98.8 202.5985 14.2337099872099
98.85 164.5028 12.8258644932808
98.9 187.8773 13.7068340618831
98.95 161.2836 12.6997480289965
99 161.8186 12.7207940003759
99.05 164.8225 12.8383215413854
99.1 149.7283 12.2363515804344
99.15 165.3382 12.858390256949
99.2 151.6985 12.3165944968567
99.25 137.1863 11.7126555485936
99.3 144.1068 12.0044491752017
99.35 120.517 10.9780235015234
99.4 133.237 11.5428332743742
99.45 150.2169 12.2563004206
99.5 117.8696 10.8567766855545
99.55 127.9998 11.3136996601465
99.6 112.3311 10.5986367047843
99.65 111.1611 10.5432964484548
99.7 133.4041 11.5500692638616
99.75 150.1253 12.2525629971855
99.8 115.3573 10.7404515733744
99.85 120.6248 10.9829322132116
99.9 124.7795 11.170474475151
99.95 152.6189 12.3539022175182
100 123.2968 11.1039092215309
100.05 121.1029 11.0046762787462
100.1 139.7734 11.822580090657
100.15 118.91 10.9045861911399
100.2 125.5071 11.2029951352306
100.25 142.3915 11.932790956017
100.3 135.2 11.6275534829989
100.35 141.5982 11.8995041913518
100.4 95.9626 9.79605022445271
100.45 117.0207 10.8176106419116
100.5 125.6485 11.2093041710893
100.55 115.2055 10.7333825050634
100.6 146.4755 12.1027063089212
100.65 129.2959 11.3708355014045
100.7 151.0335 12.2895687475192
100.75 125.7376 11.2132778436994
100.8 142.9832 11.9575582791806
100.85 131.2283 11.4554921325974
100.9 127.5629 11.2943747060207
100.95 124.1174 11.1407988941548
101 133.7794 11.5663045092199
101.05 136.9712 11.7034695710289
101.1 117.8002 10.8535800545258
101.15 126.4953 11.2470129367757
101.2 147.616 12.1497325073435
101.25 130.7824 11.4360132913529
101.3 151.5497 12.3105523840322
101.35 130.6885 11.4319071024917
101.4 156.8935 12.5257135525287
101.45 142.6206 11.9423866961341
101.5 128.3242 11.3280271892329
101.55 134.6694 11.6047145591781
101.6 137.1087 11.7093424238938
101.65 113.1175 10.6356711118763
101.7 125.5271 11.2038877181093
101.75 131.5788 11.4707802698857
101.8 119.6652 10.939159017036
101.85 142.9837 11.9575791864407
101.9 124.9973 11.1802191391761
101.95 122.1938 11.0541304497459
102 132.3377 11.5038124115443
102.05 128.4591 11.3339798835184
102.1 143.8006 11.9916887884901
102.15 137.0101 11.7051313533851
102.2 105.5752 10.274979318714
102.25 123.7113 11.1225581589848
102.3 109.2833 10.4538653138444
102.35 146.5912 12.1074852880357
102.4 137.4325 11.7231608365662
102.45 143.3869 11.9744269173936
102.5 144.9737 12.040502481209
102.55 110.6702 10.5199904942923
102.6 116.5405 10.7953925357071
102.65 134.5229 11.5984007518278
102.7 133.1693 11.5399003461902
102.75 121.2347 11.0106630136427
102.8 129.8717 11.396126534924
102.85 136.0145 11.662525455492
102.9 130.6177 11.4288100867938
102.95 127.6182 11.296822562119
103 113.7006 10.6630483446339
103.05 138.0941 11.7513446039166
103.1 132.5269 11.5120328352555
103.15 144.1661 12.0069188387363
103.2 138.2087 11.7562196304765
103.25 110.8595 10.5289838066169
103.3 111.8798 10.5773248035597
103.35 132.134 11.4949554153115
103.4 121.6753 11.0306527458714
103.45 136.5081 11.6836680884044
103.5 132.0131 11.4896953832554
103.55 138.0657 11.7501361694237
103.6 129.2127 11.367176430407
103.65 129.5703 11.3828950623293
103.7 127.4617 11.2898937107486
103.75 130.9196 11.4420103128777
103.8 127.459 11.2897741341446
103.85 131.4398 11.4647197959654
103.9 128.2169 11.3232901579002
103.95 127.8756 11.3082094073288
104 131.776 11.4793728051667
104.05 128.6805 11.3437427685927
104.1 129.2539 11.3689885214121
104.15 124.4318 11.1549002684919
104.2 129.8781 11.3964073286277
104.25 124.1384 11.1417413360749
104.3 130.586 11.4274231566001
104.35 128.4026 11.3314871045243
104.4 117.1157 10.8220007392349
104.45 115.2653 10.7361678451857
104.5 137.1742 11.7121390019074
104.55 107.4842 10.3674587050058
104.6 128.2971 11.3268309778155
104.65 127.7166 11.30117692986
104.7 134.1964 11.5843169846133
104.75 107.503 10.3683653485012
104.8 131.1183 11.4506899355454
104.85 131.0458 11.4475237497024
104.9 151.2579 12.2986950527282
104.95 131.6666 11.4746067470742
105 126.5882 11.2511421642427
105.05 130.4862 11.4230556332358
105.1 125.989 11.2244821706839
105.15 132.6328 11.5166314519481
105.2 115.9169 10.7664711024551
105.25 130.5721 11.4268149543081
105.3 139.893 11.8276371266623
105.35 134.2469 11.5864964506101
105.4 118.3943 10.8809144836268
105.45 122.2942 11.0586708062045
105.5 110.333 10.5039516373601
105.55 114.7435 10.7118392444995
105.6 112.3574 10.5998773577811
105.65 126.1219 11.2304007052286
105.7 152.5636 12.3516638555297
105.75 130.3948 11.4190542515569
105.8 116.329 10.7855922415044
105.85 111.3526 10.5523741404482
105.9 122.7913 11.0811235892395
105.95 121.511 11.023202801364
106 127.9177 11.3100707336427
106.05 138.3293 11.7613477118908
106.1 129.1969 11.3664814256656
106.15 124.8763 11.1748064860202
106.2 135.6165 11.6454497551619
106.25 132.8336 11.5253459817916
106.3 117.5431 10.8417295668173
106.35 135.2106 11.628009287922
106.4 117.7168 10.8497373240093
106.45 132.1947 11.4975954007784
106.5 107.476 10.3670632292853
106.55 138.7259 11.7781959569367
106.6 124.2398 11.1462908628835
106.65 113.3609 10.6471075884486
106.7 121.2983 11.0135507444239
106.75 116.4934 10.7932108290351
106.8 144.5021 12.0209026283387
106.85 138.3104 11.7605442050953
106.9 147.2923 12.1364039154933
106.95 121.3045 11.0138322122684
107 142.3073 11.9292623409832
107.05 122.471 11.0666616465852
107.1 125.5397 11.2044500088135
107.15 109.221 10.4508851299782
107.2 120.7095 10.9867875195618
107.25 124.2961 11.1488160806428
107.3 108.5709 10.4197360811107
107.35 130.5883 11.4275237912682
107.4 121.7891 11.0358098932521
107.45 123.9111 11.1315362821131
107.5 130.1664 11.409049040126
107.55 110.4882 10.5113367370663
107.6 113.4076 10.6493004465082
107.65 109.4533 10.4619931179484
107.7 118.3312 10.8780145247191
107.75 120.5527 10.9796493568784
107.8 120.6184 10.9826408481749
107.85 129.4129 11.3759790787431
107.9 118.1146 10.8680541036563
107.95 125.6417 11.2090008475332
108 114.8755 10.7179988803881
108.05 112.0377 10.584786251975
108.1 149.8484 12.2412581052766
108.15 126.8127 11.2611145096744
108.2 134.9246 11.6157048860584
108.25 119.6368 10.9378608511902
108.3 129.6979 11.3884985840979
108.35 121.4188 11.0190199201199
108.4 109.9166 10.4841117887974
108.45 127.2546 11.2807180622512
108.5 135.1259 11.6243666494136
108.55 134.3704 11.5918247053689
108.6 137.3062 11.7177728259256
108.65 144.6203 12.0258180594918
108.7 130.7879 11.4362537572406
108.75 133.9708 11.5745755861716
108.8 109.8429 10.4805963570782
108.85 118.692 10.8945858113101
108.9 117.1032 10.821423196604
108.95 131.3756 11.4619195600039
109 138.5084 11.7689591723313
109.05 112.6048 10.6115408871662
109.1 132.4562 11.5089617255424
109.15 135.5286 11.6416751371957
109.2 110.0609 10.4909913735547
109.25 147.0146 12.1249577318851
109.3 121.4995 11.0226811620404
109.35 127.6849 11.2997743340299
109.4 117.8138 10.8542065578282
109.45 133.194 11.5409704964531
109.5 126.08 11.2285350780946
109.55 132.8426 11.5257364189886
109.6 132.645 11.5171611085371
109.65 134.7481 11.6081049271619
109.7 120.3272 10.9693755519628
109.75 136.8225 11.6971150289291
109.8 127.3319 11.2841437424379
109.85 122.0785 11.0489139737804
109.9 132.198 11.4977389081506
109.95 121.3428 11.015570797739
110 137.5702 11.7290323556549
110.05 126.5716 11.2504044371747
110.1 137.3083 11.7178624330549
110.15 128.9637 11.356218560771
110.2 147.407 12.1411284483774
110.25 127.5881 11.295490250538
110.3 109.9856 10.4874019661687
110.35 109.7342 10.4754092998794
110.4 135.8885 11.6571222863964
110.45 127.729 11.3017255319708
110.5 121.2136 11.0097048098484
110.55 125.3718 11.1969549431977
110.6 131.9904 11.4887074991054
110.65 146.1106 12.0876217677424
110.7 113.453 10.6514318286322
110.75 128.1008 11.318162395018
110.8 102.8615 10.1420658645071
110.85 145.5648 12.0650238292347
110.9 139.922 11.828863005378
110.95 132.1463 11.4954904201604
111 136.803 11.6962814603617
111.05 113.2226 10.640610884719
111.1 143.0167 11.9589589847946
111.15 115.9992 10.7702924751373
111.2 117.0017 10.8167324086343
111.25 113.6816 10.6621573801928
111.3 132.3837 11.5058115750259
111.35 142.1957 11.9245838501811
111.4 115.439 10.7442542784504
111.45 131.1345 11.4513972946536
111.5 133.918 11.5722945002277
111.55 128.6447 11.3421646963884
111.6 133.6249 11.5596236962974
111.65 145.6278 12.0676343995002
111.7 131.3427 11.4604842829612
111.75 130.7275 11.4336127273929
111.8 136.0297 11.6631770971721
111.85 161.0792 12.6916980739379
111.9 113.3166 10.6450270079507
111.95 127.0855 11.2732204804129
112 121.4781 11.0217103935823
112.05 142.3612 11.9315212776913
112.1 147.357 12.1390691570647
112.15 129.5391 11.3815245024557
112.2 135.5034 11.6405927684118
112.25 127.6962 11.3002743329532
112.3 124.2531 11.1468874579409
112.35 135.006 11.6192082346432
112.4 132.9524 11.5304986882615
112.45 111.2636 10.5481562369923
112.5 121.3557 11.0161563169737
112.55 123.7171 11.1228188873145
112.6 127.0535 11.2718010983161
112.65 125.1785 11.1883198023653
112.7 137.5019 11.7261204155509
112.75 134.078 11.5792054995151
112.8 115.1933 10.7328141696388
112.85 122.0697 11.0485157374192
112.9 135.7212 11.649944205875
112.95 128.729 11.3458803096102
113 111.785 10.5728425695269
113.05 139.2809 11.8017329236007
113.1 146.8581 12.1185023827204
113.15 110.5406 10.5138289885274
113.2 102.5746 10.1279119269472
113.25 122.2484 11.0565998390102
113.3 121.7582 11.0344098165693
113.35 125.844 11.218021215883
113.4 134.3744 11.5919972394752
113.45 147.0202 12.1251886583261
113.5 143.9927 11.9996958294783
113.55 160.0201 12.6499051379842
113.6 144.0118 12.0004916565947
113.65 140.0999 11.8363803588766
113.7 143.7491 11.9895412756285
113.75 144.5587 12.023256630381
113.8 139.0535 11.7920948096596
113.85 128.9214 11.3543559923053
113.9 126.9273 11.2662016669328
113.95 124.3183 11.1498116576021
114 127.0306 11.2707852432739
114.05 137.479 11.7251439223576
114.1 133.0233 11.5335727335462
114.15 135.0782 11.62231474363
114.2 136.7801 11.6953024757806
114.25 123.0504 11.0928084811737
114.3 154.6566 12.4361006750508
114.35 144.1372 12.0057153056367
114.4 154.3349 12.423159823491
114.45 147.189 12.1321473779377
114.5 157.9371 12.5673028132531
114.55 170.7166 13.0658562673864
114.6 169.8797 13.0337906995624
114.65 184.6566 13.5888410101818
114.7 166.1106 12.8883901244492
114.75 162.0011 12.7279652733656
114.8 192.8036 13.8853735995831
114.85 163.6763 12.7936038706848
114.9 170.0212 13.0392177679491
114.95 200.7286 14.1678721055775
115 190.5214 13.8029489602766
115.05 212.5467 14.5789814459036
115.1 206.9854 14.386987175917
115.15 247.9229 15.7455676302888
115.2 235.8501 15.3574118913312
115.25 234.825 15.3240007830853
115.3 243.4641 15.6033361817273
115.35 248.5851 15.766581747481
115.4 244.5042 15.6366300717258
115.45 257.191 16.0371755618002
115.5 240.1624 15.4971739359149
115.55 295.2056 17.1815482422278
115.6 212.5011 14.5774174667532
115.65 240.855 15.5195038580491
115.7 234.6797 15.3192591204666
115.75 189.9824 13.783410318205
115.8 203.9645 14.2816140544408
115.85 184.0567 13.5667497949951
115.9 205.0527 14.3196613088439
115.95 178.1256 13.3463702930797
116 175.4193 13.2445951240497
116.05 184.2617 13.5743029286958
116.1 184.2305 13.5731536497603
116.15 164.7474 12.8353963709735
116.2 165.9499 12.8821543229384
116.25 163.4761 12.7857772544339
116.3 163.3221 12.7797535187499
116.35 156.9421 12.5276534115532
116.4 139.6884 11.8189847279705
116.45 147.6658 12.151781762359
116.5 152.4033 12.3451731458089
116.55 137.3948 11.7215527981578
116.6 132.9646 11.5310277078845
116.65 138.0321 11.7487063117605
116.7 121.2927 11.0132965092201
116.75 142.9252 11.9551327888903
116.8 135.4742 11.6393384691743
116.85 148.5747 12.189122199732
116.9 142.896 11.9539114937329
116.95 144.7621 12.0317122638467
117 147.9117 12.1618954114891
117.05 137.3216 11.7184299289623
117.1 151.2649 12.2989796324736
117.15 118.4599 10.8839285186921
117.2 143.9273 11.9969704509097
117.25 135.1424 11.6250763438353
117.3 124.579 11.1614963154588
117.35 145.3308 12.0553224759855
117.4 143.9568 11.9981998649797
117.45 143.0332 11.9596488242757
117.5 123.7845 11.1258482822659
117.55 118.1116 10.8679160835921
117.6 125.5904 11.206712274347
117.65 130.8101 11.4372243136174
117.7 119.3673 10.9255343118769
117.75 129.2915 11.370642022331
117.8 145.8158 12.0754213177015
117.85 137.7305 11.7358638369743
117.9 130.7776 11.4358034260825
117.95 134.6981 11.6059510596935
118 127.3566 11.2852381454713
118.05 140.7389 11.8633426992564
118.1 130.5159 11.4243555616936
118.15 143.3306 11.9720758433949
118.2 128.7566 11.3470965449317
118.25 119.8873 10.9493059140751
118.3 146.0288 12.0842376673086
118.35 127.3716 11.2859027109044
118.4 134.1471 11.5821889122911
118.45 117.5154 10.8404520200958
118.5 130.5316 11.4250426695046
118.55 130.8648 11.4396153781497
118.6 122.0991 11.0498461527752
118.65 120.1833 10.9628144196643
118.7 111.4015 10.5546909002585
118.75 108.3851 10.4108164905544
118.8 133.5918 11.55819190012
118.85 133.7009 11.5629105332524
118.9 138.4211 11.7652496786086
118.95 120.9334 10.9969723105953
119 101.1573 10.0576985439016
119.05 117.6608 10.8471563093744
119.1 121.5817 11.0264092069903
119.15 129.4333 11.3768756695325
119.2 139.0121 11.790339265687
119.25 136.3239 11.6757826290146
119.3 119.6455 10.938258545125
119.35 123.8179 11.127349190171
119.4 132.0986 11.4934155062801
119.45 128.3043 11.3271488027659
119.5 123.4499 11.1108010512294
119.55 141.8641 11.9106716855096
119.6 123.0158 11.091248802547
119.65 131.99 11.4886900906935
119.7 134.2803 11.5879376939989
119.75 130.1422 11.4079884291666
119.8 134.1744 11.5833673860411
119.85 137.209 11.7136245458014
119.9 164.0306 12.8074431484196
119.95 130.1945 11.4102804522939
120 114.8911 10.718726603473
120.05 117.8382 10.8553304878295
120.1 122.4458 11.0655230332777
120.15 135.1617 11.6259064162757
120.2 103.2558 10.161486111785
120.25 113.581 10.6574387166899
120.3 147.2137 12.1331652918766
120.35 127.799 11.3048219800225
120.4 115.8802 10.7647666022074
120.45 119.359 10.9251544611507
120.5 132.9379 11.5298699038627
120.55 134.5889 11.6012456227769
120.6 133.5332 11.5556566234896
120.65 140.1538 11.8386570184291
120.7 131.7666 11.4789633678307
120.75 118.9344 10.9057049290727
120.8 135.6933 11.6487467137027
120.85 132.3265 11.5033256061019
120.9 132.3972 11.5063982201208
120.95 129.4775 11.3788180405524
121 119.7867 10.9447110514623
121.05 154.0955 12.4135208542943
121.1 130.027 11.4029382178454
121.15 130.1992 11.4104864050574
121.2 132.7377 11.521184834903
121.25 139.4064 11.8070487421709
121.3 133.6491 11.5606703957859
121.35 125.0284 11.1816099019774
121.4 126.2957 11.2381359664314
121.45 152.3503 12.3430263711944
121.5 124.5446 11.1599551970427
121.55 136.9551 11.7027817205996
121.6 129.9646 11.4002017526007
121.65 140.5721 11.8563105559866
121.7 131.9337 11.486239593531
121.75 130.2723 11.4136891494381
121.8 119.6701 10.9393829807718
121.85 121.3252 11.0147718995901
121.9 133.2349 11.5427423084811
121.95 143.9895 11.9995624920244
122 139.0832 11.7933540606564
122.05 118.8477 10.9017292206328
122.1 136.1329 11.667600438822
122.15 131.5647 11.4701656483244
122.2 118.6096 10.8908034598004
122.25 117.1628 10.8241766430523
122.3 142.126 11.9216609581048
122.35 124.1223 11.1410188044003
122.4 127.0042 11.269614012911
122.45 136.5472 11.6853412444823
122.5 123.8234 11.1275963262512
122.55 130.9823 11.4447498880491
122.6 106.5543 10.322514228617
122.65 120.2183 10.9644106088745
122.7 128.1004 11.3181447242912
122.75 131.1548 11.45228361507
122.8 133.9588 11.5740571970247
122.85 125.8646 11.2189393438061
122.9 141.495 11.8951670858378
122.95 125.9027 11.2206372368061
123 107.7223 10.3789353981996
123.05 124.3837 11.1527440569575
123.1 126.3346 11.2398665472505
123.15 131.701 11.4761056112254
123.2 135.1491 11.6253645104143
123.25 123.7691 11.125156178679
123.3 125.3114 11.1942574563925
123.35 120.4728 10.9760102040769
123.4 140.6593 11.8599873524385
123.45 127.6871 11.2998716806874
123.5 104.7216 10.2333572203847
123.55 114.0016 10.6771531786333
123.6 115.8721 10.7643903682466
123.65 133.871 11.5702636097887
123.7 125.004 11.1805187715061
123.75 122.5941 11.0722219992195
123.8 109.8372 10.4803244224595
123.85 120.8928 10.9951261930002
123.9 139.566 11.8138054834164
123.95 135.4886 11.6399570445943
124 143.9783 11.9990957992675
124.05 124.0232 11.1365703876912
124.1 115.8186 10.7619050358196
124.15 131.666 11.4745806023575
124.2 105.058 10.2497804854543
124.25 118.0501 10.8650862858976
124.3 97.2529 9.86168849639857
124.35 131.8401 11.4821644301064
124.4 128.7124 11.345148742965
124.45 137.7743 11.7377297634594
124.5 132.2976 11.5020693790291
124.55 113.2425 10.6415459403228
124.6 109.8413 10.4805200252659
124.65 122.0058 11.0456235677303
124.7 131.4809 11.4665121113615
124.75 136.7362 11.6934255032475
124.8 125.0895 11.1843417329765
124.85 145.7134 12.0711805553558
124.9 141.5127 11.8959110622096
124.95 141.7462 11.9057213137214
125 115.6614 10.7545990162349
125.05 131.9293 11.4860480584055
125.1 121.6236 11.0283090272262
125.15 152.3729 12.3439418339524
125.2 139.6416 11.8170046966226
125.25 124.7661 11.1698746635761
125.3 143.2166 11.9673138172273
125.35 134.8892 11.614180987052
125.4 130.2401 11.4122784753966
125.45 124.8391 11.1731419036903
125.5 123.0357 11.0921458699388
125.55 128.9197 11.3542811309215
125.6 112.0716 10.5863874858235
125.65 126.4155 11.2434647684777
125.7 126.1552 11.2318831902758
125.75 146.2402 12.092981435527
125.8 128.9439 11.3553467582457
125.85 112.485 10.6058945874452
125.9 142.5777 11.9405904376626
125.95 135.8983 11.6575426226971
126 129.7202 11.3894775999604
126.05 118.7186 10.8958065327905
126.1 120.7778 10.9898953589195
126.15 130.539 11.4253665149088
126.2 132.7793 11.5229900633473
126.25 133.621 11.5594550044541
126.3 124.4345 11.1550212908806
126.35 136.2319 11.6718421853622
126.4 137.8716 11.7418737857294
126.45 112.9805 10.629228570315
126.5 142.8791 11.9532045912383
126.55 131.6295 11.4729900200427
126.6 115.4772 10.7460318257485
126.65 136.0513 11.664103051671
126.7 120.4647 10.975641211337
126.75 122.8235 11.0825764152565
126.8 109.2677 10.4531191517173
126.85 110.3756 10.5059792499319
126.9 105.4852 10.2705988140906
126.95 132.6672 11.5181248473873
127 147.7826 12.1565866919954
127.05 108.3158 10.4074876891592
127.1 126.6846 11.255425358466
127.15 115.7716 10.7597211859788
127.2 126.6412 11.2534972341935
127.25 130.1098 11.4065682832305
127.3 109.2053 10.4501339704331
127.35 134.5306 11.5987326893933
127.4 133.2462 11.5432317831706
127.45 126.868 11.2635695940497
127.5 126.1052 11.229657163066
127.55 142.1649 11.9232923305604
127.6 124.8449 11.1734014516619
127.65 127.7816 11.3040523707209
127.7 121.3675 11.0166918809595
127.75 127.859 11.3074754034665
127.8 127.793 11.3045566034232
127.85 148.5447 12.1878915321724
127.9 133.6948 11.5626467558254
127.95 126.6919 11.2557496418497
128 115.074 10.7272550076895
128.05 121.6144 11.0278919109683
128.1 120.3988 10.9726386981437
128.15 135.6613 11.6473730943934
128.2 119.3116 10.9229849400244
128.25 123.0541 11.0929752546375
128.3 124.2 11.144505372604
128.35 135.4368 11.6377317377571
128.4 138.0751 11.7505361579802
128.45 108.668 10.4243944668264
128.5 131.2222 11.4552258816664
128.55 148.0394 12.1671442828628
128.6 142.7593 11.9481923318969
128.65 123.1238 11.0961164377452
128.7 146.486 12.1031400884233
128.75 110.1053 10.493107261436
128.8 123.2875 11.1034904421988
128.85 134.6469 11.6037450851008
128.9 130.4823 11.4228849245714
128.95 128.0706 11.3168281775416
129 128.2007 11.3225747955136
129.05 122.618 11.0733012241156
129.1 123.5563 11.1155881535796
129.15 111.8537 10.5760909602745
129.2 109.6935 10.4734664748592
129.25 141.3204 11.8878257053172
129.3 115.7263 10.757615906882
129.35 140.0455 11.8340821359326
129.4 143.7597 11.9899833194213
129.45 124.7252 11.1680436961896
129.5 118.5678 10.8888842403618
129.55 126.0153 11.2256536558011
129.6 157.4016 12.5459794356599
129.65 140.3799 11.8482023953003
129.7 118.9959 10.9085241898251
129.75 145.3914 12.0578356266786
129.8 119.946 10.9519861212476
129.85 141.2322 11.8841154487829
129.9 115.7865 10.7604135608256
129.95 111.7816 10.5726817790001
130 124.7808 11.1705326641123
130 124.7808 11.1705326641123
