
#Surface 0 of 1 surfaces

#IsoCurve 0, 1801 points
#x y z type
 40  209.252  0 i
 40.05  174.542  0 i
 40.1  169.737  0 i
 40.15  164.688  0 i
 40.2  175.205  0 i
 40.25  175.619  0 i
 40.3  191.703  0 i
 40.35  173.624  0 i
 40.4  178.272  0 i
 40.45  170.208  0 i
 40.5  180.457  0 i
 40.55  195.081  0 i
 40.6  191.51  0 i
 40.65  175.501  0 i
 40.7  184.952  0 i
 40.75  170.513  0 i
 40.8  152.579  0 i
 40.85  166.892  0 i
 40.9  177.339  0 i
 40.95  170.769  0 i
 41  186.687  0 i
 41.05  180.729  0 i
 41.1  163.239  0 i
 41.15  181.131  0 i
 41.2  189.555  0 i
 41.25  182.517  0 i
 41.3  166.25  0 i
 41.35  188.802  0 i
 41.4  185.022  0 i
 41.45  178.462  0 i
 41.5  190.988  0 i
 41.55  167.021  0 i
 41.6  146.723  0 i
 41.65  159.078  0 i
 41.7  162.98  0 i
 41.75  185.267  0 i
 41.8  166.419  0 i
 41.85  207.361  0 i
 41.9  172.091  0 i
 41.95  182.347  0 i
 42  171.693  0 i
 42.05  194.056  0 i
 42.1  168.589  0 i
 42.15  175.693  0 i
 42.2  165.464  0 i
 42.25  162.541  0 i
 42.3  157.649  0 i
 42.35  166.777  0 i
 42.4  178.038  0 i
 42.45  180.266  0 i
 42.5  163.593  0 i
 42.55  182.596  0 i
 42.6  173.932  0 i
 42.65  157.537  0 i
 42.7  158.795  0 i
 42.75  164.236  0 i
 42.8  191.271  0 i
 42.85  196.971  0 i
 42.9  175.939  0 i
 42.95  205.072  0 i
 43  176.54  0 i
 43.05  213.108  0 i
 43.1  186.574  0 i
 43.15  177.942  0 i
 43.2  213.775  0 i
 43.25  199.447  0 i
 43.3  210.062  0 i
 43.35  199.614  0 i
 43.4  202.733  0 i
 43.45  213.414  0 i
 43.5  225.576  0 i
 43.55  210.191  0 i
 43.6  213.516  0 i
 43.65  236.306  0 i
 43.7  223.863  0 i
 43.75  239.097  0 i
 43.8  254.535  0 i
 43.85  248.064  0 i
 43.9  264.687  0 i
 43.95  330.104  0 i
 44  352.226  0 i
 44.05  363.262  0 i
 44.1  530.773  0 i
 44.15  600.985  0 i
 44.2  764.109  0 i
 44.25  1153.34  0 i
 44.3  1768.62  0 i
 44.35  2918.57  0 i
 44.4  4475.67  0 i
 44.45  5661.63  0 i
 44.5  5619.34  0 i
 44.55  4323.86  0 i
 44.6  2775.67  0 i
 44.65  1686.35  0 i
 44.7  1005.36  0 i
 44.75  679.463  0 i
 44.8  547.338  0 i
 44.85  433.652  0 i
 44.9  340.917  0 i
 44.95  287.913  0 i
 45  294.137  0 i
 45.05  257.186  0 i
 45.1  226.072  0 i
 45.15  223.787  0 i
 45.2  213.224  0 i
 45.25  207.653  0 i
 45.3  217.992  0 i
 45.35  175.942  0 i
 45.4  172.866  0 i
 45.45  180.921  0 i
 45.5  174.088  0 i
 45.55  164.167  0 i
 45.6  167.38  0 i
 45.65  203.834  0 i
 45.7  143.831  0 i
 45.75  171.926  0 i
 45.8  189.395  0 i
 45.85  169.096  0 i
 45.9  152.002  0 i
 45.95  195.92  0 i
 46  169.094  0 i
 46.05  177.558  0 i
 46.1  164.082  0 i
 46.15  135.255  0 i
 46.2  188.196  0 i
 46.25  164.518  0 i
 46.3  178.307  0 i
 46.35  169.204  0 i
 46.4  181.359  0 i
 46.45  135.658  0 i
 46.5  160.791  0 i
 46.55  173.449  0 i
 46.6  145.791  0 i
 46.65  173.9  0 i
 46.7  166.481  0 i
 46.75  164.822  0 i
 46.8  176.505  0 i
 46.85  160.319  0 i
 46.9  158.76  0 i
 46.95  161.312  0 i
 47  180.728  0 i
 47.05  145.965  0 i
 47.1  195.135  0 i
 47.15  160.022  0 i
 47.2  159.234  0 i
 47.25  140.649  0 i
 47.3  139.653  0 i
 47.35  145.669  0 i
 47.4  162.595  0 i
 47.45  150.065  0 i
 47.5  157.18  0 i
 47.55  143.718  0 i
 47.6  178.303  0 i
 47.65  144.042  0 i
 47.7  150.695  0 i
 47.75  161.9  0 i
 47.8  159.317  0 i
 47.85  133.792  0 i
 47.9  158.322  0 i
 47.95  158.594  0 i
 48  177.788  0 i
 48.05  163.826  0 i
 48.1  167.74  0 i
 48.15  150.348  0 i
 48.2  163.648  0 i
 48.25  172.02  0 i
 48.3  136.566  0 i
 48.35  146.506  0 i
 48.4  155.329  0 i
 48.45  155.999  0 i
 48.5  162.551  0 i
 48.55  140.516  0 i
 48.6  142.591  0 i
 48.65  171.621  0 i
 48.7  157.355  0 i
 48.75  144.097  0 i
 48.8  139.673  0 i
 48.85  142.253  0 i
 48.9  177.155  0 i
 48.95  145.677  0 i
 49  150.008  0 i
 49.05  140.946  0 i
 49.1  147.887  0 i
 49.15  141.819  0 i
 49.2  150.509  0 i
 49.25  164.454  0 i
 49.3  154.92  0 i
 49.35  169.473  0 i
 49.4  161.16  0 i
 49.45  149.919  0 i
 49.5  182.356  0 i
 49.55  169.407  0 i
 49.6  147.548  0 i
 49.65  168.217  0 i
 49.7  150.428  0 i
 49.75  173.197  0 i
 49.8  176.53  0 i
 49.85  154.11  0 i
 49.9  133.956  0 i
 49.95  140.72  0 i
 50  159.611  0 i
 50.05  152.224  0 i
 50.1  143.618  0 i
 50.15  161.761  0 i
 50.2  138.52  0 i
 50.25  139.686  0 i
 50.3  161.64  0 i
 50.35  134.469  0 i
 50.4  153.865  0 i
 50.45  171.007  0 i
 50.5  163.363  0 i
 50.55  166.432  0 i
 50.6  167.758  0 i
 50.65  153.01  0 i
 50.7  157.226  0 i
 50.75  150.43  0 i
 50.8  154.861  0 i
 50.85  161.282  0 i
 50.9  159.4  0 i
 50.95  140.012  0 i
 51  156.608  0 i
 51.05  173.026  0 i
 51.1  144.075  0 i
 51.15  144.261  0 i
 51.2  156.081  0 i
 51.25  129.363  0 i
 51.3  154.459  0 i
 51.35  147.595  0 i
 51.4  134.694  0 i
 51.45  141.291  0 i
 51.5  164.938  0 i
 51.55  166.142  0 i
 51.6  166.163  0 i
 51.65  157.292  0 i
 51.7  139.113  0 i
 51.75  160.523  0 i
 51.8  169.266  0 i
 51.85  140.651  0 i
 51.9  145.669  0 i
 51.95  134.742  0 i
 52  141.938  0 i
 52.05  150.597  0 i
 52.1  160.123  0 i
 52.15  141.682  0 i
 52.2  133.819  0 i
 52.25  173.934  0 i
 52.3  138.622  0 i
 52.35  137.081  0 i
 52.4  141.535  0 i
 52.45  152.527  0 i
 52.5  141.188  0 i
 52.55  138.2  0 i
 52.6  144.158  0 i
 52.65  147.097  0 i
 52.7  166.629  0 i
 52.75  147.446  0 i
 52.8  158.222  0 i
 52.85  135.531  0 i
 52.9  152.86  0 i
 52.95  157.069  0 i
 53  136.738  0 i
 53.05  128.802  0 i
 53.1  164.333  0 i
 53.15  129.588  0 i
 53.2  152.299  0 i
 53.25  146.118  0 i
 53.3  169.28  0 i
 53.35  138.955  0 i
 53.4  129.721  0 i
 53.45  143.221  0 i
 53.5  111.79  0 i
 53.55  132.779  0 i
 53.6  138.068  0 i
 53.65  129.175  0 i
 53.7  141.421  0 i
 53.75  117.624  0 i
 53.8  146.752  0 i
 53.85  153.76  0 i
 53.9  133.44  0 i
 53.95  160.319  0 i
 54  119.284  0 i
 54.05  145.796  0 i
 54.1  140.204  0 i
 54.15  125.744  0 i
 54.2  129.359  0 i
 54.25  141.312  0 i
 54.3  137.071  0 i
 54.35  135.771  0 i
 54.4  160.367  0 i
 54.45  129.432  0 i
 54.5  127.609  0 i
 54.55  143.662  0 i
 54.6  149.617  0 i
 54.65  133.564  0 i
 54.7  148.658  0 i
 54.75  146.363  0 i
 54.8  164.502  0 i
 54.85  142.332  0 i
 54.9  133.045  0 i
 54.95  108.675  0 i
 55  146.249  0 i
 55.05  149.89  0 i
 55.1  136.911  0 i
 55.15  137.098  0 i
 55.2  144.022  0 i
 55.25  138.353  0 i
 55.3  135.703  0 i
 55.35  125.429  0 i
 55.4  131.297  0 i
 55.45  117.831  0 i
 55.5  161.488  0 i
 55.55  149.373  0 i
 55.6  146.878  0 i
 55.65  130.874  0 i
 55.7  145.621  0 i
 55.75  133.803  0 i
 55.8  136.584  0 i
 55.85  151.977  0 i
 55.9  148.818  0 i
 55.95  135.76  0 i
 56  138.863  0 i
 56.05  142.911  0 i
 56.1  139.315  0 i
 56.15  154.765  0 i
 56.2  132.512  0 i
 56.25  157.765  0 i
 56.3  147.582  0 i
 56.35  138.737  0 i
 56.4  127.742  0 i
 56.45  138.603  0 i
 56.5  160.985  0 i
 56.55  126.047  0 i
 56.6  143.969  0 i
 56.65  159.98  0 i
 56.7  143.111  0 i
 56.75  169.409  0 i
 56.8  122.698  0 i
 56.85  146.611  0 i
 56.9  136.06  0 i
 56.95  146.673  0 i
 57  144.565  0 i
 57.05  149.346  0 i
 57.1  144.488  0 i
 57.15  121.905  0 i
 57.2  137.581  0 i
 57.25  152.8  0 i
 57.3  156.632  0 i
 57.35  138.911  0 i
 57.4  117.992  0 i
 57.45  174.76  0 i
 57.5  131.642  0 i
 57.55  134.699  0 i
 57.6  133.108  0 i
 57.65  133.903  0 i
 57.7  138.878  0 i
 57.75  148.877  0 i
 57.8  143.331  0 i
 57.85  147.934  0 i
 57.9  138.246  0 i
 57.95  156.147  0 i
 58  136.795  0 i
 58.05  151.932  0 i
 58.1  146.087  0 i
 58.15  141.217  0 i
 58.2  123.919  0 i
 58.25  145.328  0 i
 58.3  132.395  0 i
 58.35  151.665  0 i
 58.4  114.712  0 i
 58.45  144.911  0 i
 58.5  140.67  0 i
 58.55  116.165  0 i
 58.6  162.776  0 i
 58.65  139.099  0 i
 58.7  143.777  0 i
 58.75  147.412  0 i
 58.8  133.387  0 i
 58.85  134.068  0 i
 58.9  128.193  0 i
 58.95  160.167  0 i
 59  127.334  0 i
 59.05  158.053  0 i
 59.1  148.504  0 i
 59.15  141.495  0 i
 59.2  125.451  0 i
 59.25  123.865  0 i
 59.3  129.139  0 i
 59.35  147.219  0 i
 59.4  130.991  0 i
 59.45  140.98  0 i
 59.5  154.159  0 i
 59.55  133.275  0 i
 59.6  148.353  0 i
 59.65  127.675  0 i
 59.7  130.399  0 i
 59.75  122.036  0 i
 59.8  127.933  0 i
 59.85  165.316  0 i
 59.9  141.343  0 i
 59.95  121.889  0 i
 60  130.694  0 i
 60.05  133.155  0 i
 60.1  115.74  0 i
 60.15  129.608  0 i
 60.2  133.758  0 i
 60.25  159.294  0 i
 60.3  145.565  0 i
 60.35  141.095  0 i
 60.4  130.41  0 i
 60.45  127.633  0 i
 60.5  135.261  0 i
 60.55  126.692  0 i
 60.6  149.626  0 i
 60.65  143.514  0 i
 60.7  140.864  0 i
 60.75  147.965  0 i
 60.8  134.897  0 i
 60.85  149.041  0 i
 60.9  146.712  0 i
 60.95  141.997  0 i
 61  147.209  0 i
 61.05  113.215  0 i
 61.1  132.392  0 i
 61.15  139.832  0 i
 61.2  110.485  0 i
 61.25  108.319  0 i
 61.3  121.415  0 i
 61.35  133.665  0 i
 61.4  144.534  0 i
 61.45  117.755  0 i
 61.5  146.72  0 i
 61.55  142.086  0 i
 61.6  136.697  0 i
 61.65  161.98  0 i
 61.7  150.207  0 i
 61.75  154.504  0 i
 61.8  147.166  0 i
 61.85  127.431  0 i
 61.9  118.468  0 i
 61.95  126.936  0 i
 62  150.328  0 i
 62.05  143.44  0 i
 62.1  140.595  0 i
 62.15  126.16  0 i
 62.2  135.475  0 i
 62.25  112.235  0 i
 62.3  132.694  0 i
 62.35  130.055  0 i
 62.4  134.513  0 i
 62.45  150.129  0 i
 62.5  156.664  0 i
 62.55  117.391  0 i
 62.6  137.853  0 i
 62.65  130.673  0 i
 62.7  151.825  0 i
 62.75  121.882  0 i
 62.8  137.621  0 i
 62.85  134.067  0 i
 62.9  123.89  0 i
 62.95  147.753  0 i
 63  150.435  0 i
 63.05  145.176  0 i
 63.1  129.993  0 i
 63.15  140.917  0 i
 63.2  135.706  0 i
 63.25  140.981  0 i
 63.3  128.881  0 i
 63.35  161.791  0 i
 63.4  137.571  0 i
 63.45  137.689  0 i
 63.5  138.402  0 i
 63.55  152.331  0 i
 63.6  167.585  0 i
 63.65  159.846  0 i
 63.7  145.936  0 i
 63.75  142.344  0 i
 63.8  152.448  0 i
 63.85  155.61  0 i
 63.9  145.888  0 i
 63.95  140.093  0 i
 64  176.069  0 i
 64.05  149.222  0 i
 64.1  145.91  0 i
 64.15  170.543  0 i
 64.2  194.905  0 i
 64.25  200.304  0 i
 64.3  213.124  0 i
 64.35  250.491  0 i
 64.4  254.563  0 i
 64.45  282.875  0 i
 64.5  318.929  0 i
 64.55  336.272  0 i
 64.6  311.435  0 i
 64.65  301.708  0 i
 64.7  271.391  0 i
 64.75  258.696  0 i
 64.8  249.793  0 i
 64.85  212.302  0 i
 64.9  188.732  0 i
 64.95  172.354  0 i
 65  160.782  0 i
 65.05  144.335  0 i
 65.1  134.75  0 i
 65.15  144.173  0 i
 65.2  165.476  0 i
 65.25  169.49  0 i
 65.3  159.262  0 i
 65.35  142.051  0 i
 65.4  157.93  0 i
 65.45  140.758  0 i
 65.5  123.429  0 i
 65.55  130.507  0 i
 65.6  132.07  0 i
 65.65  132.08  0 i
 65.7  132.093  0 i
 65.75  139.946  0 i
 65.8  131.525  0 i
 65.85  156.128  0 i
 65.9  150.393  0 i
 65.95  137.214  0 i
 66  148.402  0 i
 66.05  135.739  0 i
 66.1  142.008  0 i
 66.15  166.148  0 i
 66.2  142.545  0 i
 66.25  148.539  0 i
 66.3  129.027  0 i
 66.35  123.924  0 i
 66.4  132.81  0 i
 66.45  136.392  0 i
 66.5  151.954  0 i
 66.55  134.021  0 i
 66.6  131.954  0 i
 66.65  134.033  0 i
 66.7  127.021  0 i
 66.75  129.775  0 i
 66.8  143.628  0 i
 66.85  134.605  0 i
 66.9  125.722  0 i
 66.95  124.086  0 i
 67  140.278  0 i
 67.05  131.246  0 i
 67.1  126.527  0 i
 67.15  124.75  0 i
 67.2  134.255  0 i
 67.25  127.107  0 i
 67.3  121.54  0 i
 67.35  140.958  0 i
 67.4  140.692  0 i
 67.45  126.17  0 i
 67.5  132.399  0 i
 67.55  124.763  0 i
 67.6  140.264  0 i
 67.65  144.642  0 i
 67.7  139.351  0 i
 67.75  147.252  0 i
 67.8  141.024  0 i
 67.85  112.997  0 i
 67.9  124.531  0 i
 67.95  164.167  0 i
 68  135.054  0 i
 68.05  138.37  0 i
 68.1  138.187  0 i
 68.15  134.922  0 i
 68.2  129.972  0 i
 68.25  130.591  0 i
 68.3  149.558  0 i
 68.35  128.743  0 i
 68.4  142.881  0 i
 68.45  130.821  0 i
 68.5  119.886  0 i
 68.55  142.968  0 i
 68.6  128.732  0 i
 68.65  118.999  0 i
 68.7  142.275  0 i
 68.75  151.193  0 i
 68.8  125.861  0 i
 68.85  123.214  0 i
 68.9  139.251  0 i
 68.95  133.37  0 i
 69  142.802  0 i
 69.05  124.92  0 i
 69.1  121.07  0 i
 69.15  139.927  0 i
 69.2  130.803  0 i
 69.25  144.982  0 i
 69.3  152.421  0 i
 69.35  137.129  0 i
 69.4  119.713  0 i
 69.45  149.135  0 i
 69.5  141.137  0 i
 69.55  126.099  0 i
 69.6  112.172  0 i
 69.65  127.257  0 i
 69.7  127.807  0 i
 69.75  115.583  0 i
 69.8  124.138  0 i
 69.85  118.519  0 i
 69.9  125.849  0 i
 69.95  106.326  0 i
 70  123.143  0 i
 70.05  136.209  0 i
 70.1  135.016  0 i
 70.15  131.595  0 i
 70.2  130.842  0 i
 70.25  123.635  0 i
 70.3  132.682  0 i
 70.35  131.019  0 i
 70.4  139.928  0 i
 70.45  132.479  0 i
 70.5  127.489  0 i
 70.55  150.844  0 i
 70.6  129.542  0 i
 70.65  128.65  0 i
 70.7  128.045  0 i
 70.75  129.69  0 i
 70.8  127.525  0 i
 70.85  127.651  0 i
 70.9  128.528  0 i
 70.95  123.199  0 i
 71  134.275  0 i
 71.05  142.462  0 i
 71.1  139.641  0 i
 71.15  132.218  0 i
 71.2  123.7  0 i
 71.25  127.206  0 i
 71.3  138.868  0 i
 71.35  138.688  0 i
 71.4  137.94  0 i
 71.45  127.499  0 i
 71.5  142.456  0 i
 71.55  120.505  0 i
 71.6  134.233  0 i
 71.65  150.942  0 i
 71.7  150.44  0 i
 71.75  137.96  0 i
 71.8  123.632  0 i
 71.85  116.607  0 i
 71.9  135.087  0 i
 71.95  133.859  0 i
 72  137.794  0 i
 72.05  117.018  0 i
 72.1  145.807  0 i
 72.15  136.47  0 i
 72.2  139.387  0 i
 72.25  144.41  0 i
 72.3  133.949  0 i
 72.35  137.225  0 i
 72.4  138.649  0 i
 72.45  134.269  0 i
 72.5  138.851  0 i
 72.55  120.939  0 i
 72.6  129.145  0 i
 72.65  135.789  0 i
 72.7  107.555  0 i
 72.75  145.057  0 i
 72.8  129.219  0 i
 72.85  132.972  0 i
 72.9  138.421  0 i
 72.95  129.566  0 i
 73  130.182  0 i
 73.05  122.967  0 i
 73.1  122.447  0 i
 73.15  126.624  0 i
 73.2  154.451  0 i
 73.25  119.689  0 i
 73.3  148.937  0 i
 73.35  136.79  0 i
 73.4  136.85  0 i
 73.45  136.404  0 i
 73.5  136.605  0 i
 73.55  118.314  0 i
 73.6  140.143  0 i
 73.65  150.868  0 i
 73.7  129.099  0 i
 73.75  130.236  0 i
 73.8  114.761  0 i
 73.85  127.517  0 i
 73.9  138.083  0 i
 73.95  137.654  0 i
 74  146.239  0 i
 74.05  126.743  0 i
 74.1  122.882  0 i
 74.15  115.668  0 i
 74.2  129.288  0 i
 74.25  118.21  0 i
 74.3  130.557  0 i
 74.35  154.514  0 i
 74.4  121.57  0 i
 74.45  159.462  0 i
 74.5  128.303  0 i
 74.55  116.116  0 i
 74.6  135.746  0 i
 74.65  112.33  0 i
 74.7  150.017  0 i
 74.75  155.151  0 i
 74.8  136.718  0 i
 74.85  135.746  0 i
 74.9  134.51  0 i
 74.95  138.573  0 i
 75  131.769  0 i
 75.05  127.471  0 i
 75.1  142.018  0 i
 75.15  132.182  0 i
 75.2  137.546  0 i
 75.25  125.222  0 i
 75.3  140.924  0 i
 75.35  150.199  0 i
 75.4  143.545  0 i
 75.45  139.315  0 i
 75.5  120.683  0 i
 75.55  130.729  0 i
 75.6  130.312  0 i
 75.65  125.074  0 i
 75.7  121.735  0 i
 75.75  122.334  0 i
 75.8  140.989  0 i
 75.85  129.27  0 i
 75.9  131.948  0 i
 75.95  131.81  0 i
 76  141.13  0 i
 76.05  121.136  0 i
 76.1  116.955  0 i
 76.15  135.563  0 i
 76.2  129.296  0 i
 76.25  155.505  0 i
 76.3  136.279  0 i
 76.35  110.343  0 i
 76.4  138.967  0 i
 76.45  115.91  0 i
 76.5  149.338  0 i
 76.55  162.944  0 i
 76.6  141.884  0 i
 76.65  143.668  0 i
 76.7  119.54  0 i
 76.75  128.556  0 i
 76.8  130.502  0 i
 76.85  131.544  0 i
 76.9  123.296  0 i
 76.95  127.06  0 i
 77  142.151  0 i
 77.05  152.559  0 i
 77.1  120.835  0 i
 77.15  139.119  0 i
 77.2  127.498  0 i
 77.25  125.391  0 i
 77.3  136.581  0 i
 77.35  114.375  0 i
 77.4  137.717  0 i
 77.45  124.816  0 i
 77.5  142.006  0 i
 77.55  154.535  0 i
 77.6  155.435  0 i
 77.65  109.804  0 i
 77.7  114.401  0 i
 77.75  119.272  0 i
 77.8  127.386  0 i
 77.85  120.969  0 i
 77.9  130.926  0 i
 77.95  133.394  0 i
 78  142.661  0 i
 78.05  139.288  0 i
 78.1  128.608  0 i
 78.15  120.366  0 i
 78.2  135.287  0 i
 78.25  127.601  0 i
 78.3  139.112  0 i
 78.35  138.935  0 i
 78.4  116.538  0 i
 78.45  125.654  0 i
 78.5  132.596  0 i
 78.55  131.653  0 i
 78.6  131.874  0 i
 78.65  118.6  0 i
 78.7  139.613  0 i
 78.75  129.376  0 i
 78.8  116.767  0 i
 78.85  119.829  0 i
 78.9  133.188  0 i
 78.95  123.507  0 i
 79  137.903  0 i
 79.05  121.987  0 i
 79.1  128.353  0 i
 79.15  116.869  0 i
 79.2  133.749  0 i
 79.25  149.604  0 i
 79.3  133.364  0 i
 79.35  131.669  0 i
 79.4  142.192  0 i
 79.45  138.364  0 i
 79.5  126.628  0 i
 79.55  139.195  0 i
 79.6  125.105  0 i
 79.65  128.057  0 i
 79.7  144.08  0 i
 79.75  133.953  0 i
 79.8  137.69  0 i
 79.85  143.666  0 i
 79.9  159.849  0 i
 79.95  123.915  0 i
 80  152.193  0 i
 80.05  137.077  0 i
 80.1  143.741  0 i
 80.15  144.03  0 i
 80.2  155.648  0 i
 80.25  145.382  0 i
 80.3  140.302  0 i
 80.35  159.257  0 i
 80.4  128.23  0 i
 80.45  138.419  0 i
 80.5  140.467  0 i
 80.55  142.34  0 i
 80.6  134.627  0 i
 80.65  135.504  0 i
 80.7  129.304  0 i
 80.75  132.023  0 i
 80.8  154.706  0 i
 80.85  152.279  0 i
 80.9  150.291  0 i
 80.95  136.84  0 i
 81  175.103  0 i
 81.05  139.692  0 i
 81.1  160.815  0 i
 81.15  162.767  0 i
 81.2  152.795  0 i
 81.25  188.166  0 i
 81.3  175.424  0 i
 81.35  212.538  0 i
 81.4  218.565  0 i
 81.45  238.996  0 i
 81.5  264.518  0 i
 81.55  279.507  0 i
 81.6  324.914  0 i
 81.65  388.922  0 i
 81.7  424.553  0 i
 81.75  504.993  0 i
 81.8  533.734  0 i
 81.85  652.745  0 i
 81.9  670.149  0 i
 81.95  635.028  0 i
 82  582.256  0 i
 82.05  482.887  0 i
 82.1  449.96  0 i
 82.15  385.954  0 i
 82.2  311.136  0 i
 82.25  279.265  0 i
 82.3  247.602  0 i
 82.35  217.364  0 i
 82.4  191.918  0 i
 82.45  194.722  0 i
 82.5  182.479  0 i
 82.55  130.077  0 i
 82.6  164.728  0 i
 82.65  162.244  0 i
 82.7  147.185  0 i
 82.75  136.577  0 i
 82.8  144.168  0 i
 82.85  170.011  0 i
 82.9  164.409  0 i
 82.95  137.488  0 i
 83  145.237  0 i
 83.05  143.203  0 i
 83.1  136.16  0 i
 83.15  115.109  0 i
 83.2  123.505  0 i
 83.25  135.684  0 i
 83.3  126.589  0 i
 83.35  123.555  0 i
 83.4  111.768  0 i
 83.45  121.475  0 i
 83.5  124.644  0 i
 83.55  115.416  0 i
 83.6  143.237  0 i
 83.65  138.036  0 i
 83.7  133.989  0 i
 83.75  140.284  0 i
 83.8  116.617  0 i
 83.85  160.906  0 i
 83.9  152.215  0 i
 83.95  118.864  0 i
 84  136.13  0 i
 84.05  116.751  0 i
 84.1  135.4  0 i
 84.15  123.788  0 i
 84.2  142.281  0 i
 84.25  133.06  0 i
 84.3  137.765  0 i
 84.35  116.468  0 i
 84.4  128.107  0 i
 84.45  128.622  0 i
 84.5  110.476  0 i
 84.55  150.78  0 i
 84.6  130.439  0 i
 84.65  153.633  0 i
 84.7  142.728  0 i
 84.75  147.98  0 i
 84.8  116.779  0 i
 84.85  121.938  0 i
 84.9  138.401  0 i
 84.95  171.075  0 i
 85  127.942  0 i
 85.05  138.862  0 i
 85.1  145.414  0 i
 85.15  118.886  0 i
 85.2  136.866  0 i
 85.25  129.692  0 i
 85.3  152.525  0 i
 85.35  125.369  0 i
 85.4  135.72  0 i
 85.45  130.575  0 i
 85.5  119.145  0 i
 85.55  123.686  0 i
 85.6  138.322  0 i
 85.65  126.373  0 i
 85.7  114.878  0 i
 85.75  135.492  0 i
 85.8  115.153  0 i
 85.85  120.982  0 i
 85.9  127.753  0 i
 85.95  131.083  0 i
 86  123.236  0 i
 86.05  120.956  0 i
 86.1  140.451  0 i
 86.15  144.448  0 i
 86.2  133.198  0 i
 86.25  123.345  0 i
 86.3  149.622  0 i
 86.35  129.05  0 i
 86.4  135.76  0 i
 86.45  148.937  0 i
 86.5  139.392  0 i
 86.55  130.406  0 i
 86.6  135.956  0 i
 86.65  124.442  0 i
 86.7  122.85  0 i
 86.75  114.648  0 i
 86.8  141.238  0 i
 86.85  119.294  0 i
 86.9  137.344  0 i
 86.95  124.284  0 i
 87  138.325  0 i
 87.05  121.323  0 i
 87.1  133.143  0 i
 87.15  124.051  0 i
 87.2  124.186  0 i
 87.25  122.07  0 i
 87.3  127.326  0 i
 87.35  111.962  0 i
 87.4  142.633  0 i
 87.45  121.647  0 i
 87.5  129.759  0 i
 87.55  132.608  0 i
 87.6  123.205  0 i
 87.65  152.72  0 i
 87.7  134.589  0 i
 87.75  137.558  0 i
 87.8  108.389  0 i
 87.85  141.036  0 i
 87.9  137.482  0 i
 87.95  121.665  0 i
 88  125.023  0 i
 88.05  143.849  0 i
 88.1  124.52  0 i
 88.15  141.245  0 i
 88.2  121.796  0 i
 88.25  124.737  0 i
 88.3  117.99  0 i
 88.35  117.792  0 i
 88.4  108.528  0 i
 88.45  141.548  0 i
 88.5  119.089  0 i
 88.55  106.357  0 i
 88.6  128.851  0 i
 88.65  120.303  0 i
 88.7  144.032  0 i
 88.75  123.105  0 i
 88.8  141.434  0 i
 88.85  125.446  0 i
 88.9  127.805  0 i
 88.95  120.243  0 i
 89  155.11  0 i
 89.05  153.651  0 i
 89.1  140.641  0 i
 89.15  132.616  0 i
 89.2  131.994  0 i
 89.25  126.419  0 i
 89.3  127.63  0 i
 89.35  134.654  0 i
 89.4  149.611  0 i
 89.45  138.529  0 i
 89.5  111.819  0 i
 89.55  154.823  0 i
 89.6  125.2  0 i
 89.65  114.657  0 i
 89.7  118.146  0 i
 89.75  155.635  0 i
 89.8  121.821  0 i
 89.85  116.154  0 i
 89.9  135.528  0 i
 89.95  162.912  0 i
 90  135.656  0 i
 90.05  129.637  0 i
 90.1  116.6  0 i
 90.15  142.192  0 i
 90.2  145.966  0 i
 90.25  144.28  0 i
 90.3  132.051  0 i
 90.35  135.676  0 i
 90.4  143.251  0 i
 90.45  145.018  0 i
 90.5  127.566  0 i
 90.55  142.61  0 i
 90.6  153.595  0 i
 90.65  135.037  0 i
 90.7  115.74  0 i
 90.75  135.142  0 i
 90.8  123.028  0 i
 90.85  126.915  0 i
 90.9  149.056  0 i
 90.95  139.686  0 i
 91  138.668  0 i
 91.05  123.338  0 i
 91.1  121.751  0 i
 91.15  131.357  0 i
 91.2  138.893  0 i
 91.25  137.211  0 i
 91.3  120.471  0 i
 91.35  142.416  0 i
 91.4  137.556  0 i
 91.45  134.859  0 i
 91.5  131.874  0 i
 91.55  122.142  0 i
 91.6  125.785  0 i
 91.65  114.835  0 i
 91.7  147.882  0 i
 91.75  130.44  0 i
 91.8  121.445  0 i
 91.85  126.949  0 i
 91.9  129.942  0 i
 91.95  142.857  0 i
 92  116.698  0 i
 92.05  141.415  0 i
 92.1  137.017  0 i
 92.15  129.465  0 i
 92.2  122.948  0 i
 92.25  141.457  0 i
 92.3  144.198  0 i
 92.35  111.691  0 i
 92.4  125.452  0 i
 92.45  126.593  0 i
 92.5  124.551  0 i
 92.55  126.371  0 i
 92.6  133.814  0 i
 92.65  98.7531  0 i
 92.7  113.329  0 i
 92.75  125.115  0 i
 92.8  139.936  0 i
 92.85  123.257  0 i
 92.9  133.009  0 i
 92.95  142.411  0 i
 93  132.658  0 i
 93.05  130.851  0 i
 93.1  149.676  0 i
 93.15  124.351  0 i
 93.2  138.378  0 i
 93.25  119.562  0 i
 93.3  139.679  0 i
 93.35  132.785  0 i
 93.4  124.951  0 i
 93.45  138.545  0 i
 93.5  125.877  0 i
 93.55  143.725  0 i
 93.6  116.731  0 i
 93.65  140.056  0 i
 93.7  141.86  0 i
 93.75  127.179  0 i
 93.8  125.851  0 i
 93.85  129.333  0 i
 93.9  126.61  0 i
 93.95  109.026  0 i
 94  125.135  0 i
 94.05  117.155  0 i
 94.1  116.183  0 i
 94.15  141.129  0 i
 94.2  135.668  0 i
 94.25  132.428  0 i
 94.3  135.575  0 i
 94.35  113.689  0 i
 94.4  122.473  0 i
 94.45  139.144  0 i
 94.5  147.611  0 i
 94.55  112.775  0 i
 94.6  115.045  0 i
 94.65  121.024  0 i
 94.7  127.21  0 i
 94.75  132.084  0 i
 94.8  127.928  0 i
 94.85  128.519  0 i
 94.9  137.893  0 i
 94.95  123.953  0 i
 95  142.561  0 i
 95.05  140.531  0 i
 95.1  130.615  0 i
 95.15  141.678  0 i
 95.2  118.803  0 i
 95.25  117.407  0 i
 95.3  143.124  0 i
 95.35  137.678  0 i
 95.4  108.079  0 i
 95.45  133.723  0 i
 95.5  119.154  0 i
 95.55  132.516  0 i
 95.6  140.915  0 i
 95.65  158.061  0 i
 95.7  129.475  0 i
 95.75  149.895  0 i
 95.8  132.581  0 i
 95.85  143.153  0 i
 95.9  138.237  0 i
 95.95  131.569  0 i
 96  138.119  0 i
 96.05  128.945  0 i
 96.1  126.996  0 i
 96.15  124.938  0 i
 96.2  127.658  0 i
 96.25  143.293  0 i
 96.3  134.769  0 i
 96.35  129.756  0 i
 96.4  127.484  0 i
 96.45  138.919  0 i
 96.5  133.557  0 i
 96.55  129.81  0 i
 96.6  125.064  0 i
 96.65  139.742  0 i
 96.7  120.156  0 i
 96.75  139.875  0 i
 96.8  99.2946  0 i
 96.85  133.248  0 i
 96.9  132.686  0 i
 96.95  139.925  0 i
 97  116.287  0 i
 97.05  143.067  0 i
 97.1  120.914  0 i
 97.15  154.745  0 i
 97.2  153.799  0 i
 97.25  145.984  0 i
 97.3  137.129  0 i
 97.35  161.672  0 i
 97.4  139.812  0 i
 97.45  129.434  0 i
 97.5  147.072  0 i
 97.55  155.033  0 i
 97.6  155.745  0 i
 97.65  150.096  0 i
 97.7  160.417  0 i
 97.75  152.862  0 i
 97.8  157.635  0 i
 97.85  180.254  0 i
 97.9  185.009  0 i
 97.95  143.725  0 i
 98  184.469  0 i
 98.05  217.705  0 i
 98.1  246.366  0 i
 98.15  279.833  0 i
 98.2  299.68  0 i
 98.25  335.803  0 i
 98.3  370.751  0 i
 98.35  355.357  0 i
 98.4  366.628  0 i
 98.45  366.595  0 i
 98.5  353.147  0 i
 98.55  309.305  0 i
 98.6  255.257  0 i
 98.65  252.417  0 i
 98.7  234.992  0 i
 98.75  208.089  0 i
 98.8  202.599  0 i
 98.85  164.503  0 i
 98.9  187.877  0 i
 98.95  161.284  0 i
 99  161.819  0 i
 99.05  164.822  0 i
 99.1  149.728  0 i
 99.15  165.338  0 i
 99.2  151.698  0 i
 99.25  137.186  0 i
 99.3  144.107  0 i
 99.35  120.517  0 i
 99.4  133.237  0 i
 99.45  150.217  0 i
 99.5  117.87  0 i
 99.55  128  0 i
 99.6  112.331  0 i
 99.65  111.161  0 i
 99.7  133.404  0 i
 99.75  150.125  0 i
 99.8  115.357  0 i
 99.85  120.625  0 i
 99.9  124.779  0 i
 99.95  152.619  0 i
 100  123.297  0 i
 100.05  121.103  0 i
 100.1  139.773  0 i
 100.15  118.91  0 i
 100.2  125.507  0 i
 100.25  142.392  0 i
 100.3  135.2  0 i
 100.35  141.598  0 i
 100.4  95.9626  0 i
 100.45  117.021  0 i
 100.5  125.648  0 i
 100.55  115.206  0 i
 100.6  146.476  0 i
 100.65  129.296  0 i
 100.7  151.034  0 i
 100.75  125.738  0 i
 100.8  142.983  0 i
 100.85  131.228  0 i
 100.9  127.563  0 i
 100.95  124.117  0 i
 101  133.779  0 i
 101.05  136.971  0 i
 101.1  117.8  0 i
 101.15  126.495  0 i
 101.2  147.616  0 i
 101.25  130.782  0 i
 101.3  151.55  0 i
 101.35  130.689  0 i
 101.4  156.893  0 i
 101.45  142.621  0 i
 101.5  128.324  0 i
 101.55  134.669  0 i
 101.6  137.109  0 i
 101.65  113.118  0 i
 101.7  125.527  0 i
 101.75  131.579  0 i
 101.8  119.665  0 i
 101.85  142.984  0 i
 101.9  124.997  0 i
 101.95  122.194  0 i
 102  132.338  0 i
 102.05  128.459  0 i
 102.1  143.801  0 i
 102.15  137.01  0 i
 102.2  105.575  0 i
 102.25  123.711  0 i
 102.3  109.283  0 i
 102.35  146.591  0 i
 102.4  137.433  0 i
 102.45  143.387  0 i
 102.5  144.974  0 i
 102.55  110.67  0 i
 102.6  116.54  0 i
 102.65  134.523  0 i
 102.7  133.169  0 i
 102.75  121.235  0 i
 102.8  129.872  0 i
 102.85  136.014  0 i
 102.9  130.618  0 i
 102.95  127.618  0 i
 103  113.701  0 i
 103.05  138.094  0 i
 103.1  132.527  0 i
 103.15  144.166  0 i
 103.2  138.209  0 i
 103.25  110.859  0 i
 103.3  111.88  0 i
 103.35  132.134  0 i
 103.4  121.675  0 i
 103.45  136.508  0 i
 103.5  132.013  0 i
 103.55  138.066  0 i
 103.6  129.213  0 i
 103.65  129.57  0 i
 103.7  127.462  0 i
 103.75  130.92  0 i
 103.8  127.459  0 i
 103.85  131.44  0 i
 103.9  128.217  0 i
 103.95  127.876  0 i
 104  131.776  0 i
 104.05  128.68  0 i
 104.1  129.254  0 i
 104.15  124.432  0 i
 104.2  129.878  0 i
 104.25  124.138  0 i
 104.3  130.586  0 i
 104.35  128.403  0 i
 104.4  117.116  0 i
 104.45  115.265  0 i
 104.5  137.174  0 i
 104.55  107.484  0 i
 104.6  128.297  0 i
 104.65  127.717  0 i
 104.7  134.196  0 i
 104.75  107.503  0 i
 104.8  131.118  0 i
 104.85  131.046  0 i
 104.9  151.258  0 i
 104.95  131.667  0 i
 105  126.588  0 i
 105.05  130.486  0 i
 105.1  125.989  0 i
 105.15  132.633  0 i
 105.2  115.917  0 i
 105.25  130.572  0 i
 105.3  139.893  0 i
 105.35  134.247  0 i
 105.4  118.394  0 i
 105.45  122.294  0 i
 105.5  110.333  0 i
 105.55  114.743  0 i
 105.6  112.357  0 i
 105.65  126.122  0 i
 105.7  152.564  0 i
 105.75  130.395  0 i
 105.8  116.329  0 i
 105.85  111.353  0 i
 105.9  122.791  0 i
 105.95  121.511  0 i
 106  127.918  0 i
 106.05  138.329  0 i
 106.1  129.197  0 i
 106.15  124.876  0 i
 106.2  135.617  0 i
 106.25  132.834  0 i
 106.3  117.543  0 i
 106.35  135.211  0 i
 106.4  117.717  0 i
 106.45  132.195  0 i
 106.5  107.476  0 i
 106.55  138.726  0 i
 106.6  124.24  0 i
 106.65  113.361  0 i
 106.7  121.298  0 i
 106.75  116.493  0 i
 106.8  144.502  0 i
 106.85  138.31  0 i
 106.9  147.292  0 i
 106.95  121.305  0 i
 107  142.307  0 i
 107.05  122.471  0 i
 107.1  125.54  0 i
 107.15  109.221  0 i
 107.2  120.71  0 i
 107.25  124.296  0 i
 107.3  108.571  0 i
 107.35  130.588  0 i
 107.4  121.789  0 i
 107.45  123.911  0 i
 107.5  130.166  0 i
 107.55  110.488  0 i
 107.6  113.408  0 i
 107.65  109.453  0 i
 107.7  118.331  0 i
 107.75  120.553  0 i
 107.8  120.618  0 i
 107.85  129.413  0 i
 107.9  118.115  0 i
 107.95  125.642  0 i
 108  114.876  0 i
 108.05  112.038  0 i
 108.1  149.848  0 i
 108.15  126.813  0 i
 108.2  134.925  0 i
 108.25  119.637  0 i
 108.3  129.698  0 i
 108.35  121.419  0 i
 108.4  109.917  0 i
 108.45  127.255  0 i
 108.5  135.126  0 i
 108.55  134.37  0 i
 108.6  137.306  0 i
 108.65  144.62  0 i
 108.7  130.788  0 i
 108.75  133.971  0 i
 108.8  109.843  0 i
 108.85  118.692  0 i
 108.9  117.103  0 i
 108.95  131.376  0 i
 109  138.508  0 i
 109.05  112.605  0 i
 109.1  132.456  0 i
 109.15  135.529  0 i
 109.2  110.061  0 i
 109.25  147.015  0 i
 109.3  121.499  0 i
 109.35  127.685  0 i
 109.4  117.814  0 i
 109.45  133.194  0 i
 109.5  126.08  0 i
 109.55  132.843  0 i
 109.6  132.645  0 i
 109.65  134.748  0 i
 109.7  120.327  0 i
 109.75  136.822  0 i
 109.8  127.332  0 i
 109.85  122.079  0 i
 109.9  132.198  0 i
 109.95  121.343  0 i
 110  137.57  0 i
 110.05  126.572  0 i
 110.1  137.308  0 i
 110.15  128.964  0 i
 110.2  147.407  0 i
 110.25  127.588  0 i
 110.3  109.986  0 i
 110.35  109.734  0 i
 110.4  135.888  0 i
 110.45  127.729  0 i
 110.5  121.214  0 i
 110.55  125.372  0 i
 110.6  131.99  0 i
 110.65  146.111  0 i
 110.7  113.453  0 i
 110.75  128.101  0 i
 110.8  102.862  0 i
 110.85  145.565  0 i
 110.9  139.922  0 i
 110.95  132.146  0 i
 111  136.803  0 i
 111.05  113.223  0 i
 111.1  143.017  0 i
 111.15  115.999  0 i
 111.2  117.002  0 i
 111.25  113.682  0 i
 111.3  132.384  0 i
 111.35  142.196  0 i
 111.4  115.439  0 i
 111.45  131.135  0 i
 111.5  133.918  0 i
 111.55  128.645  0 i
 111.6  133.625  0 i
 111.65  145.628  0 i
 111.7  131.343  0 i
 111.75  130.727  0 i
 111.8  136.03  0 i
 111.85  161.079  0 i
 111.9  113.317  0 i
 111.95  127.085  0 i
 112  121.478  0 i
 112.05  142.361  0 i
 112.1  147.357  0 i
 112.15  129.539  0 i
 112.2  135.503  0 i
 112.25  127.696  0 i
 112.3  124.253  0 i
 112.35  135.006  0 i
 112.4  132.952  0 i
 112.45  111.264  0 i
 112.5  121.356  0 i
 112.55  123.717  0 i
 112.6  127.053  0 i
 112.65  125.178  0 i
 112.7  137.502  0 i
 112.75  134.078  0 i
 112.8  115.193  0 i
 112.85  122.07  0 i
 112.9  135.721  0 i
 112.95  128.729  0 i
 113  111.785  0 i
 113.05  139.281  0 i
 113.1  146.858  0 i
 113.15  110.541  0 i
 113.2  102.575  0 i
 113.25  122.248  0 i
 113.3  121.758  0 i
 113.35  125.844  0 i
 113.4  134.374  0 i
 113.45  147.02  0 i
 113.5  143.993  0 i
 113.55  160.02  0 i
 113.6  144.012  0 i
 113.65  140.1  0 i
 113.7  143.749  0 i
 113.75  144.559  0 i
 113.8  139.054  0 i
 113.85  128.921  0 i
 113.9  126.927  0 i
 113.95  124.318  0 i
 114  127.031  0 i
 114.05  137.479  0 i
 114.1  133.023  0 i
 114.15  135.078  0 i
 114.2  136.78  0 i
 114.25  123.05  0 i
 114.3  154.657  0 i
 114.35  144.137  0 i
 114.4  154.335  0 i
 114.45  147.189  0 i
 114.5  157.937  0 i
 114.55  170.717  0 i
 114.6  169.88  0 i
 114.65  184.657  0 i
 114.7  166.111  0 i
 114.75  162.001  0 i
 114.8  192.804  0 i
 114.85  163.676  0 i
 114.9  170.021  0 i
 114.95  200.729  0 i
 115  190.521  0 i
 115.05  212.547  0 i
 115.1  206.985  0 i
 115.15  247.923  0 i
 115.2  235.85  0 i
 115.25  234.825  0 i
 115.3  243.464  0 i
 115.35  248.585  0 i
 115.4  244.504  0 i
 115.45  257.191  0 i
 115.5  240.162  0 i
 115.55  295.206  0 i
 115.6  212.501  0 i
 115.65  240.855  0 i
 115.7  234.68  0 i
 115.75  189.982  0 i
 115.8  203.964  0 i
 115.85  184.057  0 i
 115.9  205.053  0 i
 115.95  178.126  0 i
 116  175.419  0 i
 116.05  184.262  0 i
 116.1  184.231  0 i
 116.15  164.747  0 i
 116.2  165.95  0 i
 116.25  163.476  0 i
 116.3  163.322  0 i
 116.35  156.942  0 i
 116.4  139.688  0 i
 116.45  147.666  0 i
 116.5  152.403  0 i
 116.55  137.395  0 i
 116.6  132.965  0 i
 116.65  138.032  0 i
 116.7  121.293  0 i
 116.75  142.925  0 i
 116.8  135.474  0 i
 116.85  148.575  0 i
 116.9  142.896  0 i
 116.95  144.762  0 i
 117  147.912  0 i
 117.05  137.322  0 i
 117.1  151.265  0 i
 117.15  118.46  0 i
 117.2  143.927  0 i
 117.25  135.142  0 i
 117.3  124.579  0 i
 117.35  145.331  0 i
 117.4  143.957  0 i
 117.45  143.033  0 i
 117.5  123.784  0 i
 117.55  118.112  0 i
 117.6  125.59  0 i
 117.65  130.81  0 i
 117.7  119.367  0 i
 117.75  129.292  0 i
 117.8  145.816  0 i
 117.85  137.731  0 i
 117.9  130.778  0 i
 117.95  134.698  0 i
 118  127.357  0 i
 118.05  140.739  0 i
 118.1  130.516  0 i
 118.15  143.331  0 i
 118.2  128.757  0 i
 118.25  119.887  0 i
 118.3  146.029  0 i
 118.35  127.372  0 i
 118.4  134.147  0 i
 118.45  117.515  0 i
 118.5  130.532  0 i
 118.55  130.865  0 i
 118.6  122.099  0 i
 118.65  120.183  0 i
 118.7  111.401  0 i
 118.75  108.385  0 i
 118.8  133.592  0 i
 118.85  133.701  0 i
 118.9  138.421  0 i
 118.95  120.933  0 i
 119  101.157  0 i
 119.05  117.661  0 i
 119.1  121.582  0 i
 119.15  129.433  0 i
 119.2  139.012  0 i
 119.25  136.324  0 i
 119.3  119.645  0 i
 119.35  123.818  0 i
 119.4  132.099  0 i
 119.45  128.304  0 i
 119.5  123.45  0 i
 119.55  141.864  0 i
 119.6  123.016  0 i
 119.65  131.99  0 i
 119.7  134.28  0 i
 119.75  130.142  0 i
 119.8  134.174  0 i
 119.85  137.209  0 i
 119.9  164.031  0 i
 119.95  130.195  0 i
 120  114.891  0 i
 120.05  117.838  0 i
 120.1  122.446  0 i
 120.15  135.162  0 i
 120.2  103.256  0 i
 120.25  113.581  0 i
 120.3  147.214  0 i
 120.35  127.799  0 i
 120.4  115.88  0 i
 120.45  119.359  0 i
 120.5  132.938  0 i
 120.55  134.589  0 i
 120.6  133.533  0 i
 120.65  140.154  0 i
 120.7  131.767  0 i
 120.75  118.934  0 i
 120.8  135.693  0 i
 120.85  132.327  0 i
 120.9  132.397  0 i
 120.95  129.477  0 i
 121  119.787  0 i
 121.05  154.095  0 i
 121.1  130.027  0 i
 121.15  130.199  0 i
 121.2  132.738  0 i
 121.25  139.406  0 i
 121.3  133.649  0 i
 121.35  125.028  0 i
 121.4  126.296  0 i
 121.45  152.35  0 i
 121.5  124.545  0 i
 121.55  136.955  0 i
 121.6  129.965  0 i
 121.65  140.572  0 i
 121.7  131.934  0 i
 121.75  130.272  0 i
 121.8  119.67  0 i
 121.85  121.325  0 i
 121.9  133.235  0 i
 121.95  143.989  0 i
 122  139.083  0 i
 122.05  118.848  0 i
 122.1  136.133  0 i
 122.15  131.565  0 i
 122.2  118.61  0 i
 122.25  117.163  0 i
 122.3  142.126  0 i
 122.35  124.122  0 i
 122.4  127.004  0 i
 122.45  136.547  0 i
 122.5  123.823  0 i
 122.55  130.982  0 i
 122.6  106.554  0 i
 122.65  120.218  0 i
 122.7  128.1  0 i
 122.75  131.155  0 i
 122.8  133.959  0 i
 122.85  125.865  0 i
 122.9  141.495  0 i
 122.95  125.903  0 i
 123  107.722  0 i
 123.05  124.384  0 i
 123.1  126.335  0 i
 123.15  131.701  0 i
 123.2  135.149  0 i
 123.25  123.769  0 i
 123.3  125.311  0 i
 123.35  120.473  0 i
 123.4  140.659  0 i
 123.45  127.687  0 i
 123.5  104.722  0 i
 123.55  114.002  0 i
 123.6  115.872  0 i
 123.65  133.871  0 i
 123.7  125.004  0 i
 123.75  122.594  0 i
 123.8  109.837  0 i
 123.85  120.893  0 i
 123.9  139.566  0 i
 123.95  135.489  0 i
 124  143.978  0 i
 124.05  124.023  0 i
 124.1  115.819  0 i
 124.15  131.666  0 i
 124.2  105.058  0 i
 124.25  118.05  0 i
 124.3  97.2529  0 i
 124.35  131.84  0 i
 124.4  128.712  0 i
 124.45  137.774  0 i
 124.5  132.298  0 i
 124.55  113.243  0 i
 124.6  109.841  0 i
 124.65  122.006  0 i
 124.7  131.481  0 i
 124.75  136.736  0 i
 124.8  125.09  0 i
 124.85  145.713  0 i
 124.9  141.513  0 i
 124.95  141.746  0 i
 125  115.661  0 i
 125.05  131.929  0 i
 125.1  121.624  0 i
 125.15  152.373  0 i
 125.2  139.642  0 i
 125.25  124.766  0 i
 125.3  143.217  0 i
 125.35  134.889  0 i
 125.4  130.24  0 i
 125.45  124.839  0 i
 125.5  123.036  0 i
 125.55  128.92  0 i
 125.6  112.072  0 i
 125.65  126.415  0 i
 125.7  126.155  0 i
 125.75  146.24  0 i
 125.8  128.944  0 i
 125.85  112.485  0 i
 125.9  142.578  0 i
 125.95  135.898  0 i
 126  129.72  0 i
 126.05  118.719  0 i
 126.1  120.778  0 i
 126.15  130.539  0 i
 126.2  132.779  0 i
 126.25  133.621  0 i
 126.3  124.434  0 i
 126.35  136.232  0 i
 126.4  137.872  0 i
 126.45  112.981  0 i
 126.5  142.879  0 i
 126.55  131.63  0 i
 126.6  115.477  0 i
 126.65  136.051  0 i
 126.7  120.465  0 i
 126.75  122.823  0 i
 126.8  109.268  0 i
 126.85  110.376  0 i
 126.9  105.485  0 i
 126.95  132.667  0 i
 127  147.783  0 i
 127.05  108.316  0 i
 127.1  126.685  0 i
 127.15  115.772  0 i
 127.2  126.641  0 i
 127.25  130.11  0 i
 127.3  109.205  0 i
 127.35  134.531  0 i
 127.4  133.246  0 i
 127.45  126.868  0 i
 127.5  126.105  0 i
 127.55  142.165  0 i
 127.6  124.845  0 i
 127.65  127.782  0 i
 127.7  121.368  0 i
 127.75  127.859  0 i
 127.8  127.793  0 i
 127.85  148.545  0 i
 127.9  133.695  0 i
 127.95  126.692  0 i
 128  115.074  0 i
 128.05  121.614  0 i
 128.1  120.399  0 i
 128.15  135.661  0 i
 128.2  119.312  0 i
 128.25  123.054  0 i
 128.3  124.2  0 i
 128.35  135.437  0 i
 128.4  138.075  0 i
 128.45  108.668  0 i
 128.5  131.222  0 i
 128.55  148.039  0 i
 128.6  142.759  0 i
 128.65  123.124  0 i
 128.7  146.486  0 i
 128.75  110.105  0 i
 128.8  123.287  0 i
 128.85  134.647  0 i
 128.9  130.482  0 i
 128.95  128.071  0 i
 129  128.201  0 i
 129.05  122.618  0 i
 129.1  123.556  0 i
 129.15  111.854  0 i
 129.2  109.694  0 i
 129.25  141.32  0 i
 129.3  115.726  0 i
 129.35  140.046  0 i
 129.4  143.76  0 i
 129.45  124.725  0 i
 129.5  118.568  0 i
 129.55  126.015  0 i
 129.6  157.402  0 i
 129.65  140.38  0 i
 129.7  118.996  0 i
 129.75  145.391  0 i
 129.8  119.946  0 i
 129.85  141.232  0 i
 129.9  115.787  0 i
 129.95  111.782  0 i
 130  124.781  0 i

