40 209.252 180.904 28.348
40.05 174.542 180.767 -6.225
40.1 169.737 180.63 -10.893
40.15 164.688 180.498 -15.81
40.2 175.205 180.365 -5.16
40.25 175.619 180.239 -4.62
40.3 191.703 180.113 11.59
40.35 173.624 179.994 -6.37
40.4 178.272 179.875 -1.603
40.45 170.208 179.762 -9.554
40.5 180.457 179.65 0.807
40.55 195.081 179.541 15.54
40.6 191.51 179.433 12.077
40.65 175.501 179.327 -3.826
40.7 184.952 179.221 5.731
40.75 170.513 179.114 -8.601
40.8 152.579 179.008 -26.429
40.85 166.892 178.9 -12.008
40.9 177.339 178.793 -1.454
40.95 170.769 178.683 -7.914
41 186.687 178.574 8.113
41.05 180.729 178.465 2.264
41.1 163.239 178.357 -15.118
41.15 181.131 178.251 2.88
41.2 189.555 178.145 11.41
41.25 182.517 178.046 4.471
41.3 166.25 177.947 -11.697
41.35 188.802 177.858 10.944
41.4 185.022 177.769 7.253
41.45 178.462 177.693 0.769
41.5 190.988 177.617 13.371
41.55 167.021 177.555 -10.534
41.6 146.723 177.493 -30.77
41.65 159.078 177.446 -18.368
41.7 162.98 177.398 -14.418
41.75 185.267 177.364 7.903
41.8 166.419 177.33 -10.911
41.85 207.361 177.309 30.052
41.9 172.091 177.287 -5.196
41.95 182.347 177.279 5.068
42 171.693 177.27 -5.577
42.05 194.056 177.275 16.781
42.1 168.589 177.28 -8.691
42.15 175.693 177.303 -1.61
42.2 165.464 177.325 -11.861
42.25 162.541 177.372 -14.831
42.3 157.649 177.419 -19.77
42.35 166.777 177.498 -10.721
42.4 178.038 177.578 0.46
42.45 180.266 177.701 2.565
42.5 163.593 177.825 -14.232
42.55 182.596 178.006 4.59
42.6 173.932 178.188 -4.256
42.65 157.537 178.443 -20.906
42.7 158.795 178.698 -19.903
42.75 164.236 179.047 -14.811
42.8 191.271 179.395 11.876
42.85 196.971 179.864 17.107
42.9 175.939 180.333 -4.394
42.95 205.072 180.961 24.111
43 176.54 181.588 -5.048
43.05 213.108 182.437 30.671
43.1 186.574 183.286 3.288
43.15 177.942 184.489 -6.547
43.2 213.775 185.691 28.084
43.25 199.447 187.565 11.882
43.3 210.062 189.438 20.624
43.35 199.614 191.983 7.631
43.4 202.733 194.528 8.205
43.45 213.414 197.486 15.928
43.5 225.576 200.904 24.672
43.55 210.191 204.953 5.238
43.6 213.516 209.824 3.692
43.65 236.306 215.754 20.552
43.7 223.863 223.06 0.803
43.75 239.097 232.172 6.925
43.8 254.535 243.7 10.835
43.85 248.064 258.771 -10.707
43.9 264.687 277.931 -13.244
43.95 330.104 304.133 25.971
44 352.226 339.76 12.466
44.05 363.262 391.065 -27.803
44.1 530.773 466.89 63.883
44.15 600.985 587.222 13.763
44.2 764.109 790.51 -26.401
44.25 1153.34 1158.21 -4.87
44.3 1768.62 1827.52 -58.9
44.35 2918.57 2934.17 -15.6
44.4 4475.67 4388.42 87.25
44.45 5661.63 5591.3 70.33
44.5 5619.34 5657.86 -38.52
44.55 4323.86 4411.37 -87.51
44.6 2775.67 2765.63 10.04
44.65 1686.35 1603.58 82.77
44.7 1005.36 1003.24 2.12
44.75 679.463 701.198 -21.735
44.8 547.338 532.304 15.034
44.85 433.652 429.94 3.712
44.9 340.917 363.642 -22.725
44.95 287.913 318.451 -30.538
45 294.137 286.435 7.702
45.05 257.186 263.327 -6.141
45.1 226.072 245.405 -19.333
45.15 223.787 231.885 -8.098
45.2 213.224 221.301 -8.077
45.25 207.653 212.879 -5.226
45.3 217.992 206.078 11.914
45.35 175.942 200.993 -25.051
45.4 172.866 195.908 -23.042
45.45 180.921 192.349 -11.428
45.5 174.088 188.789 -14.701
45.55 164.167 186.183 -22.016
45.6 167.38 183.576 -16.196
45.65 203.834 181.546 22.288
45.7 143.831 179.516 -35.685
45.75 171.926 177.921 -5.995
45.8 189.395 176.326 13.069
45.85 169.096 175.107 -6.011
45.9 152.002 173.887 -21.885
45.95 195.92 172.911 23.009
46 169.094 171.935 -2.841
46.05 177.558 171.13 6.428
46.1 164.082 170.325 -6.243
46.15 135.255 169.648 -34.393
46.2 188.196 168.972 19.224
46.25 164.518 168.396 -3.878
46.3 178.307 167.821 10.486
46.35 169.204 167.325 1.879
46.4 181.359 166.829 14.53
46.45 135.658 166.397 -30.739
46.5 160.791 165.964 -5.173
46.55 173.449 165.581 7.868
46.6 145.791 165.198 -19.407
46.65 173.9 164.853 9.047
46.7 166.481 164.507 1.974
46.75 164.822 164.19 0.632
46.8 176.505 163.872 12.633
46.85 160.319 163.575 -3.256
46.9 158.76 163.278 -4.518
46.95 161.312 162.997 -1.685
47 180.728 162.716 18.012
47.05 145.965 162.447 -16.482
47.1 195.135 162.179 32.956
47.15 160.022 161.922 -1.9
47.2 159.234 161.666 -2.432
47.25 140.649 161.423 -20.774
47.3 139.653 161.179 -21.526
47.35 145.669 160.95 -15.281
47.4 162.595 160.72 1.875
47.45 150.065 160.505 -10.44
47.5 157.18 160.289 -3.109
47.55 143.718 160.088 -16.37
47.6 178.303 159.887 18.416
47.65 144.042 159.697 -15.655
47.7 150.695 159.508 -8.813
47.75 161.9 159.328 2.572
47.8 159.317 159.148 0.169
47.85 133.792 158.975 -25.183
47.9 158.322 158.801 -0.479
47.95 158.594 158.63 -0.036
48 177.788 158.46 19.328
48.05 163.826 158.289 5.537
48.1 167.74 158.119 9.621
48.15 150.348 157.948 -7.6
48.2 163.648 157.777 5.871
48.25 172.02 157.605 14.415
48.3 136.566 157.434 -20.868
48.35 146.506 157.262 -10.756
48.4 155.329 157.091 -1.762
48.45 155.999 156.923 -0.924
48.5 162.551 156.754 5.797
48.55 140.516 156.591 -16.075
48.6 142.591 156.427 -13.836
48.65 171.621 156.27 15.351
48.7 157.355 156.113 1.242
48.75 144.097 155.964 -11.867
48.8 139.673 155.814 -16.141
48.85 142.253 155.671 -13.418
48.9 177.155 155.528 21.627
48.95 145.677 155.395 -9.718
49 150.008 155.261 -5.253
49.05 140.946 155.126 -14.18
49.1 147.887 154.991 -7.104
49.15 141.819 154.857 -13.038
49.2 150.509 154.722 -4.213
49.25 164.454 154.586 9.868
49.3 154.92 154.45 0.47
49.35 169.473 154.311 15.162
49.4 161.16 154.172 6.988
49.45 149.919 154.03 -4.111
49.5 182.356 153.889 28.467
49.55 169.407 153.745 15.662
49.6 147.548 153.602 -6.054
49.65 168.217 153.459 14.758
49.7 150.428 153.317 -2.889
49.75 173.197 153.177 20.02
49.8 176.53 153.037 23.493
49.85 154.11 152.901 1.209
49.9 133.956 152.766 -18.81
49.95 140.72 152.636 -11.916
50 159.611 152.506 7.105
50.05 152.224 152.382 -0.158
50.1 143.618 152.258 -8.64
50.15 161.761 152.138 9.623
50.2 138.52 152.018 -13.498
50.25 139.686 151.901 -12.215
50.3 161.64 151.783 9.857
50.35 134.469 151.666 -17.197
50.4 153.865 151.549 2.316
50.45 171.007 151.43 19.577
50.5 163.363 151.31 12.053
50.55 166.432 151.188 15.244
50.6 167.758 151.067 16.691
50.65 153.01 150.942 2.068
50.7 157.226 150.817 6.409
50.75 150.43 150.69 -0.26
50.8 154.861 150.563 4.298
50.85 161.282 150.436 10.846
50.9 159.4 150.31 9.09
50.95 140.012 150.185 -10.173
51 156.608 150.06 6.548
51.05 173.026 149.939 23.087
51.1 144.075 149.818 -5.743
51.15 144.261 149.702 -5.441
51.2 156.081 149.586 6.495
51.25 129.363 149.475 -20.112
51.3 154.459 149.364 5.095
51.35 147.595 149.257 -1.662
51.4 134.694 149.15 -14.456
51.45 141.291 149.045 -7.754
51.5 164.938 148.941 15.997
51.55 166.142 148.836 17.306
51.6 166.163 148.732 17.431
51.65 157.292 148.626 8.666
51.7 139.113 148.52 -9.407
51.75 160.523 148.412 12.111
51.8 169.266 148.303 20.963
51.85 140.651 148.192 -7.541
51.9 145.669 148.081 -2.412
51.95 134.742 147.968 -13.226
52 141.938 147.855 -5.917
52.05 150.597 147.742 2.855
52.1 160.123 147.628 12.495
52.15 141.682 147.516 -5.834
52.2 133.819 147.405 -13.586
52.25 173.934 147.296 26.638
52.3 138.622 147.188 -8.566
52.35 137.081 147.084 -10.003
52.4 141.535 146.98 -5.445
52.45 152.527 146.88 5.647
52.5 141.188 146.781 -5.593
52.55 138.2 146.686 -8.486
52.6 144.158 146.59 -2.432
52.65 147.097 146.498 0.599
52.7 166.629 146.405 20.224
52.75 147.446 146.313 1.133
52.8 158.222 146.221 12.001
52.85 135.531 146.127 -10.596
52.9 152.86 146.034 6.826
52.95 157.069 145.939 11.13
53 136.738 145.843 -9.105
53.05 128.802 145.745 -16.943
53.1 164.333 145.648 18.685
53.15 129.588 145.548 -15.96
53.2 152.299 145.448 6.851
53.25 146.118 145.348 0.77
53.3 169.28 145.247 24.033
53.35 138.955 145.148 -6.193
53.4 129.721 145.049 -15.328
53.45 143.221 144.953 -1.732
53.5 111.79 144.857 -33.067
53.55 132.779 144.765 -11.986
53.6 138.068 144.673 -6.605
53.65 129.175 144.585 -15.41
53.7 141.421 144.498 -3.077
53.75 117.624 144.414 -26.79
53.8 146.752 144.331 2.421
53.85 153.76 144.25 9.51
53.9 133.44 144.169 -10.729
53.95 160.319 144.09 16.229
54 119.284 144.01 -24.726
54.05 145.796 143.93 1.866
54.1 140.204 143.85 -3.646
54.15 125.744 143.768 -18.024
54.2 129.359 143.686 -14.327
54.25 141.312 143.602 -2.29
54.3 137.071 143.518 -6.447
54.35 135.771 143.432 -7.661
54.4 160.367 143.346 17.021
54.45 129.432 143.259 -13.827
54.5 127.609 143.172 -15.563
54.55 143.662 143.086 0.576
54.6 149.617 143 6.617
54.65 133.564 142.917 -9.353
54.7 148.658 142.833 5.825
54.75 146.363 142.754 3.609
54.8 164.502 142.674 21.828
54.85 142.332 142.599 -0.267
54.9 133.045 142.524 -9.479
54.95 108.675 142.453 -33.778
55 146.249 142.382 3.867
55.05 149.89 142.314 7.576
55.1 136.911 142.246 -5.335
55.15 137.098 142.18 -5.082
55.2 144.022 142.114 1.908
55.25 138.353 142.047 -3.694
55.3 135.703 141.981 -6.278
55.35 125.429 141.913 -16.484
55.4 131.297 141.845 -10.548
55.45 117.831 141.775 -23.944
55.5 161.488 141.705 19.783
55.55 149.373 141.632 7.741
55.6 146.878 141.56 5.318
55.65 130.874 141.486 -10.612
55.7 145.621 141.412 4.209
55.75 133.803 141.339 -7.536
55.8 136.584 141.265 -4.681
55.85 151.977 141.193 10.784
55.9 148.818 141.121 7.697
55.95 135.76 141.053 -5.293
56 138.863 140.984 -2.121
56.05 142.911 140.919 1.992
56.1 139.315 140.854 -1.539
56.15 154.765 140.793 13.972
56.2 132.512 140.732 -8.22
56.25 157.765 140.674 17.091
56.3 147.582 140.616 6.966
56.35 138.737 140.559 -1.822
56.4 127.742 140.503 -12.761
56.45 138.603 140.447 -1.844
56.5 160.985 140.391 20.594
56.55 126.047 140.333 -14.286
56.6 143.969 140.276 3.693
56.65 159.98 140.216 19.764
56.7 143.111 140.157 2.954
56.75 169.409 140.095 29.314
56.8 122.698 140.033 -17.335
56.85 146.611 139.97 6.641
56.9 136.06 139.906 -3.846
56.95 146.673 139.842 6.831
57 144.565 139.778 4.787
57.05 149.346 139.715 9.631
57.1 144.488 139.653 4.835
57.15 121.905 139.592 -17.687
57.2 137.581 139.532 -1.951
57.25 152.8 139.475 13.325
57.3 156.632 139.418 17.214
57.35 138.911 139.365 -0.454
57.4 117.992 139.312 -21.32
57.45 174.76 139.262 35.498
57.5 131.642 139.212 -7.57
57.55 134.699 139.164 -4.465
57.6 133.108 139.117 -6.009
57.65 133.903 139.07 -5.167
57.7 138.878 139.023 -0.145
57.75 148.877 138.975 9.902
57.8 143.331 138.928 4.403
57.85 147.934 138.878 9.056
57.9 138.246 138.829 -0.583
57.95 156.147 138.777 17.37
58 136.795 138.725 -1.93
58.05 151.932 138.671 13.261
58.1 146.087 138.618 7.469
58.15 141.217 138.563 2.654
58.2 123.919 138.508 -14.589
58.25 145.328 138.453 6.875
58.3 132.395 138.399 -6.004
58.35 151.665 138.346 13.319
58.4 114.712 138.294 -23.582
58.45 144.911 138.244 6.667
58.5 140.67 138.194 2.476
58.55 116.165 138.148 -21.983
58.6 162.776 138.102 24.674
58.65 139.099 138.059 1.04
58.7 143.777 138.017 5.76
58.75 147.412 137.977 9.435
58.8 133.387 137.937 -4.55
58.85 134.068 137.898 -3.83
58.9 128.193 137.86 -9.667
58.95 160.167 137.821 22.346
59 127.334 137.783 -10.449
59.05 158.053 137.743 20.31
59.1 148.504 137.703 10.801
59.15 141.495 137.661 3.834
59.2 125.451 137.619 -12.168
59.25 123.865 137.574 -13.709
59.3 129.139 137.53 -8.391
59.35 147.219 137.484 9.735
59.4 130.991 137.438 -6.447
59.45 140.98 137.392 3.588
59.5 154.159 137.346 16.813
59.55 133.275 137.3 -4.025
59.6 148.353 137.255 11.098
59.65 127.675 137.212 -9.537
59.7 130.399 137.169 -6.77
59.75 122.036 137.049 -15.013
59.8 127.933 136.929 -8.996
59.85 165.316 136.891 28.425
59.9 141.343 136.852 4.491
59.95 121.889 136.815 -14.926
60 130.694 136.777 -6.083
60.05 133.155 136.741 -3.586
60.1 115.74 136.705 -20.965
60.15 129.608 136.671 -7.063
60.2 133.758 136.636 -2.878
60.25 159.294 136.602 22.692
60.3 145.565 136.568 8.997
60.35 141.095 136.535 4.56
60.4 130.41 136.503 -6.093
60.45 127.633 136.47 -8.837
60.5 135.261 136.438 -1.177
60.55 126.692 136.406 -9.714
60.6 149.626 136.374 13.252
60.65 143.514 136.342 7.172
60.7 140.864 136.31 4.554
60.75 147.965 136.278 11.687
60.8 134.897 136.246 -1.349
60.85 149.041 136.215 12.826
60.9 146.712 136.184 10.528
60.95 141.997 136.154 5.843
61 147.209 136.123 11.086
61.05 113.215 136.094 -22.879
61.1 132.392 136.064 -3.672
61.15 139.832 136.036 3.796
61.2 110.485 136.008 -25.523
61.25 108.319 135.982 -27.663
61.3 121.415 135.956 -14.541
61.35 133.665 135.932 -2.267
61.4 144.534 135.907 8.627
61.45 117.755 135.885 -18.13
61.5 146.72 135.863 10.857
61.55 142.086 135.842 6.244
61.6 136.697 135.822 0.875
61.65 161.98 135.803 26.177
61.7 150.207 135.784 14.423
61.75 154.504 135.767 18.737
61.8 147.166 135.749 11.417
61.85 127.431 135.734 -8.303
61.9 118.468 135.718 -17.25
61.95 126.936 135.704 -8.768
62 150.328 135.691 14.637
62.05 143.44 135.679 7.761
62.1 140.595 135.667 4.928
62.15 126.16 135.659 -9.499
62.2 135.475 135.65 -0.175
62.25 112.235 135.646 -23.411
62.3 132.694 135.641 -2.947
62.35 130.055 135.642 -5.587
62.4 134.513 135.642 -1.129
62.45 150.129 135.649 14.48
62.5 156.664 135.657 21.007
62.55 117.391 135.672 -18.281
62.6 137.853 135.688 2.165
62.65 130.673 135.714 -5.041
62.7 151.825 135.741 16.084
62.75 121.882 135.78 -13.898
62.8 137.621 135.82 1.801
62.85 134.067 135.877 -1.81
62.9 123.89 135.934 -12.044
62.95 147.753 136.014 11.739
63 150.435 136.094 14.341
63.05 145.176 136.205 8.971
63.1 129.993 136.317 -6.324
63.15 140.917 136.473 4.444
63.2 135.706 136.629 -0.923
63.25 140.981 136.85 4.131
63.3 128.881 137.07 -8.189
63.35 161.791 137.375 24.416
63.4 137.571 137.681 -0.11
63.45 137.689 138.099 -0.41
63.5 138.402 138.516 -0.114
63.55 152.331 139.094 13.237
63.6 167.585 139.671 27.914
63.65 159.846 140.499 19.347
63.7 145.936 141.327 4.609
63.75 142.344 142.554 -0.21
63.8 152.448 143.781 8.667
63.85 155.61 145.668 9.942
63.9 145.888 147.554 -1.666
63.95 140.093 150.572 -10.479
64 176.069 153.59 22.479
64.05 149.222 158.64 -9.418
64.1 145.91 163.689 -17.779
64.15 170.543 171.252 -0.709
64.2 194.905 181.326 13.579
64.25 200.304 194.767 5.537
64.3 213.124 212.504 0.62
64.35 250.491 235.156 15.335
64.4 254.563 262.19 -7.627
64.45 282.875 290.697 -7.822
64.5 318.929 315.256 3.673
64.55 336.272 328.62 7.652
64.6 311.435 326.112 -14.677
64.65 301.708 308.231 -6.523
64.7 271.391 281.334 -9.943
64.75 258.696 252.083 6.613
64.8 249.793 225.828 23.965
64.85 212.302 204.864 7.438
64.9 188.732 188.323 0.409
64.95 172.354 176.156 -3.802
65 160.782 167.087 -6.305
65.05 144.335 161.114 -16.779
65.1 134.75 155.141 -20.391
65.15 144.173 151.635 -7.462
65.2 165.476 148.13 17.346
65.25 169.49 145.969 23.521
65.3 159.262 143.807 15.455
65.35 142.051 142.413 -0.362
65.4 157.93 141.018 16.912
65.45 140.758 140.08 0.678
65.5 123.429 139.142 -15.713
65.55 130.507 138.487 -7.98
65.6 132.07 137.832 -5.762
65.65 132.08 137.357 -5.277
65.7 132.093 136.882 -4.789
65.75 139.946 136.528 3.418
65.8 131.525 136.173 -4.648
65.85 156.128 135.904 20.224
65.9 150.393 135.634 14.759
65.95 137.214 135.429 1.785
66 148.402 135.223 13.179
66.05 135.739 135.063 0.676
66.1 142.008 134.902 7.106
66.15 166.148 134.775 31.373
66.2 142.545 134.648 7.897
66.25 148.539 134.545 13.994
66.3 129.027 134.442 -5.415
66.35 123.924 134.357 -10.433
66.4 132.81 134.272 -1.462
66.45 136.392 134.2 2.192
66.5 151.954 134.129 17.825
66.55 134.021 134.068 -0.047
66.6 131.954 134.008 -2.054
66.65 134.033 133.955 0.078
66.7 127.021 133.902 -6.881
66.75 129.775 133.855 -4.08
66.8 143.628 133.809 9.819
66.85 134.605 133.767 0.838
66.9 125.722 133.725 -8.003
66.95 124.086 133.686 -9.6
67 140.278 133.648 6.63
67.05 131.246 133.612 -2.366
67.1 126.527 133.576 -7.049
67.15 124.75 133.543 -8.793
67.2 134.255 133.51 0.745
67.25 127.107 133.479 -6.372
67.3 121.54 133.448 -11.908
67.35 140.958 133.419 7.539
67.4 140.692 133.39 7.302
67.45 126.17 133.363 -7.193
67.5 132.399 133.337 -0.938
67.55 124.763 133.312 -8.549
67.6 140.264 133.287 6.977
67.65 144.642 133.263 11.379
67.7 139.351 133.24 6.111
67.75 147.252 133.218 14.034
67.8 141.024 133.196 7.828
67.85 112.997 133.175 -20.178
67.9 124.531 133.154 -8.623
67.95 164.167 133.134 31.033
68 135.054 133.114 1.94
68.05 138.37 133.095 5.275
68.1 138.187 133.075 5.112
68.15 134.922 133.056 1.866
68.2 129.972 133.036 -3.064
68.25 130.591 133.017 -2.426
68.3 149.558 132.998 16.56
68.35 128.743 132.978 -4.235
68.4 142.881 132.959 9.922
68.45 130.821 132.94 -2.119
68.5 119.886 132.921 -13.035
68.55 142.968 132.902 10.066
68.6 128.732 132.884 -4.152
68.65 118.999 132.865 -13.866
68.7 142.275 132.847 9.428
68.75 151.193 132.83 18.363
68.8 125.861 132.812 -6.951
68.85 123.214 132.795 -9.581
68.9 139.251 132.778 6.473
68.95 133.37 132.762 0.608
69 142.802 132.746 10.056
69.05 124.92 132.73 -7.81
69.1 121.07 132.714 -11.644
69.15 139.927 132.699 7.228
69.2 130.803 132.683 -1.88
69.25 144.982 132.668 12.314
69.3 152.421 132.653 19.768
69.35 137.129 132.637 4.492
69.4 119.713 132.622 -12.909
69.45 149.135 132.606 16.529
69.5 141.137 132.59 8.547
69.55 126.099 132.574 -6.475
69.6 112.172 132.558 -20.386
69.65 127.257 132.541 -5.284
69.7 127.807 132.525 -4.718
69.75 115.583 132.508 -16.925
69.8 124.138 132.492 -8.354
69.85 118.519 132.475 -13.956
69.9 125.849 132.459 -6.61
69.95 106.326 132.443 -26.117
70 123.143 132.427 -9.284
70.05 136.209 132.411 3.798
70.1 135.016 132.395 2.621
70.15 131.595 132.38 -0.785
70.2 130.842 132.365 -1.523
70.25 123.635 132.35 -8.715
70.3 132.682 132.335 0.347
70.35 131.019 132.32 -1.301
70.4 139.928 132.306 7.622
70.45 132.479 132.291 0.188
70.5 127.489 132.277 -4.788
70.55 150.844 132.262 18.582
70.6 129.542 132.247 -2.705
70.65 128.65 132.232 -3.582
70.7 128.045 132.217 -4.172
70.75 129.69 132.202 -2.512
70.8 127.525 132.186 -4.661
70.85 127.651 132.17 -4.519
70.9 128.528 132.154 -3.626
70.95 123.199 132.138 -8.939
71 134.275 132.121 2.154
71.05 142.462 132.105 10.357
71.1 139.641 132.088 7.553
71.15 132.218 132.071 0.147
71.2 123.7 132.055 -8.355
71.25 127.206 132.038 -4.832
71.3 138.868 132.022 6.846
71.35 138.688 132.005 6.683
71.4 137.94 131.989 5.951
71.45 127.499 131.973 -4.474
71.5 142.456 131.957 10.499
71.55 120.505 131.942 -11.437
71.6 134.233 131.926 2.307
71.65 150.942 131.911 19.031
71.7 150.44 131.896 18.544
71.75 137.96 131.881 6.079
71.8 123.632 131.865 -8.233
71.85 116.607 131.85 -15.243
71.9 135.087 131.835 3.252
71.95 133.859 131.819 2.04
72 137.794 131.803 5.991
72.05 117.018 131.786 -14.768
72.1 145.807 131.77 14.037
72.15 136.47 131.752 4.718
72.2 139.387 131.735 7.652
72.25 144.41 131.717 12.693
72.3 133.949 131.7 2.249
72.35 137.225 131.681 5.544
72.4 138.649 131.663 6.986
72.45 134.269 131.645 2.624
72.5 138.851 131.627 7.224
72.55 120.939 131.608 -10.669
72.6 129.145 131.59 -2.445
72.65 135.789 131.572 4.217
72.7 107.555 131.554 -23.999
72.75 145.057 131.536 13.521
72.8 129.219 131.518 -2.299
72.85 132.972 131.501 1.471
72.9 138.421 131.484 6.937
72.95 129.566 131.467 -1.901
73 130.182 131.449 -1.267
73.05 122.967 131.432 -8.465
73.1 122.447 131.415 -8.968
73.15 126.624 131.398 -4.774
73.2 154.451 131.381 23.07
73.25 119.689 131.363 -11.674
73.3 148.937 131.345 17.592
73.35 136.79 131.327 5.463
73.4 136.85 131.308 5.542
73.45 136.404 131.289 5.115
73.5 136.605 131.27 5.335
73.55 118.314 131.251 -12.937
73.6 140.143 131.231 8.912
73.65 150.868 131.211 19.657
73.7 129.099 131.192 -2.093
73.75 130.236 131.172 -0.936
73.8 114.761 131.153 -16.392
73.85 127.517 131.134 -3.617
73.9 138.083 131.114 6.969
73.95 137.654 131.096 6.558
74 146.239 131.077 15.162
74.05 126.743 131.059 -4.316
74.1 122.882 131.042 -8.16
74.15 115.668 131.025 -15.357
74.2 129.288 131.008 -1.72
74.25 118.21 130.992 -12.782
74.3 130.557 130.976 -0.419
74.35 154.514 130.961 23.553
74.4 121.57 130.945 -9.375
74.45 159.462 130.93 28.532
74.5 128.303 130.915 -2.612
74.55 116.116 130.9 -14.784
74.6 135.746 130.885 4.861
74.65 112.33 130.87 -18.54
74.7 150.017 130.855 19.162
74.75 155.151 130.84 24.311
74.8 136.718 130.824 5.894
74.85 135.746 130.808 4.938
74.9 134.51 130.792 3.718
74.95 138.573 130.776 7.797
75 131.769 130.76 1.009
75.05 127.471 130.744 -3.273
75.1 142.018 130.727 11.291
75.15 132.182 130.711 1.471
75.2 137.546 130.695 6.851
75.25 125.222 130.679 -5.457
75.3 140.924 130.663 10.261
75.35 150.199 130.649 19.55
75.4 143.545 130.634 12.911
75.45 139.315 130.62 8.695
75.5 120.683 130.606 -9.923
75.55 130.729 130.593 0.136
75.6 130.312 130.58 -0.268
75.65 125.074 130.568 -5.494
75.7 121.735 130.556 -8.821
75.75 122.334 130.545 -8.211
75.8 140.989 130.534 10.455
75.85 129.27 130.523 -1.253
75.9 131.948 130.512 1.436
75.95 131.81 130.501 1.309
76 141.13 130.49 10.64
76.05 121.136 130.479 -9.343
76.1 116.955 130.468 -13.513
76.15 135.563 130.457 5.106
76.2 129.296 130.445 -1.149
76.25 155.505 130.433 25.072
76.3 136.279 130.421 5.858
76.35 110.343 130.409 -20.066
76.4 138.967 130.396 8.571
76.45 115.91 130.384 -14.474
76.5 149.338 130.372 18.966
76.55 162.944 130.36 32.584
76.6 141.884 130.348 11.536
76.65 143.668 130.336 13.332
76.7 119.54 130.325 -10.785
76.75 128.556 130.315 -1.759
76.8 130.502 130.305 0.197
76.85 131.544 130.296 1.248
76.9 123.296 130.287 -6.991
76.95 127.06 130.279 -3.219
77 142.151 130.272 11.879
77.05 152.559 130.265 22.294
77.1 120.835 130.259 -9.424
77.15 139.119 130.254 8.865
77.2 127.498 130.248 -2.75
77.25 125.391 130.244 -4.853
77.3 136.581 130.239 6.342
77.35 114.375 130.235 -15.86
77.4 137.717 130.23 7.487
77.45 124.816 130.226 -5.41
77.5 142.006 130.221 11.785
77.55 154.535 130.217 24.318
77.6 155.435 130.212 25.223
77.65 109.804 130.208 -20.404
77.7 114.401 130.203 -15.802
77.75 119.272 130.198 -10.926
77.8 127.386 130.193 -2.807
77.85 120.969 130.189 -9.22
77.9 130.926 130.185 0.741
77.95 133.394 130.182 3.212
78 142.661 130.178 12.483
78.05 139.288 130.177 9.111
78.1 128.608 130.175 -1.567
78.15 120.366 130.175 -9.809
78.2 135.287 130.175 5.112
78.25 127.601 130.177 -2.576
78.3 139.112 130.18 8.932
78.35 138.935 130.185 8.75
78.4 116.538 130.19 -13.652
78.45 125.654 130.198 -4.544
78.5 132.596 130.206 2.39
78.55 131.653 130.216 1.437
78.6 131.874 130.227 1.647
78.65 118.6 130.24 -11.64
78.7 139.613 130.253 9.36
78.75 129.376 130.269 -0.893
78.8 116.767 130.284 -13.517
78.85 119.829 130.302 -10.473
78.9 133.188 130.32 2.868
78.95 123.507 130.34 -6.833
79 137.903 130.361 7.542
79.05 121.987 130.385 -8.398
79.1 128.353 130.408 -2.055
79.15 116.869 130.442 -13.573
79.2 133.749 130.475 3.274
79.25 149.604 130.508 19.096
79.3 133.364 130.541 2.823
79.35 131.669 130.581 1.088
79.4 142.192 130.622 11.57
79.45 138.364 130.671 7.693
79.5 126.628 130.72 -4.092
79.55 139.195 130.78 8.415
79.6 125.105 130.84 -5.735
79.65 128.057 130.914 -2.857
79.7 144.08 130.988 13.092
79.75 133.953 131.079 2.874
79.8 137.69 131.17 6.52
79.85 143.666 131.281 12.385
79.9 159.849 131.393 28.456
79.95 123.915 131.53 -7.615
80 152.193 131.668 20.525
80.05 137.077 131.839 5.238
80.1 143.741 132.009 11.732
80.15 144.03 132.223 11.807
80.2 155.648 132.436 23.212
80.25 145.382 132.707 12.675
80.3 140.302 132.978 7.324
80.35 159.257 133.327 25.93
80.4 128.23 133.675 -5.445
80.45 138.419 134.133 4.286
80.5 140.467 134.592 5.875
80.55 142.34 135.207 7.133
80.6 134.627 135.823 -1.196
80.65 135.504 136.66 -1.156
80.7 129.304 137.497 -8.193
80.75 132.023 138.625 -6.602
80.8 154.706 139.753 14.953
80.85 152.279 141.273 11.006
80.9 150.291 142.792 7.499
80.95 136.84 144.895 -8.055
81 175.103 146.999 28.104
81.05 139.692 150.026 -10.334
81.1 160.815 153.053 7.762
81.15 162.767 157.581 5.186
81.2 152.795 162.11 -9.315
81.25 188.166 168.355 19.811
81.3 175.424 176.237 -0.813
81.35 212.538 186.468 26.07
81.4 218.565 199.33 19.235
81.45 238.996 216.392 22.604
81.5 264.518 239.005 25.513
81.55 279.507 269.427 10.08
81.6 324.914 309.633 15.281
81.65 388.922 362.898 26.024
81.7 424.553 430.281 -5.728
81.75 504.993 508.768 -3.775
81.8 533.734 587.727 -53.993
81.85 652.745 648.975 3.77
81.9 670.149 673.423 -3.274
81.95 635.028 652.058 -17.03
82 582.256 592.155 -9.899
82.05 482.887 512.553 -29.666
82.1 449.96 432.462 17.498
82.15 385.954 363.541 22.413
82.2 311.136 309.246 1.89
82.25 279.265 268.478 10.787
82.3 247.602 237.785 9.817
82.35 217.364 215.393 1.971
82.4 191.918 198.023 -6.105
82.45 194.722 185.05 9.672
82.5 182.479 175.053 7.426
82.55 130.077 168.067 -37.99
82.6 164.728 161.081 3.647
82.65 162.244 156.623 5.621
82.7 147.185 152.164 -4.979
82.75 136.577 149.197 -12.62
82.8 144.168 146.229 -2.061
82.85 170.011 144.179 25.832
82.9 164.409 142.129 22.28
82.95 137.488 140.661 -3.173
83 145.237 139.194 6.043
83.05 143.203 138.112 5.091
83.1 136.16 137.03 -0.87
83.15 115.109 136.221 -21.112
83.2 123.505 135.412 -11.907
83.25 135.684 134.804 0.88
83.3 126.589 134.197 -7.608
83.35 123.555 133.734 -10.179
83.4 111.768 133.272 -21.504
83.45 121.475 132.912 -11.437
83.5 124.644 132.553 -7.909
83.55 115.416 132.268 -16.852
83.6 143.237 131.984 11.253
83.65 138.036 131.755 6.281
83.7 133.989 131.526 2.463
83.75 140.284 131.339 8.945
83.8 116.617 131.151 -14.534
83.85 160.906 130.997 29.909
83.9 152.215 130.843 21.372
83.95 118.864 130.714 -11.85
84 136.13 130.586 5.544
84.05 116.751 130.478 -13.727
84.1 135.4 130.37 5.03
84.15 123.788 130.279 -6.491
84.2 142.281 130.188 12.093
84.25 133.06 130.111 2.949
84.3 137.765 130.033 7.732
84.35 116.468 129.967 -13.499
84.4 128.107 129.901 -1.794
84.45 128.622 129.844 -1.222
84.5 110.476 129.786 -19.31
84.55 150.78 129.736 21.044
84.6 130.439 129.686 0.753
84.65 153.633 129.641 23.992
84.7 142.728 129.597 13.131
84.75 147.98 129.557 18.423
84.8 116.779 129.517 -12.738
84.85 121.938 129.48 -7.542
84.9 138.401 129.443 8.958
84.95 171.075 129.409 41.666
85 127.942 129.375 -1.433
85.05 138.862 129.344 9.518
85.1 145.414 129.312 16.102
85.15 118.886 129.283 -10.397
85.2 136.866 129.253 7.613
85.25 129.692 129.226 0.466
85.3 152.525 129.198 23.327
85.35 125.369 129.173 -3.804
85.4 135.72 129.147 6.573
85.45 130.575 129.124 1.451
85.5 119.145 129.101 -9.956
85.55 123.686 129.08 -5.394
85.6 138.322 129.059 9.263
85.65 126.373 129.04 -2.667
85.7 114.878 129.021 -14.143
85.75 135.492 129.004 6.488
85.8 115.153 128.986 -13.833
85.85 120.982 128.971 -7.989
85.9 127.753 128.956 -1.203
85.95 131.083 128.941 2.142
86 123.236 128.927 -5.691
86.05 120.956 128.914 -7.958
86.1 140.451 128.901 11.55
86.15 144.448 128.888 15.56
86.2 133.198 128.876 4.322
86.25 123.345 128.864 -5.519
86.3 149.622 128.851 20.771
86.35 129.05 128.839 0.211
86.4 135.76 128.827 6.933
86.45 148.937 128.814 20.123
86.5 139.392 128.802 10.59
86.55 130.406 128.789 1.617
86.6 135.956 128.776 7.18
86.65 124.442 128.764 -4.322
86.7 122.85 128.751 -5.901
86.75 114.648 128.739 -14.091
86.8 141.238 128.726 12.512
86.85 119.294 128.714 -9.42
86.9 137.344 128.702 8.642
86.95 124.284 128.69 -4.406
87 138.325 128.679 9.646
87.05 121.323 128.668 -7.345
87.1 133.143 128.657 4.486
87.15 124.051 128.647 -4.596
87.2 124.186 128.637 -4.451
87.25 122.07 128.628 -6.558
87.3 127.326 128.619 -1.293
87.35 111.962 128.611 -16.649
87.4 142.633 128.602 14.031
87.45 121.647 128.594 -6.947
87.5 129.759 128.586 1.173
87.55 132.608 128.579 4.029
87.6 123.205 128.572 -5.367
87.65 152.72 128.564 24.156
87.7 134.589 128.557 6.032
87.75 137.558 128.549 9.009
87.8 108.389 128.542 -20.153
87.85 141.036 128.534 12.502
87.9 137.482 128.526 8.956
87.95 121.665 128.518 -6.853
88 125.023 128.51 -3.487
88.05 143.849 128.502 15.347
88.1 124.52 128.493 -3.973
88.15 141.245 128.484 12.761
88.2 121.796 128.475 -6.679
88.25 124.737 128.466 -3.729
88.3 117.99 128.457 -10.467
88.35 117.792 128.448 -10.656
88.4 108.528 128.439 -19.911
88.45 141.548 128.431 13.117
88.5 119.089 128.422 -9.333
88.55 106.357 128.413 -22.056
88.6 128.851 128.405 0.446
88.65 120.303 128.397 -8.094
88.7 144.032 128.389 15.643
88.75 123.105 128.381 -5.276
88.8 141.434 128.374 13.06
88.85 125.446 128.367 -2.921
88.9 127.805 128.36 -0.555
88.95 120.243 128.353 -8.11
89 155.11 128.347 26.763
89.05 153.651 128.34 25.311
89.1 140.641 128.334 12.307
89.15 132.616 128.328 4.288
89.2 131.994 128.321 3.673
89.25 126.419 128.315 -1.896
89.3 127.63 128.308 -0.678
89.35 134.654 128.302 6.352
89.4 149.611 128.295 21.316
89.45 138.529 128.288 10.241
89.5 111.819 128.281 -16.462
89.55 154.823 128.274 26.549
89.6 125.2 128.266 -3.066
89.65 114.657 128.259 -13.602
89.7 118.146 128.251 -10.105
89.75 155.635 128.243 27.392
89.8 121.821 128.235 -6.414
89.85 116.154 128.227 -12.073
89.9 135.528 128.219 7.309
89.95 162.912 128.211 34.701
90 135.656 128.203 7.453
90.05 129.637 128.195 1.442
90.1 116.6 128.187 -11.587
90.15 142.192 128.179 14.013
90.2 145.966 128.172 17.794
90.25 144.28 128.164 16.116
90.3 132.051 128.157 3.894
90.35 135.676 128.15 7.526
90.4 143.251 128.143 15.108
90.45 145.018 128.136 16.882
90.5 127.566 128.129 -0.563
90.55 142.61 128.123 14.487
90.6 153.595 128.116 25.479
90.65 135.037 128.11 6.927
90.7 115.74 128.104 -12.364
90.75 135.142 128.097 7.045
90.8 123.028 128.091 -5.063
90.85 126.915 128.085 -1.17
90.9 149.056 128.079 20.977
90.95 139.686 128.072 11.614
91 138.668 128.066 10.602
91.05 123.338 128.06 -4.722
91.1 121.751 128.053 -6.302
91.15 131.357 128.047 3.31
91.2 138.893 128.04 10.853
91.25 137.211 128.033 9.178
91.3 120.471 128.026 -7.555
91.35 142.416 128.02 14.396
91.4 137.556 128.013 9.543
91.45 134.859 128.006 6.853
91.5 131.874 127.999 3.875
91.55 122.142 127.993 -5.851
91.6 125.785 127.986 -2.201
91.65 114.835 127.98 -13.145
91.7 147.882 127.974 19.908
91.75 130.44 127.968 2.472
91.8 121.445 127.962 -6.517
91.85 126.949 127.956 -1.007
91.9 129.942 127.951 1.991
91.95 142.857 127.945 14.912
92 116.698 127.94 -11.242
92.05 141.415 127.935 13.48
92.1 137.017 127.93 9.087
92.15 129.465 127.926 1.539
92.2 122.948 127.921 -4.973
92.25 141.457 127.917 13.54
92.3 144.198 127.912 16.286
92.35 111.691 127.908 -16.217
92.4 125.452 127.903 -2.451
92.45 126.593 127.899 -1.306
92.5 124.551 127.895 -3.344
92.55 126.371 127.891 -1.52
92.6 133.814 127.886 5.928
92.65 98.7531 127.882 -29.1289
92.7 113.329 127.878 -14.549
92.75 125.115 127.874 -2.759
92.8 139.936 127.87 12.066
92.85 123.257 127.866 -4.609
92.9 133.009 127.861 5.148
92.95 142.411 127.858 14.553
93 132.658 127.854 4.804
93.05 130.851 127.855 2.996
93.1 149.676 127.856 21.82
93.15 124.351 127.853 -3.502
93.2 138.378 127.85 10.528
93.25 119.562 127.847 -8.285
93.3 139.679 127.844 11.835
93.35 132.785 127.842 4.943
93.4 124.951 127.84 -2.889
93.45 138.545 127.839 10.706
93.5 125.877 127.837 -1.96
93.55 143.725 127.836 15.889
93.6 116.731 127.835 -11.104
93.65 140.056 127.834 12.222
93.7 141.86 127.833 14.027
93.75 127.179 127.832 -0.653
93.8 125.851 127.832 -1.981
93.85 129.333 127.831 1.502
93.9 126.61 127.831 -1.221
93.95 109.026 127.831 -18.805
94 125.135 127.83 -2.695
94.05 117.155 127.831 -10.676
94.1 116.183 127.831 -11.648
94.15 141.129 127.831 13.298
94.2 135.668 127.832 7.836
94.25 132.428 127.833 4.595
94.3 135.575 127.834 7.741
94.35 113.689 127.836 -14.147
94.4 122.473 127.838 -5.365
94.45 139.144 127.841 11.303
94.5 147.611 127.843 19.768
94.55 112.775 127.847 -15.072
94.6 115.045 127.851 -12.806
94.65 121.024 127.857 -6.833
94.7 127.21 127.862 -0.652
94.75 132.084 127.869 4.215
94.8 127.928 127.876 0.052
94.85 128.519 127.884 0.635
94.9 137.893 127.893 10
94.95 123.953 127.903 -3.95
95 142.561 127.913 14.648
95.05 140.531 127.925 12.606
95.1 130.615 127.937 2.678
95.15 141.678 127.951 13.727
95.2 118.803 127.965 -9.162
95.25 117.407 127.982 -10.575
95.3 143.124 127.998 15.126
95.35 137.678 128.017 9.661
95.4 108.079 128.036 -19.957
95.45 133.723 128.057 5.666
95.5 119.154 128.079 -8.925
95.55 132.516 128.105 4.411
95.6 140.915 128.13 12.785
95.65 158.061 128.16 29.901
95.7 129.475 128.19 1.285
95.75 149.895 128.226 21.669
95.8 132.581 128.261 4.32
95.85 143.153 128.303 14.85
95.9 138.237 128.345 9.892
95.95 131.569 128.395 3.174
96 138.119 128.446 9.673
96.05 128.945 128.507 0.438
96.1 126.996 128.567 -1.571
96.15 124.938 128.641 -3.703
96.2 127.658 128.714 -1.056
96.25 143.293 128.804 14.489
96.3 134.769 128.893 5.876
96.35 129.756 129.002 0.754
96.4 127.484 129.111 -1.627
96.45 138.919 129.246 9.673
96.5 133.557 129.38 4.177
96.55 129.81 129.546 0.264
96.6 125.064 129.713 -4.649
96.65 139.742 129.921 9.821
96.7 120.156 130.129 -9.973
96.75 139.875 130.391 9.484
96.8 99.2946 130.654 -31.3594
96.85 133.248 130.989 2.259
96.9 132.686 131.325 1.361
96.95 139.925 131.759 8.166
97 116.287 132.193 -15.906
97.05 143.067 132.762 10.305
97.1 120.914 133.33 -12.416
97.15 154.745 134.082 20.663
97.2 153.799 134.833 18.966
97.25 145.984 135.836 10.148
97.3 137.129 136.84 0.289
97.35 161.672 138.2 23.472
97.4 139.812 139.56 0.252
97.45 129.434 141.443 -12.009
97.5 147.072 143.326 3.746
97.55 155.033 145.996 9.037
97.6 155.745 148.666 7.079
97.65 150.096 152.548 -2.452
97.7 160.417 156.431 3.986
97.75 152.862 162.211 -9.349
97.8 157.635 167.992 -10.357
97.85 180.254 175.836 4.418
97.9 185.009 185.521 -0.512
97.95 143.725 197.464 -53.739
98 184.469 212.097 -27.628
98.05 217.705 229.94 -12.235
98.1 246.366 250.534 -4.168
98.15 279.833 273.911 5.922
98.2 299.68 298.397 1.283
98.25 335.803 321.565 14.238
98.3 370.751 340.09 30.661
98.35 355.357 350.6 4.757
98.4 366.628 351.317 15.311
98.45 366.595 341.776 24.819
98.5 353.147 324.303 28.844
98.55 309.305 301.843 7.462
98.6 255.257 277.765 -22.508
98.65 252.417 254.595 -2.178
98.7 234.992 233.811 1.181
98.75 208.089 216.148 -8.059
98.8 202.599 201.103 1.496
98.85 164.503 188.867 -24.364
98.9 187.877 178.874 9.003
98.95 161.284 170.725 -9.441
99 161.819 164.068 -2.249
99.05 164.822 159.09 5.732
99.1 149.728 154.111 -4.383
99.15 165.338 150.692 14.646
99.2 151.698 147.273 4.425
99.25 137.186 144.866 -7.68
99.3 144.107 142.459 1.648
99.35 120.517 140.721 -20.204
99.4 133.237 138.982 -5.745
99.45 150.217 137.696 12.521
99.5 117.87 136.41 -18.54
99.55 128 135.441 -7.441
99.6 112.331 134.472 -22.141
99.65 111.161 133.737 -22.576
99.7 133.404 133.002 0.402
99.75 150.125 132.443 17.682
99.8 115.357 131.883 -16.526
99.85 120.625 131.454 -10.829
99.9 124.779 131.025 -6.246
99.95 152.619 130.692 21.927
100 123.297 130.359 -7.062
100.05 121.103 130.097 -8.994
100.1 139.773 129.834 9.939
100.15 118.91 129.625 -10.715
100.2 125.507 129.415 -3.908
100.25 142.392 129.245 13.147
100.3 135.2 129.075 6.125
100.35 141.598 128.935 12.663
100.4 95.9626 128.795 -32.8324
100.45 117.021 128.679 -11.658
100.5 125.648 128.563 -2.915
100.55 115.206 128.465 -13.259
100.6 146.476 128.367 18.109
100.65 129.296 128.283 1.013
100.7 151.034 128.2 22.834
100.75 125.738 128.128 -2.39
100.8 142.983 128.057 14.926
100.85 131.228 127.995 3.233
100.9 127.563 127.933 -0.37
100.95 124.117 127.879 -3.762
101 133.779 127.826 5.953
101.05 136.971 127.779 9.192
101.1 117.8 127.732 -9.932
101.15 126.495 127.691 -1.196
101.2 147.616 127.651 19.965
101.25 130.782 127.615 3.167
101.3 151.55 127.579 23.971
101.35 130.689 127.548 3.141
101.4 156.893 127.517 29.376
101.45 142.621 127.49 15.131
101.5 128.324 127.463 0.861
101.55 134.669 127.439 7.23
101.6 137.109 127.415 9.694
101.65 113.118 127.383 -14.265
101.7 125.527 127.35 -1.823
101.75 131.579 127.33 4.249
101.8 119.665 127.311 -7.646
101.85 142.984 127.292 15.692
101.9 124.997 127.273 -2.276
101.95 122.194 127.256 -5.062
102 132.338 127.238 5.1
102.05 128.459 127.221 1.238
102.1 143.801 127.204 16.597
102.15 137.01 127.188 9.822
102.2 105.575 127.171 -21.596
102.25 123.711 127.156 -3.445
102.3 109.283 127.14 -17.857
102.35 146.591 127.125 19.466
102.4 137.433 127.11 10.323
102.45 143.387 127.096 16.291
102.5 144.974 127.082 17.892
102.55 110.67 127.068 -16.398
102.6 116.54 127.055 -10.515
102.65 134.523 127.043 7.48
102.7 133.169 127.031 6.138
102.75 121.235 127.02 -5.785
102.8 129.872 127.009 2.863
102.85 136.014 126.999 9.015
102.9 130.618 126.989 3.629
102.95 127.618 126.98 0.638
103 113.701 126.971 -13.27
103.05 138.094 126.963 11.131
103.1 132.527 126.955 5.572
103.15 144.166 126.948 17.218
103.2 138.209 126.941 11.268
103.25 110.859 126.935 -16.076
103.3 111.88 126.928 -15.048
103.35 132.134 126.922 5.212
103.4 121.675 126.916 -5.241
103.45 136.508 126.909 9.599
103.5 132.013 126.903 5.11
103.55 138.066 126.897 11.169
103.6 129.213 126.89 2.323
103.65 129.57 126.884 2.686
103.7 127.462 126.877 0.585
103.75 130.92 126.87 4.05
103.8 127.459 126.863 0.596
103.85 131.44 126.855 4.585
103.9 128.217 126.848 1.369
103.95 127.876 126.84 1.036
104 131.776 126.832 4.944
104.05 128.68 126.824 1.856
104.1 129.254 126.816 2.438
104.15 124.432 126.808 -2.376
104.2 129.878 126.8 3.078
104.25 124.138 126.792 -2.654
104.3 130.586 126.784 3.802
104.35 128.403 126.777 1.626
104.4 117.116 126.769 -9.653
104.45 115.265 126.762 -11.497
104.5 137.174 126.755 10.419
104.55 107.484 126.749 -19.265
104.6 128.297 126.743 1.554
104.65 127.717 126.737 0.98
104.7 134.196 126.731 7.465
104.75 107.503 126.726 -19.223
104.8 131.118 126.721 4.397
104.85 131.046 126.717 4.329
104.9 151.258 126.713 24.545
104.95 131.667 126.709 4.958
105 126.588 126.705 -0.117
105.05 130.486 126.701 3.785
105.1 125.989 126.698 -0.709
105.15 132.633 126.694 5.939
105.2 115.917 126.69 -10.773
105.25 130.572 126.686 3.886
105.3 139.893 126.683 13.21
105.35 134.247 126.679 7.568
105.4 118.394 126.675 -8.281
105.45 122.294 126.67 -4.376
105.5 110.333 126.665 -16.332
105.55 114.743 126.66 -11.917
105.6 112.357 126.655 -14.298
105.65 126.122 126.65 -0.528
105.7 152.564 126.644 25.92
105.75 130.395 126.638 3.757
105.8 116.329 126.632 -10.303
105.85 111.353 126.626 -15.273
105.9 122.791 126.62 -3.829
105.95 121.511 126.613 -5.102
106 127.918 126.607 1.311
106.05 138.329 126.6 11.729
106.1 129.197 126.594 2.603
106.15 124.876 126.588 -1.712
106.2 135.617 126.582 9.035
106.25 132.834 126.576 6.258
106.3 117.543 126.57 -9.027
106.35 135.211 126.565 8.646
106.4 117.717 126.56 -8.843
106.45 132.195 126.555 5.64
106.5 107.476 126.55 -19.074
106.55 138.726 126.546 12.18
106.6 124.24 126.542 -2.302
106.65 113.361 126.539 -13.178
106.7 121.298 126.535 -5.237
106.75 116.493 126.532 -10.039
106.8 144.502 126.529 17.973
106.85 138.31 126.526 11.784
106.9 147.292 126.523 20.769
106.95 121.305 126.521 -5.216
107 142.307 126.518 15.789
107.05 122.471 126.515 -4.044
107.1 125.54 126.512 -0.972
107.15 109.221 126.509 -17.288
107.2 120.71 126.506 -5.796
107.25 124.296 126.503 -2.207
107.3 108.571 126.499 -17.928
107.35 130.588 126.496 4.092
107.4 121.789 126.492 -4.703
107.45 123.911 126.487 -2.576
107.5 130.166 126.483 3.683
107.55 110.488 126.478 -15.99
107.6 113.408 126.474 -13.066
107.65 109.453 126.468 -17.015
107.7 118.331 126.463 -8.132
107.75 120.553 126.458 -5.905
107.8 120.618 126.453 -5.835
107.85 129.413 126.448 2.965
107.9 118.115 126.442 -8.327
107.95 125.642 126.437 -0.795
108 114.876 126.432 -11.556
108.05 112.038 126.427 -14.389
108.1 149.848 126.423 23.425
108.15 126.813 126.419 0.394
108.2 134.925 126.414 8.511
108.25 119.637 126.411 -6.774
108.3 129.698 126.407 3.291
108.35 121.419 126.404 -4.985
108.4 109.917 126.401 -16.484
108.45 127.255 126.399 0.856
108.5 135.126 126.397 8.729
108.55 134.37 126.395 7.975
108.6 137.306 126.393 10.913
108.65 144.62 126.392 18.228
108.7 130.788 126.391 4.397
108.75 133.971 126.39 7.581
108.8 109.843 126.389 -16.546
108.85 118.692 126.388 -7.696
108.9 117.103 126.387 -9.284
108.95 131.376 126.386 4.99
109 138.508 126.385 12.123
109.05 112.605 126.384 -13.779
109.1 132.456 126.384 6.072
109.15 135.529 126.382 9.147
109.2 110.061 126.381 -16.32
109.25 147.015 126.38 20.635
109.3 121.499 126.378 -4.879
109.35 127.685 126.376 1.309
109.4 117.814 126.374 -8.56
109.45 133.194 126.372 6.822
109.5 126.08 126.37 -0.29
109.55 132.843 126.368 6.475
109.6 132.645 126.366 6.279
109.65 134.748 126.364 8.384
109.7 120.327 126.362 -6.035
109.75 136.822 126.36 10.462
109.8 127.332 126.358 0.974
109.85 122.079 126.357 -4.278
109.9 132.198 126.355 5.843
109.95 121.343 126.355 -5.012
110 137.57 126.354 11.216
110.05 126.572 126.354 0.218
110.1 137.308 126.354 10.954
110.15 128.964 126.355 2.609
110.2 147.407 126.355 21.052
110.25 127.588 126.357 1.231
110.3 109.986 126.359 -16.373
110.35 109.734 126.362 -16.628
110.4 135.888 126.365 9.523
110.45 127.729 126.369 1.36
110.5 121.214 126.373 -5.159
110.55 125.372 126.378 -1.006
110.6 131.99 126.383 5.607
110.65 146.111 126.389 19.722
110.7 113.453 126.395 -12.942
110.75 128.101 126.402 1.699
110.8 102.862 126.409 -23.547
110.85 145.565 126.417 19.148
110.9 139.922 126.424 13.498
110.95 132.146 126.433 5.713
111 136.803 126.441 10.362
111.05 113.223 126.45 -13.227
111.1 143.017 126.459 16.558
111.15 115.999 126.469 -10.47
111.2 117.002 126.479 -9.477
111.25 113.682 126.49 -12.808
111.3 132.384 126.501 5.883
111.35 142.196 126.513 15.683
111.4 115.439 126.525 -11.086
111.45 131.135 126.539 4.596
111.5 133.918 126.552 7.366
111.55 128.645 126.568 2.077
111.6 133.625 126.583 7.042
111.65 145.628 126.601 19.027
111.7 131.343 126.619 4.724
111.75 130.727 126.639 4.088
111.8 136.03 126.66 9.37
111.85 161.079 126.684 34.395
111.9 113.317 126.708 -13.391
111.95 127.085 126.736 0.349
112 121.478 126.764 -5.286
112.05 142.361 126.796 15.565
112.1 147.357 126.829 20.528
112.15 129.539 126.867 2.672
112.2 135.503 126.905 8.598
112.25 127.696 126.95 0.746
112.3 124.253 126.994 -2.741
112.35 135.006 127.046 7.96
112.4 132.952 127.098 5.854
112.45 111.264 127.159 -15.895
112.5 121.356 127.219 -5.863
112.55 123.717 127.29 -3.573
112.6 127.053 127.36 -0.307
112.65 125.178 127.442 -2.264
112.7 137.502 127.524 9.978
112.75 134.078 127.62 6.458
112.8 115.193 127.716 -12.523
112.85 122.07 127.828 -5.758
112.9 135.721 127.94 7.781
112.95 128.729 128.071 0.658
113 111.785 128.203 -16.418
113.05 139.281 128.358 10.923
113.1 146.858 128.514 18.344
113.15 110.541 128.698 -18.157
113.2 102.575 128.882 -26.307
113.25 122.248 129.101 -6.853
113.3 121.758 129.32 -7.562
113.35 125.844 129.583 -3.739
113.4 134.374 129.846 4.528
113.45 147.02 130.163 16.857
113.5 143.993 130.48 13.513
113.55 160.02 130.864 29.156
113.6 144.012 131.249 12.763
113.65 140.1 131.717 8.383
113.7 143.749 132.185 11.564
113.75 144.559 132.76 11.799
113.8 139.054 133.334 5.72
113.85 128.921 134.041 -5.12
113.9 126.927 134.748 -7.821
113.95 124.318 135.624 -11.306
114 127.031 136.499 -9.468
114.05 137.479 137.588 -0.109
114.1 133.023 138.676 -5.653
114.15 135.078 140.034 -4.956
114.2 136.78 141.392 -4.612
114.25 123.05 143.092 -20.042
114.3 154.657 144.792 9.865
114.35 144.137 146.924 -2.787
114.4 154.335 149.056 5.279
114.45 147.189 151.73 -4.541
114.5 157.937 154.403 3.534
114.55 170.717 157.562 13.155
114.6 169.88 161.087 8.793
114.65 184.657 165.012 19.645
114.7 166.111 169.366 -3.255
114.75 162.001 174.172 -12.171
114.8 192.804 179.443 13.361
114.85 163.676 185.174 -21.498
114.9 170.021 191.339 -21.318
114.95 200.729 197.879 2.85
115 190.521 204.698 -14.177
115.05 212.547 211.653 0.894
115.1 206.985 218.562 -11.577
115.15 247.923 225.185 22.738
115.2 235.85 231.256 4.594
115.25 234.825 236.49 -1.665
115.3 243.464 240.61 2.854
115.35 248.585 243.382 5.203
115.4 244.504 244.637 -0.133
115.45 257.191 244.299 12.892
115.5 240.162 242.392 -2.23
115.55 295.206 239.039 56.167
115.6 212.501 234.444 -21.943
115.65 240.855 228.825 12.03
115.7 234.68 222.58 12.1
115.75 189.982 215.86 -25.878
115.8 203.964 208.984 -5.02
115.85 184.057 202.133 -18.076
115.9 205.053 195.481 9.572
115.95 178.126 189.147 -11.021
116 175.419 183.208 -7.789
116.05 184.262 177.707 6.555
116.1 184.231 172.659 11.572
116.15 164.747 168.063 -3.316
116.2 165.95 163.901 2.049
116.25 163.476 160.148 3.328
116.3 163.322 156.774 6.548
116.35 156.942 153.905 3.037
116.4 139.688 151.036 -11.348
116.45 147.666 148.736 -1.07
116.5 152.403 146.436 5.967
116.55 137.395 144.594 -7.199
116.6 132.965 142.751 -9.786
116.65 138.032 141.272 -3.24
116.7 121.293 139.793 -18.5
116.75 142.925 138.602 4.323
116.8 135.474 137.411 -1.937
116.85 148.575 136.447 12.128
116.9 142.896 135.484 7.412
116.95 144.762 134.702 10.06
117 147.912 133.919 13.993
117.05 137.322 133.28 4.042
117.1 151.265 132.641 18.624
117.15 118.46 132.116 -13.656
117.2 143.927 131.59 12.337
117.25 135.142 131.156 3.986
117.3 124.579 130.723 -6.144
117.35 145.331 130.362 14.969
117.4 143.957 130.001 13.956
117.45 143.033 129.699 13.334
117.5 123.784 129.397 -5.613
117.55 118.112 129.143 -11.031
117.6 125.59 128.889 -3.299
117.65 130.81 128.674 2.136
117.7 119.367 128.458 -9.091
117.75 129.292 128.275 1.017
117.8 145.816 128.092 17.724
117.85 137.731 127.935 9.796
117.9 130.778 127.778 3
117.95 134.698 127.643 7.055
118 127.357 127.508 -0.151
118.05 140.739 127.391 13.348
118.1 130.516 127.274 3.242
118.15 143.331 127.172 16.159
118.2 128.757 127.071 1.686
118.25 119.887 126.982 -7.095
118.3 146.029 126.894 19.135
118.35 127.372 126.816 0.556
118.4 134.147 126.739 7.408
118.45 117.515 126.67 -9.155
118.5 130.532 126.602 3.93
118.55 130.865 126.542 4.323
118.6 122.099 126.482 -4.383
118.65 120.183 126.429 -6.246
118.7 111.401 126.376 -14.975
118.75 108.385 126.329 -17.944
118.8 133.592 126.281 7.311
118.85 133.701 126.239 7.462
118.9 138.421 126.197 12.224
118.95 120.933 126.159 -5.226
119 101.157 126.121 -24.964
119.05 117.661 126.087 -8.426
119.1 121.582 126.052 -4.47
119.15 129.433 126.021 3.412
119.2 139.012 125.99 13.022
119.25 136.324 125.961 10.363
119.3 119.645 125.933 -6.288
119.35 123.818 125.906 -2.088
119.4 132.099 125.88 6.219
119.45 128.304 125.855 2.449
119.5 123.45 125.831 -2.381
119.55 141.864 125.808 16.056
119.6 123.016 125.785 -2.769
119.65 131.99 125.763 6.227
119.7 134.28 125.742 8.538
119.75 130.142 125.721 4.421
119.8 134.174 125.701 8.473
119.85 137.209 125.682 11.527
119.9 164.031 125.663 38.368
119.95 130.195 125.644 4.551
120 114.891 125.626 -10.735
120.05 117.838 125.609 -7.771
120.1 122.446 125.592 -3.146
120.15 135.162 125.575 9.587
120.2 103.256 125.559 -22.303
120.25 113.581 125.544 -11.963
120.3 147.214 125.528 21.686
120.35 127.799 125.514 2.285
120.4 115.88 125.5 -9.62
120.45 119.359 125.486 -6.127
120.5 132.938 125.472 7.466
120.55 134.589 125.46 9.129
120.6 133.533 125.447 8.086
120.65 140.154 125.435 14.719
120.7 131.767 125.423 6.344
120.75 118.934 125.412 -6.478
120.8 135.693 125.401 10.292
120.85 132.327 125.391 6.936
120.9 132.397 125.381 7.016
120.95 129.477 125.371 4.106
121 119.787 125.361 -5.574
121.05 154.095 125.352 28.743
121.1 130.027 125.343 4.684
121.15 130.199 125.334 4.865
121.2 132.738 125.325 7.413
121.25 139.406 125.316 14.09
121.3 133.649 125.308 8.341
121.35 125.028 125.3 -0.272
121.4 126.296 125.291 1.005
121.45 152.35 125.283 27.067
121.5 124.545 125.275 -0.73
121.55 136.955 125.267 11.688
121.6 129.965 125.259 4.706
121.65 140.572 125.251 15.321
121.7 131.934 125.243 6.691
121.75 130.272 125.235 5.037
121.8 119.67 125.227 -5.557
121.85 121.325 125.219 -3.894
121.9 133.235 125.211 8.024
121.95 143.989 125.203 18.786
122 139.083 125.195 13.888
122.05 118.848 125.187 -6.339
122.1 136.133 125.179 10.954
122.15 131.565 125.171 6.394
122.2 118.61 125.163 -6.553
122.25 117.163 125.155 -7.992
122.3 142.126 125.147 16.979
122.35 124.122 125.139 -1.017
122.4 127.004 125.131 1.873
122.45 136.547 125.118 11.429
122.5 123.823 125.105 -1.282
122.55 130.982 125.098 5.884
122.6 106.554 125.09 -18.536
122.65 120.218 125.083 -4.865
122.7 128.1 125.075 3.025
122.75 131.155 125.068 6.087
122.8 133.959 125.061 8.898
122.85 125.865 125.054 0.811
122.9 141.495 125.047 16.448
122.95 125.903 125.04 0.863
123 107.722 125.033 -17.311
123.05 124.384 125.027 -0.643
123.1 126.335 125.02 1.315
123.15 131.701 125.014 6.687
123.2 135.149 125.008 10.141
123.25 123.769 125.002 -1.233
123.3 125.311 124.996 0.315
123.35 120.473 124.99 -4.517
123.4 140.659 124.985 15.674
123.45 127.687 124.979 2.708
123.5 104.722 124.974 -20.252
123.55 114.002 124.968 -10.966
123.6 115.872 124.963 -9.091
123.65 133.871 124.958 8.913
123.7 125.004 124.953 0.051
123.75 122.594 124.948 -2.354
123.8 109.837 124.942 -15.105
123.85 120.893 124.937 -4.044
123.9 139.566 124.932 14.634
123.95 135.489 124.927 10.562
124 143.978 124.922 19.056
124.05 124.023 124.917 -0.894
124.1 115.819 124.912 -9.093
124.15 131.666 124.906 6.76
124.2 105.058 124.901 -19.843
124.25 118.05 124.896 -6.846
124.3 97.2529 124.89 -27.6371
124.35 131.84 124.885 6.955
124.4 128.712 124.879 3.833
124.45 137.774 124.873 12.901
124.5 132.298 124.868 7.43
124.55 113.243 124.862 -11.619
124.6 109.841 124.856 -15.015
124.65 122.006 124.85 -2.844
124.7 131.481 124.844 6.637
124.75 136.736 124.838 11.898
124.8 125.09 124.832 0.258
124.85 145.713 124.826 20.887
124.9 141.513 124.82 16.693
124.95 141.746 124.814 16.932
125 115.661 124.809 -9.148
125.05 131.929 124.803 7.126
125.1 121.624 124.797 -3.173
125.15 152.373 124.791 27.582
125.2 139.642 124.785 14.857
125.25 124.766 124.78 -0.014
125.3 143.217 124.774 18.443
125.35 134.889 124.769 10.12
125.4 130.24 124.763 5.477
125.45 124.839 124.758 0.081
125.5 123.036 124.753 -1.717
125.55 128.92 124.747 4.173
125.6 112.072 124.742 -12.67
125.65 126.415 124.737 1.678
125.7 126.155 124.733 1.422
125.75 146.24 124.728 21.512
125.8 128.944 124.723 4.221
125.85 112.485 124.718 -12.233
125.9 142.578 124.714 17.864
125.95 135.898 124.709 11.189
126 129.72 124.705 5.015
126.05 118.719 124.7 -5.981
126.1 120.778 124.696 -3.918
126.15 130.539 124.691 5.848
126.2 132.779 124.687 8.092
126.25 133.621 124.682 8.939
126.3 124.434 124.678 -0.244
126.35 136.232 124.673 11.559
126.4 137.872 124.669 13.203
126.45 112.981 124.664 -11.683
126.5 142.879 124.66 18.219
126.55 131.63 124.655 6.975
126.6 115.477 124.65 -9.173
126.65 136.051 124.645 11.406
126.7 120.465 124.64 -4.175
126.75 122.823 124.635 -1.812
126.8 109.268 124.63 -15.362
126.85 110.376 124.625 -14.249
126.9 105.485 124.62 -19.135
126.95 132.667 124.615 8.052
127 147.783 124.61 23.173
127.05 108.316 124.604 -16.288
127.1 126.685 124.599 2.086
127.15 115.772 124.594 -8.822
127.2 126.641 124.588 2.053
127.25 130.11 124.583 5.527
127.3 109.205 124.577 -15.372
127.35 134.531 124.572 9.959
127.4 133.246 124.566 8.68
127.45 126.868 124.561 2.307
127.5 126.105 124.556 1.549
127.55 142.165 124.55 17.615
127.6 124.845 124.545 0.3
127.65 127.782 124.54 3.242
127.7 121.368 124.535 -3.167
127.75 127.859 124.529 3.33
127.8 127.793 124.524 3.269
127.85 148.545 124.519 24.026
127.9 133.695 124.514 9.181
127.95 126.692 124.51 2.182
128 115.074 124.505 -9.431
128.05 121.614 124.5 -2.886
128.1 120.399 124.495 -4.096
128.15 135.661 124.491 11.17
128.2 119.312 124.486 -5.174
128.25 123.054 124.482 -1.428
128.3 124.2 124.477 -0.277
128.35 135.437 124.473 10.964
128.4 138.075 124.469 13.606
128.45 108.668 124.464 -15.796
128.5 131.222 124.46 6.762
128.55 148.039 124.456 23.583
128.6 142.759 124.451 18.308
128.65 123.124 124.447 -1.323
128.7 146.486 124.443 22.043
128.75 110.105 124.438 -14.333
128.8 123.287 124.434 -1.147
128.85 134.647 124.43 10.217
128.9 130.482 124.425 6.057
128.95 128.071 124.421 3.65
129 128.201 124.416 3.785
129.05 122.618 124.412 -1.794
129.1 123.556 124.407 -0.851
129.15 111.854 124.403 -12.549
129.2 109.694 124.398 -14.704
129.25 141.32 124.393 16.927
129.3 115.726 124.388 -8.662
129.35 140.046 124.383 15.663
129.4 143.76 124.379 19.381
129.45 124.725 124.373 0.352
129.5 118.568 124.368 -5.8
129.55 126.015 124.363 1.652
129.6 157.402 124.358 33.044
129.65 140.38 124.353 16.027
129.7 118.996 124.348 -5.352
129.75 145.391 124.343 21.048
129.8 119.946 124.338 -4.392
129.85 141.232 124.332 16.9
129.9 115.787 124.327 -8.54
129.95 111.782 124.375 -12.593
130 124.781 124.423 0.358
