
#Surface 0 of 1 surfaces

#IsoCurve 0, 1801 points
#x y z type
 40  209.252  180.904 i
 40.05  174.542  180.767 i
 40.1  169.737  180.63 i
 40.15  164.688  180.498 i
 40.2  175.205  180.365 i
 40.25  175.619  180.239 i
 40.3  191.703  180.113 i
 40.35  173.624  179.994 i
 40.4  178.272  179.875 i
 40.45  170.208  179.762 i
 40.5  180.457  179.65 i
 40.55  195.081  179.541 i
 40.6  191.51  179.433 i
 40.65  175.501  179.327 i
 40.7  184.952  179.221 i
 40.75  170.513  179.114 i
 40.8  152.579  179.008 i
 40.85  166.892  178.9 i
 40.9  177.339  178.793 i
 40.95  170.769  178.683 i
 41  186.687  178.574 i
 41.05  180.729  178.465 i
 41.1  163.239  178.357 i
 41.15  181.131  178.251 i
 41.2  189.555  178.145 i
 41.25  182.517  178.046 i
 41.3  166.25  177.947 i
 41.35  188.802  177.858 i
 41.4  185.022  177.769 i
 41.45  178.462  177.693 i
 41.5  190.988  177.617 i
 41.55  167.021  177.555 i
 41.6  146.723  177.493 i
 41.65  159.078  177.446 i
 41.7  162.98  177.398 i
 41.75  185.267  177.364 i
 41.8  166.419  177.33 i
 41.85  207.361  177.309 i
 41.9  172.091  177.287 i
 41.95  182.347  177.279 i
 42  171.693  177.27 i
 42.05  194.056  177.275 i
 42.1  168.589  177.28 i
 42.15  175.693  177.303 i
 42.2  165.464  177.325 i
 42.25  162.541  177.372 i
 42.3  157.649  177.419 i
 42.35  166.777  177.498 i
 42.4  178.038  177.578 i
 42.45  180.266  177.701 i
 42.5  163.593  177.825 i
 42.55  182.596  178.006 i
 42.6  173.932  178.188 i
 42.65  157.537  178.443 i
 42.7  158.795  178.698 i
 42.75  164.236  179.047 i
 42.8  191.271  179.395 i
 42.85  196.971  179.864 i
 42.9  175.939  180.333 i
 42.95  205.072  180.961 i
 43  176.54  181.588 i
 43.05  213.108  182.437 i
 43.1  186.574  183.286 i
 43.15  177.942  184.489 i
 43.2  213.775  185.691 i
 43.25  199.447  187.565 i
 43.3  210.062  189.438 i
 43.35  199.614  191.983 i
 43.4  202.733  194.528 i
 43.45  213.414  197.486 i
 43.5  225.576  200.904 i
 43.55  210.191  204.953 i
 43.6  213.516  209.824 i
 43.65  236.306  215.754 i
 43.7  223.863  223.06 i
 43.75  239.097  232.172 i
 43.8  254.535  243.7 i
 43.85  248.064  258.771 i
 43.9  264.687  277.931 i
 43.95  330.104  304.133 i
 44  352.226  339.76 i
 44.05  363.262  391.065 i
 44.1  530.773  466.89 i
 44.15  600.985  587.222 i
 44.2  764.109  790.51 i
 44.25  1153.34  1158.21 i
 44.3  1768.62  1827.52 i
 44.35  2918.57  2934.17 i
 44.4  4475.67  4388.42 i
 44.45  5661.63  5591.3 i
 44.5  5619.34  5657.86 i
 44.55  4323.86  4411.37 i
 44.6  2775.67  2765.63 i
 44.65  1686.35  1603.58 i
 44.7  1005.36  1003.24 i
 44.75  679.463  701.198 i
 44.8  547.338  532.304 i
 44.85  433.652  429.94 i
 44.9  340.917  363.642 i
 44.95  287.913  318.451 i
 45  294.137  286.435 i
 45.05  257.186  263.327 i
 45.1  226.072  245.405 i
 45.15  223.787  231.885 i
 45.2  213.224  221.301 i
 45.25  207.653  212.879 i
 45.3  217.992  206.078 i
 45.35  175.942  200.993 i
 45.4  172.866  195.908 i
 45.45  180.921  192.349 i
 45.5  174.088  188.789 i
 45.55  164.167  186.183 i
 45.6  167.38  183.576 i
 45.65  203.834  181.546 i
 45.7  143.831  179.516 i
 45.75  171.926  177.921 i
 45.8  189.395  176.326 i
 45.85  169.096  175.107 i
 45.9  152.002  173.887 i
 45.95  195.92  172.911 i
 46  169.094  171.935 i
 46.05  177.558  171.13 i
 46.1  164.082  170.325 i
 46.15  135.255  169.648 i
 46.2  188.196  168.972 i
 46.25  164.518  168.396 i
 46.3  178.307  167.821 i
 46.35  169.204  167.325 i
 46.4  181.359  166.829 i
 46.45  135.658  166.397 i
 46.5  160.791  165.964 i
 46.55  173.449  165.581 i
 46.6  145.791  165.198 i
 46.65  173.9  164.853 i
 46.7  166.481  164.507 i
 46.75  164.822  164.19 i
 46.8  176.505  163.872 i
 46.85  160.319  163.575 i
 46.9  158.76  163.278 i
 46.95  161.312  162.997 i
 47  180.728  162.716 i
 47.05  145.965  162.447 i
 47.1  195.135  162.179 i
 47.15  160.022  161.922 i
 47.2  159.234  161.666 i
 47.25  140.649  161.423 i
 47.3  139.653  161.179 i
 47.35  145.669  160.95 i
 47.4  162.595  160.72 i
 47.45  150.065  160.505 i
 47.5  157.18  160.289 i
 47.55  143.718  160.088 i
 47.6  178.303  159.887 i
 47.65  144.042  159.697 i
 47.7  150.695  159.508 i
 47.75  161.9  159.328 i
 47.8  159.317  159.148 i
 47.85  133.792  158.975 i
 47.9  158.322  158.801 i
 47.95  158.594  158.63 i
 48  177.788  158.46 i
 48.05  163.826  158.289 i
 48.1  167.74  158.119 i
 48.15  150.348  157.948 i
 48.2  163.648  157.777 i
 48.25  172.02  157.605 i
 48.3  136.566  157.434 i
 48.35  146.506  157.262 i
 48.4  155.329  157.091 i
 48.45  155.999  156.923 i
 48.5  162.551  156.754 i
 48.55  140.516  156.591 i
 48.6  142.591  156.427 i
 48.65  171.621  156.27 i
 48.7  157.355  156.113 i
 48.75  144.097  155.964 i
 48.8  139.673  155.814 i
 48.85  142.253  155.671 i
 48.9  177.155  155.528 i
 48.95  145.677  155.395 i
 49  150.008  155.261 i
 49.05  140.946  155.126 i
 49.1  147.887  154.991 i
 49.15  141.819  154.857 i
 49.2  150.509  154.722 i
 49.25  164.454  154.586 i
 49.3  154.92  154.45 i
 49.35  169.473  154.311 i
 49.4  161.16  154.172 i
 49.45  149.919  154.03 i
 49.5  182.356  153.889 i
 49.55  169.407  153.745 i
 49.6  147.548  153.602 i
 49.65  168.217  153.459 i
 49.7  150.428  153.317 i
 49.75  173.197  153.177 i
 49.8  176.53  153.037 i
 49.85  154.11  152.901 i
 49.9  133.956  152.766 i
 49.95  140.72  152.636 i
 50  159.611  152.506 i
 50.05  152.224  152.382 i
 50.1  143.618  152.258 i
 50.15  161.761  152.138 i
 50.2  138.52  152.018 i
 50.25  139.686  151.901 i
 50.3  161.64  151.783 i
 50.35  134.469  151.666 i
 50.4  153.865  151.549 i
 50.45  171.007  151.43 i
 50.5  163.363  151.31 i
 50.55  166.432  151.188 i
 50.6  167.758  151.067 i
 50.65  153.01  150.942 i
 50.7  157.226  150.817 i
 50.75  150.43  150.69 i
 50.8  154.861  150.563 i
 50.85  161.282  150.436 i
 50.9  159.4  150.31 i
 50.95  140.012  150.185 i
 51  156.608  150.06 i
 51.05  173.026  149.939 i
 51.1  144.075  149.818 i
 51.15  144.261  149.702 i
 51.2  156.081  149.586 i
 51.25  129.363  149.475 i
 51.3  154.459  149.364 i
 51.35  147.595  149.257 i
 51.4  134.694  149.15 i
 51.45  141.291  149.045 i
 51.5  164.938  148.941 i
 51.55  166.142  148.836 i
 51.6  166.163  148.732 i
 51.65  157.292  148.626 i
 51.7  139.113  148.52 i
 51.75  160.523  148.412 i
 51.8  169.266  148.303 i
 51.85  140.651  148.192 i
 51.9  145.669  148.081 i
 51.95  134.742  147.968 i
 52  141.938  147.855 i
 52.05  150.597  147.742 i
 52.1  160.123  147.628 i
 52.15  141.682  147.516 i
 52.2  133.819  147.405 i
 52.25  173.934  147.296 i
 52.3  138.622  147.188 i
 52.35  137.081  147.084 i
 52.4  141.535  146.98 i
 52.45  152.527  146.88 i
 52.5  141.188  146.781 i
 52.55  138.2  146.686 i
 52.6  144.158  146.59 i
 52.65  147.097  146.498 i
 52.7  166.629  146.405 i
 52.75  147.446  146.313 i
 52.8  158.222  146.221 i
 52.85  135.531  146.127 i
 52.9  152.86  146.034 i
 52.95  157.069  145.939 i
 53  136.738  145.843 i
 53.05  128.802  145.745 i
 53.1  164.333  145.648 i
 53.15  129.588  145.548 i
 53.2  152.299  145.448 i
 53.25  146.118  145.348 i
 53.3  169.28  145.247 i
 53.35  138.955  145.148 i
 53.4  129.721  145.049 i
 53.45  143.221  144.953 i
 53.5  111.79  144.857 i
 53.55  132.779  144.765 i
 53.6  138.068  144.673 i
 53.65  129.175  144.585 i
 53.7  141.421  144.498 i
 53.75  117.624  144.414 i
 53.8  146.752  144.331 i
 53.85  153.76  144.25 i
 53.9  133.44  144.169 i
 53.95  160.319  144.09 i
 54  119.284  144.01 i
 54.05  145.796  143.93 i
 54.1  140.204  143.85 i
 54.15  125.744  143.768 i
 54.2  129.359  143.686 i
 54.25  141.312  143.602 i
 54.3  137.071  143.518 i
 54.35  135.771  143.432 i
 54.4  160.367  143.346 i
 54.45  129.432  143.259 i
 54.5  127.609  143.172 i
 54.55  143.662  143.086 i
 54.6  149.617  143 i
 54.65  133.564  142.917 i
 54.7  148.658  142.833 i
 54.75  146.363  142.754 i
 54.8  164.502  142.674 i
 54.85  142.332  142.599 i
 54.9  133.045  142.524 i
 54.95  108.675  142.453 i
 55  146.249  142.382 i
 55.05  149.89  142.314 i
 55.1  136.911  142.246 i
 55.15  137.098  142.18 i
 55.2  144.022  142.114 i
 55.25  138.353  142.047 i
 55.3  135.703  141.981 i
 55.35  125.429  141.913 i
 55.4  131.297  141.845 i
 55.45  117.831  141.775 i
 55.5  161.488  141.705 i
 55.55  149.373  141.632 i
 55.6  146.878  141.56 i
 55.65  130.874  141.486 i
 55.7  145.621  141.412 i
 55.75  133.803  141.339 i
 55.8  136.584  141.265 i
 55.85  151.977  141.193 i
 55.9  148.818  141.121 i
 55.95  135.76  141.053 i
 56  138.863  140.984 i
 56.05  142.911  140.919 i
 56.1  139.315  140.854 i
 56.15  154.765  140.793 i
 56.2  132.512  140.732 i
 56.25  157.765  140.674 i
 56.3  147.582  140.616 i
 56.35  138.737  140.559 i
 56.4  127.742  140.503 i
 56.45  138.603  140.447 i
 56.5  160.985  140.391 i
 56.55  126.047  140.333 i
 56.6  143.969  140.276 i
 56.65  159.98  140.216 i
 56.7  143.111  140.157 i
 56.75  169.409  140.095 i
 56.8  122.698  140.033 i
 56.85  146.611  139.97 i
 56.9  136.06  139.906 i
 56.95  146.673  139.842 i
 57  144.565  139.778 i
 57.05  149.346  139.715 i
 57.1  144.488  139.653 i
 57.15  121.905  139.592 i
 57.2  137.581  139.532 i
 57.25  152.8  139.475 i
 57.3  156.632  139.418 i
 57.35  138.911  139.365 i
 57.4  117.992  139.312 i
 57.45  174.76  139.262 i
 57.5  131.642  139.212 i
 57.55  134.699  139.164 i
 57.6  133.108  139.117 i
 57.65  133.903  139.07 i
 57.7  138.878  139.023 i
 57.75  148.877  138.975 i
 57.8  143.331  138.928 i
 57.85  147.934  138.878 i
 57.9  138.246  138.829 i
 57.95  156.147  138.777 i
 58  136.795  138.725 i
 58.05  151.932  138.671 i
 58.1  146.087  138.618 i
 58.15  141.217  138.563 i
 58.2  123.919  138.508 i
 58.25  145.328  138.453 i
 58.3  132.395  138.399 i
 58.35  151.665  138.346 i
 58.4  114.712  138.294 i
 58.45  144.911  138.244 i
 58.5  140.67  138.194 i
 58.55  116.165  138.148 i
 58.6  162.776  138.102 i
 58.65  139.099  138.059 i
 58.7  143.777  138.017 i
 58.75  147.412  137.977 i
 58.8  133.387  137.937 i
 58.85  134.068  137.898 i
 58.9  128.193  137.86 i
 58.95  160.167  137.821 i
 59  127.334  137.783 i
 59.05  158.053  137.743 i
 59.1  148.504  137.703 i
 59.15  141.495  137.661 i
 59.2  125.451  137.619 i
 59.25  123.865  137.574 i
 59.3  129.139  137.53 i
 59.35  147.219  137.484 i
 59.4  130.991  137.438 i
 59.45  140.98  137.392 i
 59.5  154.159  137.346 i
 59.55  133.275  137.3 i
 59.6  148.353  137.255 i
 59.65  127.675  137.212 i
 59.7  130.399  137.169 i
 59.75  122.036  137.049 i
 59.8  127.933  136.929 i
 59.85  165.316  136.891 i
 59.9  141.343  136.852 i
 59.95  121.889  136.815 i
 60  130.694  136.777 i
 60.05  133.155  136.741 i
 60.1  115.74  136.705 i
 60.15  129.608  136.671 i
 60.2  133.758  136.636 i
 60.25  159.294  136.602 i
 60.3  145.565  136.568 i
 60.35  141.095  136.535 i
 60.4  130.41  136.503 i
 60.45  127.633  136.47 i
 60.5  135.261  136.438 i
 60.55  126.692  136.406 i
 60.6  149.626  136.374 i
 60.65  143.514  136.342 i
 60.7  140.864  136.31 i
 60.75  147.965  136.278 i
 60.8  134.897  136.246 i
 60.85  149.041  136.215 i
 60.9  146.712  136.184 i
 60.95  141.997  136.154 i
 61  147.209  136.123 i
 61.05  113.215  136.094 i
 61.1  132.392  136.064 i
 61.15  139.832  136.036 i
 61.2  110.485  136.008 i
 61.25  108.319  135.982 i
 61.3  121.415  135.956 i
 61.35  133.665  135.932 i
 61.4  144.534  135.907 i
 61.45  117.755  135.885 i
 61.5  146.72  135.863 i
 61.55  142.086  135.842 i
 61.6  136.697  135.822 i
 61.65  161.98  135.803 i
 61.7  150.207  135.784 i
 61.75  154.504  135.767 i
 61.8  147.166  135.749 i
 61.85  127.431  135.734 i
 61.9  118.468  135.718 i
 61.95  126.936  135.704 i
 62  150.328  135.691 i
 62.05  143.44  135.679 i
 62.1  140.595  135.667 i
 62.15  126.16  135.659 i
 62.2  135.475  135.65 i
 62.25  112.235  135.646 i
 62.3  132.694  135.641 i
 62.35  130.055  135.642 i
 62.4  134.513  135.642 i
 62.45  150.129  135.649 i
 62.5  156.664  135.657 i
 62.55  117.391  135.672 i
 62.6  137.853  135.688 i
 62.65  130.673  135.714 i
 62.7  151.825  135.741 i
 62.75  121.882  135.78 i
 62.8  137.621  135.82 i
 62.85  134.067  135.877 i
 62.9  123.89  135.934 i
 62.95  147.753  136.014 i
 63  150.435  136.094 i
 63.05  145.176  136.205 i
 63.1  129.993  136.317 i
 63.15  140.917  136.473 i
 63.2  135.706  136.629 i
 63.25  140.981  136.85 i
 63.3  128.881  137.07 i
 63.35  161.791  137.375 i
 63.4  137.571  137.681 i
 63.45  137.689  138.099 i
 63.5  138.402  138.516 i
 63.55  152.331  139.094 i
 63.6  167.585  139.671 i
 63.65  159.846  140.499 i
 63.7  145.936  141.327 i
 63.75  142.344  142.554 i
 63.8  152.448  143.781 i
 63.85  155.61  145.668 i
 63.9  145.888  147.554 i
 63.95  140.093  150.572 i
 64  176.069  153.59 i
 64.05  149.222  158.64 i
 64.1  145.91  163.689 i
 64.15  170.543  171.252 i
 64.2  194.905  181.326 i
 64.25  200.304  194.767 i
 64.3  213.124  212.504 i
 64.35  250.491  235.156 i
 64.4  254.563  262.19 i
 64.45  282.875  290.697 i
 64.5  318.929  315.256 i
 64.55  336.272  328.62 i
 64.6  311.435  326.112 i
 64.65  301.708  308.231 i
 64.7  271.391  281.334 i
 64.75  258.696  252.083 i
 64.8  249.793  225.828 i
 64.85  212.302  204.864 i
 64.9  188.732  188.323 i
 64.95  172.354  176.156 i
 65  160.782  167.087 i
 65.05  144.335  161.114 i
 65.1  134.75  155.141 i
 65.15  144.173  151.635 i
 65.2  165.476  148.13 i
 65.25  169.49  145.969 i
 65.3  159.262  143.807 i
 65.35  142.051  142.413 i
 65.4  157.93  141.018 i
 65.45  140.758  140.08 i
 65.5  123.429  139.142 i
 65.55  130.507  138.487 i
 65.6  132.07  137.832 i
 65.65  132.08  137.357 i
 65.7  132.093  136.882 i
 65.75  139.946  136.528 i
 65.8  131.525  136.173 i
 65.85  156.128  135.904 i
 65.9  150.393  135.634 i
 65.95  137.214  135.429 i
 66  148.402  135.223 i
 66.05  135.739  135.063 i
 66.1  142.008  134.902 i
 66.15  166.148  134.775 i
 66.2  142.545  134.648 i
 66.25  148.539  134.545 i
 66.3  129.027  134.442 i
 66.35  123.924  134.357 i
 66.4  132.81  134.272 i
 66.45  136.392  134.2 i
 66.5  151.954  134.129 i
 66.55  134.021  134.068 i
 66.6  131.954  134.008 i
 66.65  134.033  133.955 i
 66.7  127.021  133.902 i
 66.75  129.775  133.855 i
 66.8  143.628  133.809 i
 66.85  134.605  133.767 i
 66.9  125.722  133.725 i
 66.95  124.086  133.686 i
 67  140.278  133.648 i
 67.05  131.246  133.612 i
 67.1  126.527  133.576 i
 67.15  124.75  133.543 i
 67.2  134.255  133.51 i
 67.25  127.107  133.479 i
 67.3  121.54  133.448 i
 67.35  140.958  133.419 i
 67.4  140.692  133.39 i
 67.45  126.17  133.363 i
 67.5  132.399  133.337 i
 67.55  124.763  133.312 i
 67.6  140.264  133.287 i
 67.65  144.642  133.263 i
 67.7  139.351  133.24 i
 67.75  147.252  133.218 i
 67.8  141.024  133.196 i
 67.85  112.997  133.175 i
 67.9  124.531  133.154 i
 67.95  164.167  133.134 i
 68  135.054  133.114 i
 68.05  138.37  133.095 i
 68.1  138.187  133.075 i
 68.15  134.922  133.056 i
 68.2  129.972  133.036 i
 68.25  130.591  133.017 i
 68.3  149.558  132.998 i
 68.35  128.743  132.978 i
 68.4  142.881  132.959 i
 68.45  130.821  132.94 i
 68.5  119.886  132.921 i
 68.55  142.968  132.902 i
 68.6  128.732  132.884 i
 68.65  118.999  132.865 i
 68.7  142.275  132.847 i
 68.75  151.193  132.83 i
 68.8  125.861  132.812 i
 68.85  123.214  132.795 i
 68.9  139.251  132.778 i
 68.95  133.37  132.762 i
 69  142.802  132.746 i
 69.05  124.92  132.73 i
 69.1  121.07  132.714 i
 69.15  139.927  132.699 i
 69.2  130.803  132.683 i
 69.25  144.982  132.668 i
 69.3  152.421  132.653 i
 69.35  137.129  132.637 i
 69.4  119.713  132.622 i
 69.45  149.135  132.606 i
 69.5  141.137  132.59 i
 69.55  126.099  132.574 i
 69.6  112.172  132.558 i
 69.65  127.257  132.541 i
 69.7  127.807  132.525 i
 69.75  115.583  132.508 i
 69.8  124.138  132.492 i
 69.85  118.519  132.475 i
 69.9  125.849  132.459 i
 69.95  106.326  132.443 i
 70  123.143  132.427 i
 70.05  136.209  132.411 i
 70.1  135.016  132.395 i
 70.15  131.595  132.38 i
 70.2  130.842  132.365 i
 70.25  123.635  132.35 i
 70.3  132.682  132.335 i
 70.35  131.019  132.32 i
 70.4  139.928  132.306 i
 70.45  132.479  132.291 i
 70.5  127.489  132.277 i
 70.55  150.844  132.262 i
 70.6  129.542  132.247 i
 70.65  128.65  132.232 i
 70.7  128.045  132.217 i
 70.75  129.69  132.202 i
 70.8  127.525  132.186 i
 70.85  127.651  132.17 i
 70.9  128.528  132.154 i
 70.95  123.199  132.138 i
 71  134.275  132.121 i
 71.05  142.462  132.105 i
 71.1  139.641  132.088 i
 71.15  132.218  132.071 i
 71.2  123.7  132.055 i
 71.25  127.206  132.038 i
 71.3  138.868  132.022 i
 71.35  138.688  132.005 i
 71.4  137.94  131.989 i
 71.45  127.499  131.973 i
 71.5  142.456  131.957 i
 71.55  120.505  131.942 i
 71.6  134.233  131.926 i
 71.65  150.942  131.911 i
 71.7  150.44  131.896 i
 71.75  137.96  131.881 i
 71.8  123.632  131.865 i
 71.85  116.607  131.85 i
 71.9  135.087  131.835 i
 71.95  133.859  131.819 i
 72  137.794  131.803 i
 72.05  117.018  131.786 i
 72.1  145.807  131.77 i
 72.15  136.47  131.752 i
 72.2  139.387  131.735 i
 72.25  144.41  131.717 i
 72.3  133.949  131.7 i
 72.35  137.225  131.681 i
 72.4  138.649  131.663 i
 72.45  134.269  131.645 i
 72.5  138.851  131.627 i
 72.55  120.939  131.608 i
 72.6  129.145  131.59 i
 72.65  135.789  131.572 i
 72.7  107.555  131.554 i
 72.75  145.057  131.536 i
 72.8  129.219  131.518 i
 72.85  132.972  131.501 i
 72.9  138.421  131.484 i
 72.95  129.566  131.467 i
 73  130.182  131.449 i
 73.05  122.967  131.432 i
 73.1  122.447  131.415 i
 73.15  126.624  131.398 i
 73.2  154.451  131.381 i
 73.25  119.689  131.363 i
 73.3  148.937  131.345 i
 73.35  136.79  131.327 i
 73.4  136.85  131.308 i
 73.45  136.404  131.289 i
 73.5  136.605  131.27 i
 73.55  118.314  131.251 i
 73.6  140.143  131.231 i
 73.65  150.868  131.211 i
 73.7  129.099  131.192 i
 73.75  130.236  131.172 i
 73.8  114.761  131.153 i
 73.85  127.517  131.134 i
 73.9  138.083  131.114 i
 73.95  137.654  131.096 i
 74  146.239  131.077 i
 74.05  126.743  131.059 i
 74.1  122.882  131.042 i
 74.15  115.668  131.025 i
 74.2  129.288  131.008 i
 74.25  118.21  130.992 i
 74.3  130.557  130.976 i
 74.35  154.514  130.961 i
 74.4  121.57  130.945 i
 74.45  159.462  130.93 i
 74.5  128.303  130.915 i
 74.55  116.116  130.9 i
 74.6  135.746  130.885 i
 74.65  112.33  130.87 i
 74.7  150.017  130.855 i
 74.75  155.151  130.84 i
 74.8  136.718  130.824 i
 74.85  135.746  130.808 i
 74.9  134.51  130.792 i
 74.95  138.573  130.776 i
 75  131.769  130.76 i
 75.05  127.471  130.744 i
 75.1  142.018  130.727 i
 75.15  132.182  130.711 i
 75.2  137.546  130.695 i
 75.25  125.222  130.679 i
 75.3  140.924  130.663 i
 75.35  150.199  130.649 i
 75.4  143.545  130.634 i
 75.45  139.315  130.62 i
 75.5  120.683  130.606 i
 75.55  130.729  130.593 i
 75.6  130.312  130.58 i
 75.65  125.074  130.568 i
 75.7  121.735  130.556 i
 75.75  122.334  130.545 i
 75.8  140.989  130.534 i
 75.85  129.27  130.523 i
 75.9  131.948  130.512 i
 75.95  131.81  130.501 i
 76  141.13  130.49 i
 76.05  121.136  130.479 i
 76.1  116.955  130.468 i
 76.15  135.563  130.457 i
 76.2  129.296  130.445 i
 76.25  155.505  130.433 i
 76.3  136.279  130.421 i
 76.35  110.343  130.409 i
 76.4  138.967  130.396 i
 76.45  115.91  130.384 i
 76.5  149.338  130.372 i
 76.55  162.944  130.36 i
 76.6  141.884  130.348 i
 76.65  143.668  130.336 i
 76.7  119.54  130.325 i
 76.75  128.556  130.315 i
 76.8  130.502  130.305 i
 76.85  131.544  130.296 i
 76.9  123.296  130.287 i
 76.95  127.06  130.279 i
 77  142.151  130.272 i
 77.05  152.559  130.265 i
 77.1  120.835  130.259 i
 77.15  139.119  130.254 i
 77.2  127.498  130.248 i
 77.25  125.391  130.244 i
 77.3  136.581  130.239 i
 77.35  114.375  130.235 i
 77.4  137.717  130.23 i
 77.45  124.816  130.226 i
 77.5  142.006  130.221 i
 77.55  154.535  130.217 i
 77.6  155.435  130.212 i
 77.65  109.804  130.208 i
 77.7  114.401  130.203 i
 77.75  119.272  130.198 i
 77.8  127.386  130.193 i
 77.85  120.969  130.189 i
 77.9  130.926  130.185 i
 77.95  133.394  130.182 i
 78  142.661  130.178 i
 78.05  139.288  130.177 i
 78.1  128.608  130.175 i
 78.15  120.366  130.175 i
 78.2  135.287  130.175 i
 78.25  127.601  130.177 i
 78.3  139.112  130.18 i
 78.35  138.935  130.185 i
 78.4  116.538  130.19 i
 78.45  125.654  130.198 i
 78.5  132.596  130.206 i
 78.55  131.653  130.216 i
 78.6  131.874  130.227 i
 78.65  118.6  130.24 i
 78.7  139.613  130.253 i
 78.75  129.376  130.269 i
 78.8  116.767  130.284 i
 78.85  119.829  130.302 i
 78.9  133.188  130.32 i
 78.95  123.507  130.34 i
 79  137.903  130.361 i
 79.05  121.987  130.385 i
 79.1  128.353  130.408 i
 79.15  116.869  130.442 i
 79.2  133.749  130.475 i
 79.25  149.604  130.508 i
 79.3  133.364  130.541 i
 79.35  131.669  130.581 i
 79.4  142.192  130.622 i
 79.45  138.364  130.671 i
 79.5  126.628  130.72 i
 79.55  139.195  130.78 i
 79.6  125.105  130.84 i
 79.65  128.057  130.914 i
 79.7  144.08  130.988 i
 79.75  133.953  131.079 i
 79.8  137.69  131.17 i
 79.85  143.666  131.281 i
 79.9  159.849  131.393 i
 79.95  123.915  131.53 i
 80  152.193  131.668 i
 80.05  137.077  131.839 i
 80.1  143.741  132.009 i
 80.15  144.03  132.223 i
 80.2  155.648  132.436 i
 80.25  145.382  132.707 i
 80.3  140.302  132.978 i
 80.35  159.257  133.327 i
 80.4  128.23  133.675 i
 80.45  138.419  134.133 i
 80.5  140.467  134.592 i
 80.55  142.34  135.207 i
 80.6  134.627  135.823 i
 80.65  135.504  136.66 i
 80.7  129.304  137.497 i
 80.75  132.023  138.625 i
 80.8  154.706  139.753 i
 80.85  152.279  141.273 i
 80.9  150.291  142.792 i
 80.95  136.84  144.895 i
 81  175.103  146.999 i
 81.05  139.692  150.026 i
 81.1  160.815  153.053 i
 81.15  162.767  157.581 i
 81.2  152.795  162.11 i
 81.25  188.166  168.355 i
 81.3  175.424  176.237 i
 81.35  212.538  186.468 i
 81.4  218.565  199.33 i
 81.45  238.996  216.392 i
 81.5  264.518  239.005 i
 81.55  279.507  269.427 i
 81.6  324.914  309.633 i
 81.65  388.922  362.898 i
 81.7  424.553  430.281 i
 81.75  504.993  508.768 i
 81.8  533.734  587.727 i
 81.85  652.745  648.975 i
 81.9  670.149  673.423 i
 81.95  635.028  652.058 i
 82  582.256  592.155 i
 82.05  482.887  512.553 i
 82.1  449.96  432.462 i
 82.15  385.954  363.541 i
 82.2  311.136  309.246 i
 82.25  279.265  268.478 i
 82.3  247.602  237.785 i
 82.35  217.364  215.393 i
 82.4  191.918  198.023 i
 82.45  194.722  185.05 i
 82.5  182.479  175.053 i
 82.55  130.077  168.067 i
 82.6  164.728  161.081 i
 82.65  162.244  156.623 i
 82.7  147.185  152.164 i
 82.75  136.577  149.197 i
 82.8  144.168  146.229 i
 82.85  170.011  144.179 i
 82.9  164.409  142.129 i
 82.95  137.488  140.661 i
 83  145.237  139.194 i
 83.05  143.203  138.112 i
 83.1  136.16  137.03 i
 83.15  115.109  136.221 i
 83.2  123.505  135.412 i
 83.25  135.684  134.804 i
 83.3  126.589  134.197 i
 83.35  123.555  133.734 i
 83.4  111.768  133.272 i
 83.45  121.475  132.912 i
 83.5  124.644  132.553 i
 83.55  115.416  132.268 i
 83.6  143.237  131.984 i
 83.65  138.036  131.755 i
 83.7  133.989  131.526 i
 83.75  140.284  131.339 i
 83.8  116.617  131.151 i
 83.85  160.906  130.997 i
 83.9  152.215  130.843 i
 83.95  118.864  130.714 i
 84  136.13  130.586 i
 84.05  116.751  130.478 i
 84.1  135.4  130.37 i
 84.15  123.788  130.279 i
 84.2  142.281  130.188 i
 84.25  133.06  130.111 i
 84.3  137.765  130.033 i
 84.35  116.468  129.967 i
 84.4  128.107  129.901 i
 84.45  128.622  129.844 i
 84.5  110.476  129.786 i
 84.55  150.78  129.736 i
 84.6  130.439  129.686 i
 84.65  153.633  129.641 i
 84.7  142.728  129.597 i
 84.75  147.98  129.557 i
 84.8  116.779  129.517 i
 84.85  121.938  129.48 i
 84.9  138.401  129.443 i
 84.95  171.075  129.409 i
 85  127.942  129.375 i
 85.05  138.862  129.344 i
 85.1  145.414  129.312 i
 85.15  118.886  129.283 i
 85.2  136.866  129.253 i
 85.25  129.692  129.226 i
 85.3  152.525  129.198 i
 85.35  125.369  129.173 i
 85.4  135.72  129.147 i
 85.45  130.575  129.124 i
 85.5  119.145  129.101 i
 85.55  123.686  129.08 i
 85.6  138.322  129.059 i
 85.65  126.373  129.04 i
 85.7  114.878  129.021 i
 85.75  135.492  129.004 i
 85.8  115.153  128.986 i
 85.85  120.982  128.971 i
 85.9  127.753  128.956 i
 85.95  131.083  128.941 i
 86  123.236  128.927 i
 86.05  120.956  128.914 i
 86.1  140.451  128.901 i
 86.15  144.448  128.888 i
 86.2  133.198  128.876 i
 86.25  123.345  128.864 i
 86.3  149.622  128.851 i
 86.35  129.05  128.839 i
 86.4  135.76  128.827 i
 86.45  148.937  128.814 i
 86.5  139.392  128.802 i
 86.55  130.406  128.789 i
 86.6  135.956  128.776 i
 86.65  124.442  128.764 i
 86.7  122.85  128.751 i
 86.75  114.648  128.739 i
 86.8  141.238  128.726 i
 86.85  119.294  128.714 i
 86.9  137.344  128.702 i
 86.95  124.284  128.69 i
 87  138.325  128.679 i
 87.05  121.323  128.668 i
 87.1  133.143  128.657 i
 87.15  124.051  128.647 i
 87.2  124.186  128.637 i
 87.25  122.07  128.628 i
 87.3  127.326  128.619 i
 87.35  111.962  128.611 i
 87.4  142.633  128.602 i
 87.45  121.647  128.594 i
 87.5  129.759  128.586 i
 87.55  132.608  128.579 i
 87.6  123.205  128.572 i
 87.65  152.72  128.564 i
 87.7  134.589  128.557 i
 87.75  137.558  128.549 i
 87.8  108.389  128.542 i
 87.85  141.036  128.534 i
 87.9  137.482  128.526 i
 87.95  121.665  128.518 i
 88  125.023  128.51 i
 88.05  143.849  128.502 i
 88.1  124.52  128.493 i
 88.15  141.245  128.484 i
 88.2  121.796  128.475 i
 88.25  124.737  128.466 i
 88.3  117.99  128.457 i
 88.35  117.792  128.448 i
 88.4  108.528  128.439 i
 88.45  141.548  128.431 i
 88.5  119.089  128.422 i
 88.55  106.357  128.413 i
 88.6  128.851  128.405 i
 88.65  120.303  128.397 i
 88.7  144.032  128.389 i
 88.75  123.105  128.381 i
 88.8  141.434  128.374 i
 88.85  125.446  128.367 i
 88.9  127.805  128.36 i
 88.95  120.243  128.353 i
 89  155.11  128.347 i
 89.05  153.651  128.34 i
 89.1  140.641  128.334 i
 89.15  132.616  128.328 i
 89.2  131.994  128.321 i
 89.25  126.419  128.315 i
 89.3  127.63  128.308 i
 89.35  134.654  128.302 i
 89.4  149.611  128.295 i
 89.45  138.529  128.288 i
 89.5  111.819  128.281 i
 89.55  154.823  128.274 i
 89.6  125.2  128.266 i
 89.65  114.657  128.259 i
 89.7  118.146  128.251 i
 89.75  155.635  128.243 i
 89.8  121.821  128.235 i
 89.85  116.154  128.227 i
 89.9  135.528  128.219 i
 89.95  162.912  128.211 i
 90  135.656  128.203 i
 90.05  129.637  128.195 i
 90.1  116.6  128.187 i
 90.15  142.192  128.179 i
 90.2  145.966  128.172 i
 90.25  144.28  128.164 i
 90.3  132.051  128.157 i
 90.35  135.676  128.15 i
 90.4  143.251  128.143 i
 90.45  145.018  128.136 i
 90.5  127.566  128.129 i
 90.55  142.61  128.123 i
 90.6  153.595  128.116 i
 90.65  135.037  128.11 i
 90.7  115.74  128.104 i
 90.75  135.142  128.097 i
 90.8  123.028  128.091 i
 90.85  126.915  128.085 i
 90.9  149.056  128.079 i
 90.95  139.686  128.072 i
 91  138.668  128.066 i
 91.05  123.338  128.06 i
 91.1  121.751  128.053 i
 91.15  131.357  128.047 i
 91.2  138.893  128.04 i
 91.25  137.211  128.033 i
 91.3  120.471  128.026 i
 91.35  142.416  128.02 i
 91.4  137.556  128.013 i
 91.45  134.859  128.006 i
 91.5  131.874  127.999 i
 91.55  122.142  127.993 i
 91.6  125.785  127.986 i
 91.65  114.835  127.98 i
 91.7  147.882  127.974 i
 91.75  130.44  127.968 i
 91.8  121.445  127.962 i
 91.85  126.949  127.956 i
 91.9  129.942  127.951 i
 91.95  142.857  127.945 i
 92  116.698  127.94 i
 92.05  141.415  127.935 i
 92.1  137.017  127.93 i
 92.15  129.465  127.926 i
 92.2  122.948  127.921 i
 92.25  141.457  127.917 i
 92.3  144.198  127.912 i
 92.35  111.691  127.908 i
 92.4  125.452  127.903 i
 92.45  126.593  127.899 i
 92.5  124.551  127.895 i
 92.55  126.371  127.891 i
 92.6  133.814  127.886 i
 92.65  98.7531  127.882 i
 92.7  113.329  127.878 i
 92.75  125.115  127.874 i
 92.8  139.936  127.87 i
 92.85  123.257  127.866 i
 92.9  133.009  127.861 i
 92.95  142.411  127.858 i
 93  132.658  127.854 i
 93.05  130.851  127.855 i
 93.1  149.676  127.856 i
 93.15  124.351  127.853 i
 93.2  138.378  127.85 i
 93.25  119.562  127.847 i
 93.3  139.679  127.844 i
 93.35  132.785  127.842 i
 93.4  124.951  127.84 i
 93.45  138.545  127.839 i
 93.5  125.877  127.837 i
 93.55  143.725  127.836 i
 93.6  116.731  127.835 i
 93.65  140.056  127.834 i
 93.7  141.86  127.833 i
 93.75  127.179  127.832 i
 93.8  125.851  127.832 i
 93.85  129.333  127.831 i
 93.9  126.61  127.831 i
 93.95  109.026  127.831 i
 94  125.135  127.83 i
 94.05  117.155  127.831 i
 94.1  116.183  127.831 i
 94.15  141.129  127.831 i
 94.2  135.668  127.832 i
 94.25  132.428  127.833 i
 94.3  135.575  127.834 i
 94.35  113.689  127.836 i
 94.4  122.473  127.838 i
 94.45  139.144  127.841 i
 94.5  147.611  127.843 i
 94.55  112.775  127.847 i
 94.6  115.045  127.851 i
 94.65  121.024  127.857 i
 94.7  127.21  127.862 i
 94.75  132.084  127.869 i
 94.8  127.928  127.876 i
 94.85  128.519  127.884 i
 94.9  137.893  127.893 i
 94.95  123.953  127.903 i
 95  142.561  127.913 i
 95.05  140.531  127.925 i
 95.1  130.615  127.937 i
 95.15  141.678  127.951 i
 95.2  118.803  127.965 i
 95.25  117.407  127.982 i
 95.3  143.124  127.998 i
 95.35  137.678  128.017 i
 95.4  108.079  128.036 i
 95.45  133.723  128.057 i
 95.5  119.154  128.079 i
 95.55  132.516  128.105 i
 95.6  140.915  128.13 i
 95.65  158.061  128.16 i
 95.7  129.475  128.19 i
 95.75  149.895  128.226 i
 95.8  132.581  128.261 i
 95.85  143.153  128.303 i
 95.9  138.237  128.345 i
 95.95  131.569  128.395 i
 96  138.119  128.446 i
 96.05  128.945  128.507 i
 96.1  126.996  128.567 i
 96.15  124.938  128.641 i
 96.2  127.658  128.714 i
 96.25  143.293  128.804 i
 96.3  134.769  128.893 i
 96.35  129.756  129.002 i
 96.4  127.484  129.111 i
 96.45  138.919  129.246 i
 96.5  133.557  129.38 i
 96.55  129.81  129.546 i
 96.6  125.064  129.713 i
 96.65  139.742  129.921 i
 96.7  120.156  130.129 i
 96.75  139.875  130.391 i
 96.8  99.2946  130.654 i
 96.85  133.248  130.989 i
 96.9  132.686  131.325 i
 96.95  139.925  131.759 i
 97  116.287  132.193 i
 97.05  143.067  132.762 i
 97.1  120.914  133.33 i
 97.15  154.745  134.082 i
 97.2  153.799  134.833 i
 97.25  145.984  135.836 i
 97.3  137.129  136.84 i
 97.35  161.672  138.2 i
 97.4  139.812  139.56 i
 97.45  129.434  141.443 i
 97.5  147.072  143.326 i
 97.55  155.033  145.996 i
 97.6  155.745  148.666 i
 97.65  150.096  152.548 i
 97.7  160.417  156.431 i
 97.75  152.862  162.211 i
 97.8  157.635  167.992 i
 97.85  180.254  175.836 i
 97.9  185.009  185.521 i
 97.95  143.725  197.464 i
 98  184.469  212.097 i
 98.05  217.705  229.94 i
 98.1  246.366  250.534 i
 98.15  279.833  273.911 i
 98.2  299.68  298.397 i
 98.25  335.803  321.565 i
 98.3  370.751  340.09 i
 98.35  355.357  350.6 i
 98.4  366.628  351.317 i
 98.45  366.595  341.776 i
 98.5  353.147  324.303 i
 98.55  309.305  301.843 i
 98.6  255.257  277.765 i
 98.65  252.417  254.595 i
 98.7  234.992  233.811 i
 98.75  208.089  216.148 i
 98.8  202.599  201.103 i
 98.85  164.503  188.867 i
 98.9  187.877  178.874 i
 98.95  161.284  170.725 i
 99  161.819  164.068 i
 99.05  164.822  159.09 i
 99.1  149.728  154.111 i
 99.15  165.338  150.692 i
 99.2  151.698  147.273 i
 99.25  137.186  144.866 i
 99.3  144.107  142.459 i
 99.35  120.517  140.721 i
 99.4  133.237  138.982 i
 99.45  150.217  137.696 i
 99.5  117.87  136.41 i
 99.55  128  135.441 i
 99.6  112.331  134.472 i
 99.65  111.161  133.737 i
 99.7  133.404  133.002 i
 99.75  150.125  132.443 i
 99.8  115.357  131.883 i
 99.85  120.625  131.454 i
 99.9  124.779  131.025 i
 99.95  152.619  130.692 i
 100  123.297  130.359 i
 100.05  121.103  130.097 i
 100.1  139.773  129.834 i
 100.15  118.91  129.625 i
 100.2  125.507  129.415 i
 100.25  142.392  129.245 i
 100.3  135.2  129.075 i
 100.35  141.598  128.935 i
 100.4  95.9626  128.795 i
 100.45  117.021  128.679 i
 100.5  125.648  128.563 i
 100.55  115.206  128.465 i
 100.6  146.476  128.367 i
 100.65  129.296  128.283 i
 100.7  151.034  128.2 i
 100.75  125.738  128.128 i
 100.8  142.983  128.057 i
 100.85  131.228  127.995 i
 100.9  127.563  127.933 i
 100.95  124.117  127.879 i
 101  133.779  127.826 i
 101.05  136.971  127.779 i
 101.1  117.8  127.732 i
 101.15  126.495  127.691 i
 101.2  147.616  127.651 i
 101.25  130.782  127.615 i
 101.3  151.55  127.579 i
 101.35  130.689  127.548 i
 101.4  156.893  127.517 i
 101.45  142.621  127.49 i
 101.5  128.324  127.463 i
 101.55  134.669  127.439 i
 101.6  137.109  127.415 i
 101.65  113.118  127.383 i
 101.7  125.527  127.35 i
 101.75  131.579  127.33 i
 101.8  119.665  127.311 i
 101.85  142.984  127.292 i
 101.9  124.997  127.273 i
 101.95  122.194  127.256 i
 102  132.338  127.238 i
 102.05  128.459  127.221 i
 102.1  143.801  127.204 i
 102.15  137.01  127.188 i
 102.2  105.575  127.171 i
 102.25  123.711  127.156 i
 102.3  109.283  127.14 i
 102.35  146.591  127.125 i
 102.4  137.433  127.11 i
 102.45  143.387  127.096 i
 102.5  144.974  127.082 i
 102.55  110.67  127.068 i
 102.6  116.54  127.055 i
 102.65  134.523  127.043 i
 102.7  133.169  127.031 i
 102.75  121.235  127.02 i
 102.8  129.872  127.009 i
 102.85  136.014  126.999 i
 102.9  130.618  126.989 i
 102.95  127.618  126.98 i
 103  113.701  126.971 i
 103.05  138.094  126.963 i
 103.1  132.527  126.955 i
 103.15  144.166  126.948 i
 103.2  138.209  126.941 i
 103.25  110.859  126.935 i
 103.3  111.88  126.928 i
 103.35  132.134  126.922 i
 103.4  121.675  126.916 i
 103.45  136.508  126.909 i
 103.5  132.013  126.903 i
 103.55  138.066  126.897 i
 103.6  129.213  126.89 i
 103.65  129.57  126.884 i
 103.7  127.462  126.877 i
 103.75  130.92  126.87 i
 103.8  127.459  126.863 i
 103.85  131.44  126.855 i
 103.9  128.217  126.848 i
 103.95  127.876  126.84 i
 104  131.776  126.832 i
 104.05  128.68  126.824 i
 104.1  129.254  126.816 i
 104.15  124.432  126.808 i
 104.2  129.878  126.8 i
 104.25  124.138  126.792 i
 104.3  130.586  126.784 i
 104.35  128.403  126.777 i
 104.4  117.116  126.769 i
 104.45  115.265  126.762 i
 104.5  137.174  126.755 i
 104.55  107.484  126.749 i
 104.6  128.297  126.743 i
 104.65  127.717  126.737 i
 104.7  134.196  126.731 i
 104.75  107.503  126.726 i
 104.8  131.118  126.721 i
 104.85  131.046  126.717 i
 104.9  151.258  126.713 i
 104.95  131.667  126.709 i
 105  126.588  126.705 i
 105.05  130.486  126.701 i
 105.1  125.989  126.698 i
 105.15  132.633  126.694 i
 105.2  115.917  126.69 i
 105.25  130.572  126.686 i
 105.3  139.893  126.683 i
 105.35  134.247  126.679 i
 105.4  118.394  126.675 i
 105.45  122.294  126.67 i
 105.5  110.333  126.665 i
 105.55  114.743  126.66 i
 105.6  112.357  126.655 i
 105.65  126.122  126.65 i
 105.7  152.564  126.644 i
 105.75  130.395  126.638 i
 105.8  116.329  126.632 i
 105.85  111.353  126.626 i
 105.9  122.791  126.62 i
 105.95  121.511  126.613 i
 106  127.918  126.607 i
 106.05  138.329  126.6 i
 106.1  129.197  126.594 i
 106.15  124.876  126.588 i
 106.2  135.617  126.582 i
 106.25  132.834  126.576 i
 106.3  117.543  126.57 i
 106.35  135.211  126.565 i
 106.4  117.717  126.56 i
 106.45  132.195  126.555 i
 106.5  107.476  126.55 i
 106.55  138.726  126.546 i
 106.6  124.24  126.542 i
 106.65  113.361  126.539 i
 106.7  121.298  126.535 i
 106.75  116.493  126.532 i
 106.8  144.502  126.529 i
 106.85  138.31  126.526 i
 106.9  147.292  126.523 i
 106.95  121.305  126.521 i
 107  142.307  126.518 i
 107.05  122.471  126.515 i
 107.1  125.54  126.512 i
 107.15  109.221  126.509 i
 107.2  120.71  126.506 i
 107.25  124.296  126.503 i
 107.3  108.571  126.499 i
 107.35  130.588  126.496 i
 107.4  121.789  126.492 i
 107.45  123.911  126.487 i
 107.5  130.166  126.483 i
 107.55  110.488  126.478 i
 107.6  113.408  126.474 i
 107.65  109.453  126.468 i
 107.7  118.331  126.463 i
 107.75  120.553  126.458 i
 107.8  120.618  126.453 i
 107.85  129.413  126.448 i
 107.9  118.115  126.442 i
 107.95  125.642  126.437 i
 108  114.876  126.432 i
 108.05  112.038  126.427 i
 108.1  149.848  126.423 i
 108.15  126.813  126.419 i
 108.2  134.925  126.414 i
 108.25  119.637  126.411 i
 108.3  129.698  126.407 i
 108.35  121.419  126.404 i
 108.4  109.917  126.401 i
 108.45  127.255  126.399 i
 108.5  135.126  126.397 i
 108.55  134.37  126.395 i
 108.6  137.306  126.393 i
 108.65  144.62  126.392 i
 108.7  130.788  126.391 i
 108.75  133.971  126.39 i
 108.8  109.843  126.389 i
 108.85  118.692  126.388 i
 108.9  117.103  126.387 i
 108.95  131.376  126.386 i
 109  138.508  126.385 i
 109.05  112.605  126.384 i
 109.1  132.456  126.384 i
 109.15  135.529  126.382 i
 109.2  110.061  126.381 i
 109.25  147.015  126.38 i
 109.3  121.499  126.378 i
 109.35  127.685  126.376 i
 109.4  117.814  126.374 i
 109.45  133.194  126.372 i
 109.5  126.08  126.37 i
 109.55  132.843  126.368 i
 109.6  132.645  126.366 i
 109.65  134.748  126.364 i
 109.7  120.327  126.362 i
 109.75  136.822  126.36 i
 109.8  127.332  126.358 i
 109.85  122.079  126.357 i
 109.9  132.198  126.355 i
 109.95  121.343  126.355 i
 110  137.57  126.354 i
 110.05  126.572  126.354 i
 110.1  137.308  126.354 i
 110.15  128.964  126.355 i
 110.2  147.407  126.355 i
 110.25  127.588  126.357 i
 110.3  109.986  126.359 i
 110.35  109.734  126.362 i
 110.4  135.888  126.365 i
 110.45  127.729  126.369 i
 110.5  121.214  126.373 i
 110.55  125.372  126.378 i
 110.6  131.99  126.383 i
 110.65  146.111  126.389 i
 110.7  113.453  126.395 i
 110.75  128.101  126.402 i
 110.8  102.862  126.409 i
 110.85  145.565  126.417 i
 110.9  139.922  126.424 i
 110.95  132.146  126.433 i
 111  136.803  126.441 i
 111.05  113.223  126.45 i
 111.1  143.017  126.459 i
 111.15  115.999  126.469 i
 111.2  117.002  126.479 i
 111.25  113.682  126.49 i
 111.3  132.384  126.501 i
 111.35  142.196  126.513 i
 111.4  115.439  126.525 i
 111.45  131.135  126.539 i
 111.5  133.918  126.552 i
 111.55  128.645  126.568 i
 111.6  133.625  126.583 i
 111.65  145.628  126.601 i
 111.7  131.343  126.619 i
 111.75  130.727  126.639 i
 111.8  136.03  126.66 i
 111.85  161.079  126.684 i
 111.9  113.317  126.708 i
 111.95  127.085  126.736 i
 112  121.478  126.764 i
 112.05  142.361  126.796 i
 112.1  147.357  126.829 i
 112.15  129.539  126.867 i
 112.2  135.503  126.905 i
 112.25  127.696  126.95 i
 112.3  124.253  126.994 i
 112.35  135.006  127.046 i
 112.4  132.952  127.098 i
 112.45  111.264  127.159 i
 112.5  121.356  127.219 i
 112.55  123.717  127.29 i
 112.6  127.053  127.36 i
 112.65  125.178  127.442 i
 112.7  137.502  127.524 i
 112.75  134.078  127.62 i
 112.8  115.193  127.716 i
 112.85  122.07  127.828 i
 112.9  135.721  127.94 i
 112.95  128.729  128.071 i
 113  111.785  128.203 i
 113.05  139.281  128.358 i
 113.1  146.858  128.514 i
 113.15  110.541  128.698 i
 113.2  102.575  128.882 i
 113.25  122.248  129.101 i
 113.3  121.758  129.32 i
 113.35  125.844  129.583 i
 113.4  134.374  129.846 i
 113.45  147.02  130.163 i
 113.5  143.993  130.48 i
 113.55  160.02  130.864 i
 113.6  144.012  131.249 i
 113.65  140.1  131.717 i
 113.7  143.749  132.185 i
 113.75  144.559  132.76 i
 113.8  139.054  133.334 i
 113.85  128.921  134.041 i
 113.9  126.927  134.748 i
 113.95  124.318  135.624 i
 114  127.031  136.499 i
 114.05  137.479  137.588 i
 114.1  133.023  138.676 i
 114.15  135.078  140.034 i
 114.2  136.78  141.392 i
 114.25  123.05  143.092 i
 114.3  154.657  144.792 i
 114.35  144.137  146.924 i
 114.4  154.335  149.056 i
 114.45  147.189  151.73 i
 114.5  157.937  154.403 i
 114.55  170.717  157.562 i
 114.6  169.88  161.087 i
 114.65  184.657  165.012 i
 114.7  166.111  169.366 i
 114.75  162.001  174.172 i
 114.8  192.804  179.443 i
 114.85  163.676  185.174 i
 114.9  170.021  191.339 i
 114.95  200.729  197.879 i
 115  190.521  204.698 i
 115.05  212.547  211.653 i
 115.1  206.985  218.562 i
 115.15  247.923  225.185 i
 115.2  235.85  231.256 i
 115.25  234.825  236.49 i
 115.3  243.464  240.61 i
 115.35  248.585  243.382 i
 115.4  244.504  244.637 i
 115.45  257.191  244.299 i
 115.5  240.162  242.392 i
 115.55  295.206  239.039 i
 115.6  212.501  234.444 i
 115.65  240.855  228.825 i
 115.7  234.68  222.58 i
 115.75  189.982  215.86 i
 115.8  203.964  208.984 i
 115.85  184.057  202.133 i
 115.9  205.053  195.481 i
 115.95  178.126  189.147 i
 116  175.419  183.208 i
 116.05  184.262  177.707 i
 116.1  184.231  172.659 i
 116.15  164.747  168.063 i
 116.2  165.95  163.901 i
 116.25  163.476  160.148 i
 116.3  163.322  156.774 i
 116.35  156.942  153.905 i
 116.4  139.688  151.036 i
 116.45  147.666  148.736 i
 116.5  152.403  146.436 i
 116.55  137.395  144.594 i
 116.6  132.965  142.751 i
 116.65  138.032  141.272 i
 116.7  121.293  139.793 i
 116.75  142.925  138.602 i
 116.8  135.474  137.411 i
 116.85  148.575  136.447 i
 116.9  142.896  135.484 i
 116.95  144.762  134.702 i
 117  147.912  133.919 i
 117.05  137.322  133.28 i
 117.1  151.265  132.641 i
 117.15  118.46  132.116 i
 117.2  143.927  131.59 i
 117.25  135.142  131.156 i
 117.3  124.579  130.723 i
 117.35  145.331  130.362 i
 117.4  143.957  130.001 i
 117.45  143.033  129.699 i
 117.5  123.784  129.397 i
 117.55  118.112  129.143 i
 117.6  125.59  128.889 i
 117.65  130.81  128.674 i
 117.7  119.367  128.458 i
 117.75  129.292  128.275 i
 117.8  145.816  128.092 i
 117.85  137.731  127.935 i
 117.9  130.778  127.778 i
 117.95  134.698  127.643 i
 118  127.357  127.508 i
 118.05  140.739  127.391 i
 118.1  130.516  127.274 i
 118.15  143.331  127.172 i
 118.2  128.757  127.071 i
 118.25  119.887  126.982 i
 118.3  146.029  126.894 i
 118.35  127.372  126.816 i
 118.4  134.147  126.739 i
 118.45  117.515  126.67 i
 118.5  130.532  126.602 i
 118.55  130.865  126.542 i
 118.6  122.099  126.482 i
 118.65  120.183  126.429 i
 118.7  111.401  126.376 i
 118.75  108.385  126.329 i
 118.8  133.592  126.281 i
 118.85  133.701  126.239 i
 118.9  138.421  126.197 i
 118.95  120.933  126.159 i
 119  101.157  126.121 i
 119.05  117.661  126.087 i
 119.1  121.582  126.052 i
 119.15  129.433  126.021 i
 119.2  139.012  125.99 i
 119.25  136.324  125.961 i
 119.3  119.645  125.933 i
 119.35  123.818  125.906 i
 119.4  132.099  125.88 i
 119.45  128.304  125.855 i
 119.5  123.45  125.831 i
 119.55  141.864  125.808 i
 119.6  123.016  125.785 i
 119.65  131.99  125.763 i
 119.7  134.28  125.742 i
 119.75  130.142  125.721 i
 119.8  134.174  125.701 i
 119.85  137.209  125.682 i
 119.9  164.031  125.663 i
 119.95  130.195  125.644 i
 120  114.891  125.626 i
 120.05  117.838  125.609 i
 120.1  122.446  125.592 i
 120.15  135.162  125.575 i
 120.2  103.256  125.559 i
 120.25  113.581  125.544 i
 120.3  147.214  125.528 i
 120.35  127.799  125.514 i
 120.4  115.88  125.5 i
 120.45  119.359  125.486 i
 120.5  132.938  125.472 i
 120.55  134.589  125.46 i
 120.6  133.533  125.447 i
 120.65  140.154  125.435 i
 120.7  131.767  125.423 i
 120.75  118.934  125.412 i
 120.8  135.693  125.401 i
 120.85  132.327  125.391 i
 120.9  132.397  125.381 i
 120.95  129.477  125.371 i
 121  119.787  125.361 i
 121.05  154.095  125.352 i
 121.1  130.027  125.343 i
 121.15  130.199  125.334 i
 121.2  132.738  125.325 i
 121.25  139.406  125.316 i
 121.3  133.649  125.308 i
 121.35  125.028  125.3 i
 121.4  126.296  125.291 i
 121.45  152.35  125.283 i
 121.5  124.545  125.275 i
 121.55  136.955  125.267 i
 121.6  129.965  125.259 i
 121.65  140.572  125.251 i
 121.7  131.934  125.243 i
 121.75  130.272  125.235 i
 121.8  119.67  125.227 i
 121.85  121.325  125.219 i
 121.9  133.235  125.211 i
 121.95  143.989  125.203 i
 122  139.083  125.195 i
 122.05  118.848  125.187 i
 122.1  136.133  125.179 i
 122.15  131.565  125.171 i
 122.2  118.61  125.163 i
 122.25  117.163  125.155 i
 122.3  142.126  125.147 i
 122.35  124.122  125.139 i
 122.4  127.004  125.131 i
 122.45  136.547  125.118 i
 122.5  123.823  125.105 i
 122.55  130.982  125.098 i
 122.6  106.554  125.09 i
 122.65  120.218  125.083 i
 122.7  128.1  125.075 i
 122.75  131.155  125.068 i
 122.8  133.959  125.061 i
 122.85  125.865  125.054 i
 122.9  141.495  125.047 i
 122.95  125.903  125.04 i
 123  107.722  125.033 i
 123.05  124.384  125.027 i
 123.1  126.335  125.02 i
 123.15  131.701  125.014 i
 123.2  135.149  125.008 i
 123.25  123.769  125.002 i
 123.3  125.311  124.996 i
 123.35  120.473  124.99 i
 123.4  140.659  124.985 i
 123.45  127.687  124.979 i
 123.5  104.722  124.974 i
 123.55  114.002  124.968 i
 123.6  115.872  124.963 i
 123.65  133.871  124.958 i
 123.7  125.004  124.953 i
 123.75  122.594  124.948 i
 123.8  109.837  124.942 i
 123.85  120.893  124.937 i
 123.9  139.566  124.932 i
 123.95  135.489  124.927 i
 124  143.978  124.922 i
 124.05  124.023  124.917 i
 124.1  115.819  124.912 i
 124.15  131.666  124.906 i
 124.2  105.058  124.901 i
 124.25  118.05  124.896 i
 124.3  97.2529  124.89 i
 124.35  131.84  124.885 i
 124.4  128.712  124.879 i
 124.45  137.774  124.873 i
 124.5  132.298  124.868 i
 124.55  113.243  124.862 i
 124.6  109.841  124.856 i
 124.65  122.006  124.85 i
 124.7  131.481  124.844 i
 124.75  136.736  124.838 i
 124.8  125.09  124.832 i
 124.85  145.713  124.826 i
 124.9  141.513  124.82 i
 124.95  141.746  124.814 i
 125  115.661  124.809 i
 125.05  131.929  124.803 i
 125.1  121.624  124.797 i
 125.15  152.373  124.791 i
 125.2  139.642  124.785 i
 125.25  124.766  124.78 i
 125.3  143.217  124.774 i
 125.35  134.889  124.769 i
 125.4  130.24  124.763 i
 125.45  124.839  124.758 i
 125.5  123.036  124.753 i
 125.55  128.92  124.747 i
 125.6  112.072  124.742 i
 125.65  126.415  124.737 i
 125.7  126.155  124.733 i
 125.75  146.24  124.728 i
 125.8  128.944  124.723 i
 125.85  112.485  124.718 i
 125.9  142.578  124.714 i
 125.95  135.898  124.709 i
 126  129.72  124.705 i
 126.05  118.719  124.7 i
 126.1  120.778  124.696 i
 126.15  130.539  124.691 i
 126.2  132.779  124.687 i
 126.25  133.621  124.682 i
 126.3  124.434  124.678 i
 126.35  136.232  124.673 i
 126.4  137.872  124.669 i
 126.45  112.981  124.664 i
 126.5  142.879  124.66 i
 126.55  131.63  124.655 i
 126.6  115.477  124.65 i
 126.65  136.051  124.645 i
 126.7  120.465  124.64 i
 126.75  122.823  124.635 i
 126.8  109.268  124.63 i
 126.85  110.376  124.625 i
 126.9  105.485  124.62 i
 126.95  132.667  124.615 i
 127  147.783  124.61 i
 127.05  108.316  124.604 i
 127.1  126.685  124.599 i
 127.15  115.772  124.594 i
 127.2  126.641  124.588 i
 127.25  130.11  124.583 i
 127.3  109.205  124.577 i
 127.35  134.531  124.572 i
 127.4  133.246  124.566 i
 127.45  126.868  124.561 i
 127.5  126.105  124.556 i
 127.55  142.165  124.55 i
 127.6  124.845  124.545 i
 127.65  127.782  124.54 i
 127.7  121.368  124.535 i
 127.75  127.859  124.529 i
 127.8  127.793  124.524 i
 127.85  148.545  124.519 i
 127.9  133.695  124.514 i
 127.95  126.692  124.51 i
 128  115.074  124.505 i
 128.05  121.614  124.5 i
 128.1  120.399  124.495 i
 128.15  135.661  124.491 i
 128.2  119.312  124.486 i
 128.25  123.054  124.482 i
 128.3  124.2  124.477 i
 128.35  135.437  124.473 i
 128.4  138.075  124.469 i
 128.45  108.668  124.464 i
 128.5  131.222  124.46 i
 128.55  148.039  124.456 i
 128.6  142.759  124.451 i
 128.65  123.124  124.447 i
 128.7  146.486  124.443 i
 128.75  110.105  124.438 i
 128.8  123.287  124.434 i
 128.85  134.647  124.43 i
 128.9  130.482  124.425 i
 128.95  128.071  124.421 i
 129  128.201  124.416 i
 129.05  122.618  124.412 i
 129.1  123.556  124.407 i
 129.15  111.854  124.403 i
 129.2  109.694  124.398 i
 129.25  141.32  124.393 i
 129.3  115.726  124.388 i
 129.35  140.046  124.383 i
 129.4  143.76  124.379 i
 129.45  124.725  124.373 i
 129.5  118.568  124.368 i
 129.55  126.015  124.363 i
 129.6  157.402  124.358 i
 129.65  140.38  124.353 i
 129.7  118.996  124.348 i
 129.75  145.391  124.343 i
 129.8  119.946  124.338 i
 129.85  141.232  124.332 i
 129.9  115.787  124.327 i
 129.95  111.782  124.375 i
 130  124.781  124.423 i

