
#Surface 0 of 1 surfaces

#IsoCurve 0, 1801 points
#x y z type
 40  209.252  179.967 i
 40.05  174.542  179.817 i
 40.1  169.737  179.668 i
 40.15  164.688  179.518 i
 40.2  175.205  179.368 i
 40.25  175.619  179.218 i
 40.3  191.703  179.069 i
 40.35  173.624  178.919 i
 40.4  178.272  178.769 i
 40.45  170.208  178.619 i
 40.5  180.457  178.469 i
 40.55  195.081  178.319 i
 40.6  191.51  178.17 i
 40.65  175.501  178.02 i
 40.7  184.952  177.87 i
 40.75  170.513  177.72 i
 40.8  152.579  177.57 i
 40.85  166.892  177.42 i
 40.9  177.339  177.27 i
 40.95  170.769  177.12 i
 41  186.687  176.97 i
 41.05  180.729  176.82 i
 41.1  163.239  176.67 i
 41.15  181.131  176.52 i
 41.2  189.555  176.37 i
 41.25  182.517  176.22 i
 41.3  166.25  176.07 i
 41.35  188.802  175.92 i
 41.4  185.022  175.77 i
 41.45  178.462  175.621 i
 41.5  190.988  175.471 i
 41.55  167.021  175.321 i
 41.6  146.723  175.171 i
 41.65  159.078  175.021 i
 41.7  162.98  174.871 i
 41.75  185.267  174.722 i
 41.8  166.419  174.572 i
 41.85  207.361  174.422 i
 41.9  172.091  174.273 i
 41.95  182.347  174.123 i
 42  171.693  173.973 i
 42.05  194.056  173.824 i
 42.1  168.589  173.674 i
 42.15  175.693  173.525 i
 42.2  165.464  173.375 i
 42.25  162.541  173.226 i
 42.3  157.649  173.077 i
 42.35  166.777  172.927 i
 42.4  178.038  172.778 i
 42.45  180.266  172.629 i
 42.5  163.593  172.48 i
 42.55  182.596  172.331 i
 42.6  173.932  172.182 i
 42.65  157.537  172.033 i
 42.7  158.795  171.884 i
 42.75  164.236  171.735 i
 42.8  191.271  171.587 i
 42.85  196.971  171.438 i
 42.9  175.939  171.289 i
 42.95  205.072  171.141 i
 43  176.54  170.992 i
 43.05  213.108  170.844 i
 43.1  186.574  170.696 i
 43.15  177.942  170.548 i
 43.2  213.775  170.4 i
 43.25  199.447  170.252 i
 43.3  210.062  170.104 i
 43.35  199.614  169.956 i
 43.4  202.733  169.808 i
 43.45  213.414  169.66 i
 43.5  225.576  169.513 i
 43.55  210.191  169.365 i
 43.6  213.516  169.218 i
 43.65  236.306  169.071 i
 43.7  223.863  168.924 i
 43.75  239.097  168.777 i
 43.8  254.535  168.63 i
 43.85  248.064  168.483 i
 43.9  264.687  168.336 i
 43.95  330.104  168.19 i
 44  352.226  168.043 i
 44.05  363.262  167.897 i
 44.1  530.773  167.75 i
 44.15  600.985  167.604 i
 44.2  764.109  167.458 i
 44.25  1153.34  167.312 i
 44.3  1768.62  167.167 i
 44.35  2918.57  167.021 i
 44.4  4475.67  166.876 i
 44.45  5661.63  166.73 i
 44.5  5619.34  166.585 i
 44.55  4323.86  166.44 i
 44.6  2775.67  166.295 i
 44.65  1686.35  166.15 i
 44.7  1005.36  166.006 i
 44.75  679.463  165.861 i
 44.8  547.338  165.717 i
 44.85  433.652  165.572 i
 44.9  340.917  165.428 i
 44.95  287.913  165.284 i
 45  294.137  165.141 i
 45.05  257.186  164.997 i
 45.1  226.072  164.854 i
 45.15  223.787  164.71 i
 45.2  213.224  164.567 i
 45.25  207.653  164.424 i
 45.3  217.992  164.281 i
 45.35  175.942  164.139 i
 45.4  172.866  163.996 i
 45.45  180.921  163.854 i
 45.5  174.088  163.712 i
 45.55  164.167  163.57 i
 45.6  167.38  163.428 i
 45.65  203.834  163.287 i
 45.7  143.831  163.145 i
 45.75  171.926  163.004 i
 45.8  189.395  162.863 i
 45.85  169.096  162.722 i
 45.9  152.002  162.582 i
 45.95  195.92  162.441 i
 46  169.094  162.301 i
 46.05  177.558  162.161 i
 46.1  164.082  162.021 i
 46.15  135.255  161.881 i
 46.2  188.196  161.742 i
 46.25  164.518  161.603 i
 46.3  178.307  161.464 i
 46.35  169.204  161.325 i
 46.4  181.359  161.186 i
 46.45  135.658  161.048 i
 46.5  160.791  160.91 i
 46.55  173.449  160.772 i
 46.6  145.791  160.634 i
 46.65  173.9  160.496 i
 46.7  166.481  160.359 i
 46.75  164.822  160.222 i
 46.8  176.505  160.085 i
 46.85  160.319  159.948 i
 46.9  158.76  159.812 i
 46.95  161.312  159.676 i
 47  180.728  159.54 i
 47.05  145.965  159.404 i
 47.1  195.135  159.268 i
 47.15  160.022  159.133 i
 47.2  159.234  158.998 i
 47.25  140.649  158.863 i
 47.3  139.653  158.729 i
 47.35  145.669  158.595 i
 47.4  162.595  158.461 i
 47.45  150.065  158.327 i
 47.5  157.18  158.193 i
 47.55  143.718  158.06 i
 47.6  178.303  157.927 i
 47.65  144.042  157.794 i
 47.7  150.695  157.662 i
 47.75  161.9  157.529 i
 47.8  159.317  157.397 i
 47.85  133.792  157.266 i
 47.9  158.322  157.134 i
 47.95  158.594  157.003 i
 48  177.788  156.872 i
 48.05  163.826  156.742 i
 48.1  167.74  156.611 i
 48.15  150.348  156.481 i
 48.2  163.648  156.351 i
 48.25  172.02  156.222 i
 48.3  136.566  156.093 i
 48.35  146.506  155.964 i
 48.4  155.329  155.835 i
 48.45  155.999  155.707 i
 48.5  162.551  155.579 i
 48.55  140.516  155.451 i
 48.6  142.591  155.323 i
 48.65  171.621  155.196 i
 48.7  157.355  155.069 i
 48.75  144.097  154.943 i
 48.8  139.673  154.817 i
 48.85  142.253  154.691 i
 48.9  177.155  154.565 i
 48.95  145.677  154.44 i
 49  150.008  154.315 i
 49.05  140.946  154.19 i
 49.1  147.887  154.065 i
 49.15  141.819  153.941 i
 49.2  150.509  153.817 i
 49.25  164.454  153.694 i
 49.3  154.92  153.571 i
 49.35  169.473  153.448 i
 49.4  161.16  153.326 i
 49.45  149.919  153.203 i
 49.5  182.356  153.082 i
 49.55  169.407  152.96 i
 49.6  147.548  152.839 i
 49.65  168.217  152.718 i
 49.7  150.428  152.598 i
 49.75  173.197  152.478 i
 49.8  176.53  152.358 i
 49.85  154.11  152.238 i
 49.9  133.956  152.119 i
 49.95  140.72  152 i
 50  159.611  151.882 i
 50.05  152.224  151.764 i
 50.1  143.618  151.646 i
 50.15  161.761  151.529 i
 50.2  138.52  151.412 i
 50.25  139.686  151.295 i
 50.3  161.64  151.179 i
 50.35  134.469  151.063 i
 50.4  153.865  150.948 i
 50.45  171.007  150.832 i
 50.5  163.363  150.718 i
 50.55  166.432  150.603 i
 50.6  167.758  150.489 i
 50.65  153.01  150.375 i
 50.7  157.226  150.262 i
 50.75  150.43  150.149 i
 50.8  154.861  150.037 i
 50.85  161.282  149.924 i
 50.9  159.4  149.813 i
 50.95  140.012  149.701 i
 51  156.608  149.59 i
 51.05  173.026  149.48 i
 51.1  144.075  149.37 i
 51.15  144.261  149.26 i
 51.2  156.081  149.15 i
 51.25  129.363  149.041 i
 51.3  154.459  148.933 i
 51.35  147.595  148.824 i
 51.4  134.694  148.717 i
 51.45  141.291  148.609 i
 51.5  164.938  148.502 i
 51.55  166.142  148.396 i
 51.6  166.163  148.289 i
 51.65  157.292  148.184 i
 51.7  139.113  148.078 i
 51.75  160.523  147.973 i
 51.8  169.266  147.869 i
 51.85  140.651  147.765 i
 51.9  145.669  147.661 i
 51.95  134.742  147.558 i
 52  141.938  147.455 i
 52.05  150.597  147.353 i
 52.1  160.123  147.251 i
 52.15  141.682  147.149 i
 52.2  133.819  147.048 i
 52.25  173.934  146.948 i
 52.3  138.622  146.848 i
 52.35  137.081  146.748 i
 52.4  141.535  146.648 i
 52.45  152.527  146.55 i
 52.5  141.188  146.451 i
 52.55  138.2  146.353 i
 52.6  144.158  146.256 i
 52.65  147.097  146.159 i
 52.7  166.629  146.062 i
 52.75  147.446  145.966 i
 52.8  158.222  145.87 i
 52.85  135.531  145.775 i
 52.9  152.86  145.68 i
 52.95  157.069  145.586 i
 53  136.738  145.492 i
 53.05  128.802  145.399 i
 53.1  164.333  145.306 i
 53.15  129.588  145.214 i
 53.2  152.299  145.122 i
 53.25  146.118  145.03 i
 53.3  169.28  144.939 i
 53.35  138.955  144.849 i
 53.4  129.721  144.759 i
 53.45  143.221  144.669 i
 53.5  111.79  144.58 i
 53.55  132.779  144.492 i
 53.6  138.068  144.404 i
 53.65  129.175  144.316 i
 53.7  141.421  144.229 i
 53.75  117.624  144.142 i
 53.8  146.752  144.056 i
 53.85  153.76  143.971 i
 53.9  133.44  143.886 i
 53.95  160.319  143.801 i
 54  119.284  143.717 i
 54.05  145.796  143.633 i
 54.1  140.204  143.55 i
 54.15  125.744  143.468 i
 54.2  129.359  143.386 i
 54.25  141.312  143.304 i
 54.3  137.071  143.223 i
 54.35  135.771  143.143 i
 54.4  160.367  143.063 i
 54.45  129.432  142.984 i
 54.5  127.609  142.905 i
 54.55  143.662  142.826 i
 54.6  149.617  142.749 i
 54.65  133.564  142.671 i
 54.7  148.658  142.594 i
 54.75  146.363  142.518 i
 54.8  164.502  142.443 i
 54.85  142.332  142.367 i
 54.9  133.045  142.293 i
 54.95  108.675  142.219 i
 55  146.249  142.145 i
 55.05  149.89  142.072 i
 55.1  136.911  142 i
 55.15  137.098  141.928 i
 55.2  144.022  141.857 i
 55.25  138.353  141.786 i
 55.3  135.703  141.716 i
 55.35  125.429  141.646 i
 55.4  131.297  141.576 i
 55.45  117.831  141.507 i
 55.5  161.488  141.438 i
 55.55  149.373  141.37 i
 55.6  146.878  141.302 i
 55.65  130.874  141.235 i
 55.7  145.621  141.167 i
 55.75  133.803  141.101 i
 55.8  136.584  141.034 i
 55.85  151.977  140.968 i
 55.9  148.818  140.903 i
 55.95  135.76  140.838 i
 56  138.863  140.773 i
 56.05  142.911  140.708 i
 56.1  139.315  140.644 i
 56.15  154.765  140.581 i
 56.2  132.512  140.517 i
 56.25  157.765  140.454 i
 56.3  147.582  140.392 i
 56.35  138.737  140.33 i
 56.4  127.742  140.268 i
 56.45  138.603  140.206 i
 56.5  160.985  140.145 i
 56.55  126.047  140.085 i
 56.6  143.969  140.024 i
 56.65  159.98  139.964 i
 56.7  143.111  139.905 i
 56.75  169.409  139.845 i
 56.8  122.698  139.786 i
 56.85  146.611  139.728 i
 56.9  136.06  139.67 i
 56.95  146.673  139.612 i
 57  144.565  139.554 i
 57.05  149.346  139.497 i
 57.1  144.488  139.441 i
 57.15  121.905  139.384 i
 57.2  137.581  139.328 i
 57.25  152.8  139.272 i
 57.3  156.632  139.217 i
 57.35  138.911  139.162 i
 57.4  117.992  139.107 i
 57.45  174.76  139.053 i
 57.5  131.642  138.999 i
 57.55  134.699  138.945 i
 57.6  133.108  138.892 i
 57.65  133.903  138.839 i
 57.7  138.878  138.786 i
 57.75  148.877  138.734 i
 57.8  143.331  138.682 i
 57.85  147.934  138.63 i
 57.9  138.246  138.579 i
 57.95  156.147  138.528 i
 58  136.795  138.477 i
 58.05  151.932  138.427 i
 58.1  146.087  138.377 i
 58.15  141.217  138.327 i
 58.2  123.919  138.277 i
 58.25  145.328  138.228 i
 58.3  132.395  138.179 i
 58.35  151.665  138.131 i
 58.4  114.712  138.083 i
 58.45  144.911  138.035 i
 58.5  140.67  137.987 i
 58.55  116.165  137.94 i
 58.6  162.776  137.893 i
 58.65  139.099  137.847 i
 58.7  143.777  137.8 i
 58.75  147.412  137.754 i
 58.8  133.387  137.709 i
 58.85  134.068  137.663 i
 58.9  128.193  137.618 i
 58.95  160.167  137.573 i
 59  127.334  137.529 i
 59.05  158.053  137.485 i
 59.1  148.504  137.441 i
 59.15  141.495  137.397 i
 59.2  125.451  137.354 i
 59.25  123.865  137.311 i
 59.3  129.139  137.268 i
 59.35  147.219  137.225 i
 59.4  130.991  137.183 i
 59.45  140.98  137.141 i
 59.5  154.159  137.1 i
 59.55  133.275  137.058 i
 59.6  148.353  137.017 i
 59.65  127.675  136.977 i
 59.7  130.399  136.936 i
 59.75  122.036  136.896 i
 59.8  127.933  136.856 i
 59.85  165.316  136.816 i
 59.9  141.343  136.777 i
 59.95  121.889  136.737 i
 60  130.694  136.699 i
 60.05  133.155  136.66 i
 60.1  115.74  136.622 i
 60.15  129.608  136.583 i
 60.2  133.758  136.546 i
 60.25  159.294  136.508 i
 60.3  145.565  136.471 i
 60.35  141.095  136.434 i
 60.4  130.41  136.397 i
 60.45  127.633  136.36 i
 60.5  135.261  136.324 i
 60.55  126.692  136.288 i
 60.6  149.626  136.252 i
 60.65  143.514  136.217 i
 60.7  140.864  136.181 i
 60.75  147.965  136.146 i
 60.8  134.897  136.111 i
 60.85  149.041  136.077 i
 60.9  146.712  136.042 i
 60.95  141.997  136.008 i
 61  147.209  135.975 i
 61.05  113.215  135.941 i
 61.1  132.392  135.907 i
 61.15  139.832  135.874 i
 61.2  110.485  135.841 i
 61.25  108.319  135.809 i
 61.3  121.415  135.776 i
 61.35  133.665  135.744 i
 61.4  144.534  135.712 i
 61.45  117.755  135.68 i
 61.5  146.72  135.649 i
 61.55  142.086  135.617 i
 61.6  136.697  135.586 i
 61.65  161.98  135.555 i
 61.7  150.207  135.525 i
 61.75  154.504  135.494 i
 61.8  147.166  135.464 i
 61.85  127.431  135.434 i
 61.9  118.468  135.404 i
 61.95  126.936  135.374 i
 62  150.328  135.345 i
 62.05  143.44  135.316 i
 62.1  140.595  135.287 i
 62.15  126.16  135.258 i
 62.2  135.475  135.23 i
 62.25  112.235  135.201 i
 62.3  132.694  135.173 i
 62.35  130.055  135.145 i
 62.4  134.513  135.117 i
 62.45  150.129  135.09 i
 62.5  156.664  135.062 i
 62.55  117.391  135.035 i
 62.6  137.853  135.008 i
 62.65  130.673  134.981 i
 62.7  151.825  134.955 i
 62.75  121.882  134.928 i
 62.8  137.621  134.902 i
 62.85  134.067  134.876 i
 62.9  123.89  134.85 i
 62.95  147.753  134.824 i
 63  150.435  134.799 i
 63.05  145.176  134.773 i
 63.1  129.993  134.748 i
 63.15  140.917  134.723 i
 63.2  135.706  134.698 i
 63.25  140.981  134.674 i
 63.3  128.881  134.649 i
 63.35  161.791  134.625 i
 63.4  137.571  134.601 i
 63.45  137.689  134.577 i
 63.5  138.402  134.553 i
 63.55  152.331  134.53 i
 63.6  167.585  134.506 i
 63.65  159.846  134.483 i
 63.7  145.936  134.46 i
 63.75  142.344  134.437 i
 63.8  152.448  134.414 i
 63.85  155.61  134.391 i
 63.9  145.888  134.369 i
 63.95  140.093  134.346 i
 64  176.069  134.324 i
 64.05  149.222  134.302 i
 64.1  145.91  134.28 i
 64.15  170.543  134.258 i
 64.2  194.905  134.237 i
 64.25  200.304  134.215 i
 64.3  213.124  134.194 i
 64.35  250.491  134.173 i
 64.4  254.563  134.152 i
 64.45  282.875  134.131 i
 64.5  318.929  134.11 i
 64.55  336.272  134.089 i
 64.6  311.435  134.069 i
 64.65  301.708  134.048 i
 64.7  271.391  134.028 i
 64.75  258.696  134.008 i
 64.8  249.793  133.988 i
 64.85  212.302  133.968 i
 64.9  188.732  133.948 i
 64.95  172.354  133.929 i
 65  160.782  133.909 i
 65.05  144.335  133.89 i
 65.1  134.75  133.871 i
 65.15  144.173  133.852 i
 65.2  165.476  133.832 i
 65.25  169.49  133.814 i
 65.3  159.262  133.795 i
 65.35  142.051  133.776 i
 65.4  157.93  133.758 i
 65.45  140.758  133.739 i
 65.5  123.429  133.721 i
 65.55  130.507  133.703 i
 65.6  132.07  133.684 i
 65.65  132.08  133.666 i
 65.7  132.093  133.648 i
 65.75  139.946  133.631 i
 65.8  131.525  133.613 i
 65.85  156.128  133.595 i
 65.9  150.393  133.578 i
 65.95  137.214  133.56 i
 66  148.402  133.543 i
 66.05  135.739  133.526 i
 66.1  142.008  133.509 i
 66.15  166.148  133.491 i
 66.2  142.545  133.474 i
 66.25  148.539  133.458 i
 66.3  129.027  133.441 i
 66.35  123.924  133.424 i
 66.4  132.81  133.407 i
 66.45  136.392  133.391 i
 66.5  151.954  133.374 i
 66.55  134.021  133.358 i
 66.6  131.954  133.342 i
 66.65  134.033  133.325 i
 66.7  127.021  133.309 i
 66.75  129.775  133.293 i
 66.8  143.628  133.277 i
 66.85  134.605  133.261 i
 66.9  125.722  133.245 i
 66.95  124.086  133.229 i
 67  140.278  133.213 i
 67.05  131.246  133.198 i
 67.1  126.527  133.182 i
 67.15  124.75  133.167 i
 67.2  134.255  133.151 i
 67.25  127.107  133.136 i
 67.3  121.54  133.12 i
 67.35  140.958  133.105 i
 67.4  140.692  133.089 i
 67.45  126.17  133.074 i
 67.5  132.399  133.059 i
 67.55  124.763  133.044 i
 67.6  140.264  133.029 i
 67.65  144.642  133.014 i
 67.7  139.351  132.999 i
 67.75  147.252  132.984 i
 67.8  141.024  132.969 i
 67.85  112.997  132.954 i
 67.9  124.531  132.939 i
 67.95  164.167  132.924 i
 68  135.054  132.909 i
 68.05  138.37  132.895 i
 68.1  138.187  132.88 i
 68.15  134.922  132.865 i
 68.2  129.972  132.851 i
 68.25  130.591  132.836 i
 68.3  149.558  132.821 i
 68.35  128.743  132.807 i
 68.4  142.881  132.792 i
 68.45  130.821  132.778 i
 68.5  119.886  132.763 i
 68.55  142.968  132.749 i
 68.6  128.732  132.734 i
 68.65  118.999  132.72 i
 68.7  142.275  132.705 i
 68.75  151.193  132.691 i
 68.8  125.861  132.676 i
 68.85  123.214  132.662 i
 68.9  139.251  132.648 i
 68.95  133.37  132.633 i
 69  142.802  132.619 i
 69.05  124.92  132.605 i
 69.1  121.07  132.59 i
 69.15  139.927  132.576 i
 69.2  130.803  132.561 i
 69.25  144.982  132.547 i
 69.3  152.421  132.533 i
 69.35  137.129  132.518 i
 69.4  119.713  132.504 i
 69.45  149.135  132.49 i
 69.5  141.137  132.475 i
 69.55  126.099  132.461 i
 69.6  112.172  132.446 i
 69.65  127.257  132.432 i
 69.7  127.807  132.418 i
 69.75  115.583  132.403 i
 69.8  124.138  132.389 i
 69.85  118.519  132.374 i
 69.9  125.849  132.36 i
 69.95  106.326  132.345 i
 70  123.143  132.331 i
 70.05  136.209  132.316 i
 70.1  135.016  132.302 i
 70.15  131.595  132.287 i
 70.2  130.842  132.272 i
 70.25  123.635  132.258 i
 70.3  132.682  132.243 i
 70.35  131.019  132.228 i
 70.4  139.928  132.213 i
 70.45  132.479  132.199 i
 70.5  127.489  132.184 i
 70.55  150.844  132.169 i
 70.6  129.542  132.154 i
 70.65  128.65  132.139 i
 70.7  128.045  132.124 i
 70.75  129.69  132.109 i
 70.8  127.525  132.094 i
 70.85  127.651  132.079 i
 70.9  128.528  132.064 i
 70.95  123.199  132.048 i
 71  134.275  132.033 i
 71.05  142.462  132.018 i
 71.1  139.641  132.002 i
 71.15  132.218  131.987 i
 71.2  123.7  131.972 i
 71.25  127.206  131.956 i
 71.3  138.868  131.94 i
 71.35  138.688  131.925 i
 71.4  137.94  131.909 i
 71.45  127.499  131.893 i
 71.5  142.456  131.877 i
 71.55  120.505  131.861 i
 71.6  134.233  131.845 i
 71.65  150.942  131.829 i
 71.7  150.44  131.813 i
 71.75  137.96  131.797 i
 71.8  123.632  131.781 i
 71.85  116.607  131.764 i
 71.9  135.087  131.748 i
 71.95  133.859  131.731 i
 72  137.794  131.715 i
 72.05  117.018  131.698 i
 72.1  145.807  131.681 i
 72.15  136.47  131.664 i
 72.2  139.387  131.647 i
 72.25  144.41  131.63 i
 72.3  133.949  131.613 i
 72.35  137.225  131.596 i
 72.4  138.649  131.579 i
 72.45  134.269  131.562 i
 72.5  138.851  131.544 i
 72.55  120.939  131.526 i
 72.6  129.145  131.509 i
 72.65  135.789  131.491 i
 72.7  107.555  131.473 i
 72.75  145.057  131.455 i
 72.8  129.219  131.437 i
 72.85  132.972  131.419 i
 72.9  138.421  131.401 i
 72.95  129.566  131.382 i
 73  130.182  131.364 i
 73.05  122.967  131.345 i
 73.1  122.447  131.326 i
 73.15  126.624  131.308 i
 73.2  154.451  131.289 i
 73.25  119.689  131.27 i
 73.3  148.937  131.25 i
 73.35  136.79  131.231 i
 73.4  136.85  131.212 i
 73.45  136.404  131.192 i
 73.5  136.605  131.173 i
 73.55  118.314  131.153 i
 73.6  140.143  131.134 i
 73.65  150.868  131.115 i
 73.7  129.099  131.096 i
 73.75  130.236  131.077 i
 73.8  114.761  131.058 i
 73.85  127.517  131.039 i
 73.9  138.083  131.021 i
 73.95  137.654  131.002 i
 74  146.239  130.984 i
 74.05  126.743  130.966 i
 74.1  122.882  130.947 i
 74.15  115.668  130.929 i
 74.2  129.288  130.911 i
 74.25  118.21  130.893 i
 74.3  130.557  130.876 i
 74.35  154.514  130.858 i
 74.4  121.57  130.84 i
 74.45  159.462  130.823 i
 74.5  128.303  130.805 i
 74.55  116.116  130.788 i
 74.6  135.746  130.771 i
 74.65  112.33  130.754 i
 74.7  150.017  130.737 i
 74.75  155.151  130.72 i
 74.8  136.718  130.703 i
 74.85  135.746  130.686 i
 74.9  134.51  130.669 i
 74.95  138.573  130.653 i
 75  131.769  130.636 i
 75.05  127.471  130.62 i
 75.1  142.018  130.604 i
 75.15  132.182  130.588 i
 75.2  137.546  130.571 i
 75.25  125.222  130.555 i
 75.3  140.924  130.54 i
 75.35  150.199  130.524 i
 75.4  143.545  130.508 i
 75.45  139.315  130.492 i
 75.5  120.683  130.477 i
 75.55  130.729  130.461 i
 75.6  130.312  130.446 i
 75.65  125.074  130.431 i
 75.7  121.735  130.416 i
 75.75  122.334  130.4 i
 75.8  140.989  130.385 i
 75.85  129.27  130.371 i
 75.9  131.948  130.356 i
 75.95  131.81  130.341 i
 76  141.13  130.326 i
 76.05  121.136  130.312 i
 76.1  116.955  130.297 i
 76.15  135.563  130.283 i
 76.2  129.296  130.268 i
 76.25  155.505  130.254 i
 76.3  136.279  130.24 i
 76.35  110.343  130.226 i
 76.4  138.967  130.212 i
 76.45  115.91  130.198 i
 76.5  149.338  130.184 i
 76.55  162.944  130.17 i
 76.6  141.884  130.157 i
 76.65  143.668  130.143 i
 76.7  119.54  130.13 i
 76.75  128.556  130.116 i
 76.8  130.502  130.103 i
 76.85  131.544  130.09 i
 76.9  123.296  130.076 i
 76.95  127.06  130.063 i
 77  142.151  130.05 i
 77.05  152.559  130.037 i
 77.1  120.835  130.024 i
 77.15  139.119  130.012 i
 77.2  127.498  129.999 i
 77.25  125.391  129.986 i
 77.3  136.581  129.974 i
 77.35  114.375  129.961 i
 77.4  137.717  129.949 i
 77.45  124.816  129.936 i
 77.5  142.006  129.924 i
 77.55  154.535  129.912 i
 77.6  155.435  129.9 i
 77.65  109.804  129.888 i
 77.7  114.401  129.876 i
 77.75  119.272  129.864 i
 77.8  127.386  129.852 i
 77.85  120.969  129.84 i
 77.9  130.926  129.828 i
 77.95  133.394  129.817 i
 78  142.661  129.805 i
 78.05  139.288  129.794 i
 78.1  128.608  129.782 i
 78.15  120.366  129.771 i
 78.2  135.287  129.76 i
 78.25  127.601  129.748 i
 78.3  139.112  129.737 i
 78.35  138.935  129.726 i
 78.4  116.538  129.715 i
 78.45  125.654  129.704 i
 78.5  132.596  129.693 i
 78.55  131.653  129.682 i
 78.6  131.874  129.672 i
 78.65  118.6  129.661 i
 78.7  139.613  129.65 i
 78.75  129.376  129.64 i
 78.8  116.767  129.629 i
 78.85  119.829  129.619 i
 78.9  133.188  129.608 i
 78.95  123.507  129.598 i
 79  137.903  129.588 i
 79.05  121.987  129.577 i
 79.1  128.353  129.567 i
 79.15  116.869  129.557 i
 79.2  133.749  129.547 i
 79.25  149.604  129.537 i
 79.3  133.364  129.527 i
 79.35  131.669  129.517 i
 79.4  142.192  129.508 i
 79.45  138.364  129.498 i
 79.5  126.628  129.488 i
 79.55  139.195  129.478 i
 79.6  125.105  129.469 i
 79.65  128.057  129.459 i
 79.7  144.08  129.45 i
 79.75  133.953  129.441 i
 79.8  137.69  129.431 i
 79.85  143.666  129.422 i
 79.9  159.849  129.413 i
 79.95  123.915  129.403 i
 80  152.193  129.394 i
 80.05  137.077  129.385 i
 80.1  143.741  129.376 i
 80.15  144.03  129.367 i
 80.2  155.648  129.358 i
 80.25  145.382  129.349 i
 80.3  140.302  129.341 i
 80.35  159.257  129.332 i
 80.4  128.23  129.323 i
 80.45  138.419  129.314 i
 80.5  140.467  129.306 i
 80.55  142.34  129.297 i
 80.6  134.627  129.289 i
 80.65  135.504  129.28 i
 80.7  129.304  129.272 i
 80.75  132.023  129.263 i
 80.8  154.706  129.255 i
 80.85  152.279  129.247 i
 80.9  150.291  129.238 i
 80.95  136.84  129.23 i
 81  175.103  129.222 i
 81.05  139.692  129.214 i
 81.1  160.815  129.206 i
 81.15  162.767  129.198 i
 81.2  152.795  129.19 i
 81.25  188.166  129.182 i
 81.3  175.424  129.174 i
 81.35  212.538  129.166 i
 81.4  218.565  129.158 i
 81.45  238.996  129.15 i
 81.5  264.518  129.143 i
 81.55  279.507  129.135 i
 81.6  324.914  129.127 i
 81.65  388.922  129.12 i
 81.7  424.553  129.112 i
 81.75  504.993  129.105 i
 81.8  533.734  129.097 i
 81.85  652.745  129.09 i
 81.9  670.149  129.082 i
 81.95  635.028  129.075 i
 82  582.256  129.067 i
 82.05  482.887  129.06 i
 82.1  449.96  129.053 i
 82.15  385.954  129.046 i
 82.2  311.136  129.038 i
 82.25  279.265  129.031 i
 82.3  247.602  129.024 i
 82.35  217.364  129.017 i
 82.4  191.918  129.01 i
 82.45  194.722  129.003 i
 82.5  182.479  128.996 i
 82.55  130.077  128.989 i
 82.6  164.728  128.982 i
 82.65  162.244  128.975 i
 82.7  147.185  128.968 i
 82.75  136.577  128.961 i
 82.8  144.168  128.954 i
 82.85  170.011  128.947 i
 82.9  164.409  128.941 i
 82.95  137.488  128.934 i
 83  145.237  128.927 i
 83.05  143.203  128.921 i
 83.1  136.16  128.914 i
 83.15  115.109  128.907 i
 83.2  123.505  128.901 i
 83.25  135.684  128.894 i
 83.3  126.589  128.887 i
 83.35  123.555  128.881 i
 83.4  111.768  128.874 i
 83.45  121.475  128.868 i
 83.5  124.644  128.861 i
 83.55  115.416  128.855 i
 83.6  143.237  128.849 i
 83.65  138.036  128.842 i
 83.7  133.989  128.836 i
 83.75  140.284  128.83 i
 83.8  116.617  128.823 i
 83.85  160.906  128.817 i
 83.9  152.215  128.811 i
 83.95  118.864  128.804 i
 84  136.13  128.798 i
 84.05  116.751  128.792 i
 84.1  135.4  128.786 i
 84.15  123.788  128.78 i
 84.2  142.281  128.773 i
 84.25  133.06  128.767 i
 84.3  137.765  128.761 i
 84.35  116.468  128.755 i
 84.4  128.107  128.749 i
 84.45  128.622  128.743 i
 84.5  110.476  128.737 i
 84.55  150.78  128.731 i
 84.6  130.439  128.725 i
 84.65  153.633  128.719 i
 84.7  142.728  128.713 i
 84.75  147.98  128.707 i
 84.8  116.779  128.701 i
 84.85  121.938  128.695 i
 84.9  138.401  128.689 i
 84.95  171.075  128.683 i
 85  127.942  128.677 i
 85.05  138.862  128.671 i
 85.1  145.414  128.665 i
 85.15  118.886  128.659 i
 85.2  136.866  128.653 i
 85.25  129.692  128.648 i
 85.3  152.525  128.642 i
 85.35  125.369  128.636 i
 85.4  135.72  128.63 i
 85.45  130.575  128.624 i
 85.5  119.145  128.618 i
 85.55  123.686  128.613 i
 85.6  138.322  128.607 i
 85.65  126.373  128.601 i
 85.7  114.878  128.595 i
 85.75  135.492  128.589 i
 85.8  115.153  128.584 i
 85.85  120.982  128.578 i
 85.9  127.753  128.572 i
 85.95  131.083  128.566 i
 86  123.236  128.56 i
 86.05  120.956  128.555 i
 86.1  140.451  128.549 i
 86.15  144.448  128.543 i
 86.2  133.198  128.537 i
 86.25  123.345  128.532 i
 86.3  149.622  128.526 i
 86.35  129.05  128.52 i
 86.4  135.76  128.514 i
 86.45  148.937  128.509 i
 86.5  139.392  128.503 i
 86.55  130.406  128.497 i
 86.6  135.956  128.491 i
 86.65  124.442  128.486 i
 86.7  122.85  128.48 i
 86.75  114.648  128.474 i
 86.8  141.238  128.468 i
 86.85  119.294  128.462 i
 86.9  137.344  128.457 i
 86.95  124.284  128.451 i
 87  138.325  128.445 i
 87.05  121.323  128.439 i
 87.1  133.143  128.434 i
 87.15  124.051  128.428 i
 87.2  124.186  128.422 i
 87.25  122.07  128.416 i
 87.3  127.326  128.41 i
 87.35  111.962  128.404 i
 87.4  142.633  128.399 i
 87.45  121.647  128.393 i
 87.5  129.759  128.387 i
 87.55  132.608  128.381 i
 87.6  123.205  128.375 i
 87.65  152.72  128.369 i
 87.7  134.589  128.363 i
 87.75  137.558  128.357 i
 87.8  108.389  128.352 i
 87.85  141.036  128.346 i
 87.9  137.482  128.34 i
 87.95  121.665  128.334 i
 88  125.023  128.328 i
 88.05  143.849  128.322 i
 88.1  124.52  128.316 i
 88.15  141.245  128.31 i
 88.2  121.796  128.304 i
 88.25  124.737  128.298 i
 88.3  117.99  128.292 i
 88.35  117.792  128.286 i
 88.4  108.528  128.28 i
 88.45  141.548  128.273 i
 88.5  119.089  128.267 i
 88.55  106.357  128.261 i
 88.6  128.851  128.255 i
 88.65  120.303  128.249 i
 88.7  144.032  128.243 i
 88.75  123.105  128.237 i
 88.8  141.434  128.23 i
 88.85  125.446  128.224 i
 88.9  127.805  128.218 i
 88.95  120.243  128.212 i
 89  155.11  128.205 i
 89.05  153.651  128.199 i
 89.1  140.641  128.193 i
 89.15  132.616  128.186 i
 89.2  131.994  128.18 i
 89.25  126.419  128.173 i
 89.3  127.63  128.167 i
 89.35  134.654  128.16 i
 89.4  149.611  128.154 i
 89.45  138.529  128.147 i
 89.5  111.819  128.141 i
 89.55  154.823  128.134 i
 89.6  125.2  128.128 i
 89.65  114.657  128.121 i
 89.7  118.146  128.115 i
 89.75  155.635  128.108 i
 89.8  121.821  128.101 i
 89.85  116.154  128.094 i
 89.9  135.528  128.088 i
 89.95  162.912  128.081 i
 90  135.656  128.074 i
 90.05  129.637  128.067 i
 90.1  116.6  128.06 i
 90.15  142.192  128.053 i
 90.2  145.966  128.047 i
 90.25  144.28  128.04 i
 90.3  132.051  128.033 i
 90.35  135.676  128.026 i
 90.4  143.251  128.019 i
 90.45  145.018  128.011 i
 90.5  127.566  128.004 i
 90.55  142.61  127.997 i
 90.6  153.595  127.99 i
 90.65  135.037  127.983 i
 90.7  115.74  127.976 i
 90.75  135.142  127.969 i
 90.8  123.028  127.962 i
 90.85  126.915  127.955 i
 90.9  149.056  127.948 i
 90.95  139.686  127.941 i
 91  138.668  127.934 i
 91.05  123.338  127.927 i
 91.1  121.751  127.92 i
 91.15  131.357  127.913 i
 91.2  138.893  127.906 i
 91.25  137.211  127.9 i
 91.3  120.471  127.893 i
 91.35  142.416  127.886 i
 91.4  137.556  127.879 i
 91.45  134.859  127.873 i
 91.5  131.874  127.866 i
 91.55  122.142  127.859 i
 91.6  125.785  127.853 i
 91.65  114.835  127.846 i
 91.7  147.882  127.84 i
 91.75  130.44  127.833 i
 91.8  121.445  127.826 i
 91.85  126.949  127.82 i
 91.9  129.942  127.813 i
 91.95  142.857  127.807 i
 92  116.698  127.801 i
 92.05  141.415  127.794 i
 92.1  137.017  127.788 i
 92.15  129.465  127.781 i
 92.2  122.948  127.775 i
 92.25  141.457  127.769 i
 92.3  144.198  127.762 i
 92.35  111.691  127.756 i
 92.4  125.452  127.75 i
 92.45  126.593  127.744 i
 92.5  124.551  127.738 i
 92.55  126.371  127.731 i
 92.6  133.814  127.725 i
 92.65  98.7531  127.719 i
 92.7  113.329  127.713 i
 92.75  125.115  127.707 i
 92.8  139.936  127.701 i
 92.85  123.257  127.695 i
 92.9  133.009  127.689 i
 92.95  142.411  127.683 i
 93  132.658  127.677 i
 93.05  130.851  127.671 i
 93.1  149.676  127.665 i
 93.15  124.351  127.659 i
 93.2  138.378  127.653 i
 93.25  119.562  127.647 i
 93.3  139.679  127.641 i
 93.35  132.785  127.635 i
 93.4  124.951  127.63 i
 93.45  138.545  127.624 i
 93.5  125.877  127.618 i
 93.55  143.725  127.612 i
 93.6  116.731  127.607 i
 93.65  140.056  127.601 i
 93.7  141.86  127.595 i
 93.75  127.179  127.589 i
 93.8  125.851  127.584 i
 93.85  129.333  127.578 i
 93.9  126.61  127.572 i
 93.95  109.026  127.567 i
 94  125.135  127.561 i
 94.05  117.155  127.556 i
 94.1  116.183  127.55 i
 94.15  141.129  127.545 i
 94.2  135.668  127.539 i
 94.25  132.428  127.534 i
 94.3  135.575  127.528 i
 94.35  113.689  127.523 i
 94.4  122.473  127.517 i
 94.45  139.144  127.512 i
 94.5  147.611  127.506 i
 94.55  112.775  127.501 i
 94.6  115.045  127.496 i
 94.65  121.024  127.49 i
 94.7  127.21  127.485 i
 94.75  132.084  127.48 i
 94.8  127.928  127.474 i
 94.85  128.519  127.469 i
 94.9  137.893  127.464 i
 94.95  123.953  127.459 i
 95  142.561  127.453 i
 95.05  140.531  127.448 i
 95.1  130.615  127.443 i
 95.15  141.678  127.438 i
 95.2  118.803  127.433 i
 95.25  117.407  127.427 i
 95.3  143.124  127.422 i
 95.35  137.678  127.417 i
 95.4  108.079  127.412 i
 95.45  133.723  127.407 i
 95.5  119.154  127.402 i
 95.55  132.516  127.397 i
 95.6  140.915  127.392 i
 95.65  158.061  127.387 i
 95.7  129.475  127.382 i
 95.75  149.895  127.377 i
 95.8  132.581  127.372 i
 95.85  143.153  127.367 i
 95.9  138.237  127.362 i
 95.95  131.569  127.357 i
 96  138.119  127.352 i
 96.05  128.945  127.347 i
 96.1  126.996  127.342 i
 96.15  124.938  127.337 i
 96.2  127.658  127.332 i
 96.25  143.293  127.327 i
 96.3  134.769  127.323 i
 96.35  129.756  127.318 i
 96.4  127.484  127.313 i
 96.45  138.919  127.308 i
 96.5  133.557  127.303 i
 96.55  129.81  127.299 i
 96.6  125.064  127.294 i
 96.65  139.742  127.289 i
 96.7  120.156  127.284 i
 96.75  139.875  127.28 i
 96.8  99.2946  127.275 i
 96.85  133.248  127.27 i
 96.9  132.686  127.265 i
 96.95  139.925  127.261 i
 97  116.287  127.256 i
 97.05  143.067  127.251 i
 97.1  120.914  127.247 i
 97.15  154.745  127.242 i
 97.2  153.799  127.238 i
 97.25  145.984  127.233 i
 97.3  137.129  127.228 i
 97.35  161.672  127.224 i
 97.4  139.812  127.219 i
 97.45  129.434  127.215 i
 97.5  147.072  127.21 i
 97.55  155.033  127.205 i
 97.6  155.745  127.201 i
 97.65  150.096  127.196 i
 97.7  160.417  127.192 i
 97.75  152.862  127.187 i
 97.8  157.635  127.183 i
 97.85  180.254  127.178 i
 97.9  185.009  127.174 i
 97.95  143.725  127.169 i
 98  184.469  127.165 i
 98.05  217.705  127.16 i
 98.1  246.366  127.156 i
 98.15  279.833  127.152 i
 98.2  299.68  127.147 i
 98.25  335.803  127.143 i
 98.3  370.751  127.138 i
 98.35  355.357  127.134 i
 98.4  366.628  127.129 i
 98.45  366.595  127.125 i
 98.5  353.147  127.121 i
 98.55  309.305  127.116 i
 98.6  255.257  127.112 i
 98.65  252.417  127.108 i
 98.7  234.992  127.103 i
 98.75  208.089  127.099 i
 98.8  202.599  127.095 i
 98.85  164.503  127.09 i
 98.9  187.877  127.086 i
 98.95  161.284  127.082 i
 99  161.819  127.077 i
 99.05  164.822  127.073 i
 99.1  149.728  127.069 i
 99.15  165.338  127.064 i
 99.2  151.698  127.06 i
 99.25  137.186  127.056 i
 99.3  144.107  127.052 i
 99.35  120.517  127.047 i
 99.4  133.237  127.043 i
 99.45  150.217  127.039 i
 99.5  117.87  127.035 i
 99.55  128  127.03 i
 99.6  112.331  127.026 i
 99.65  111.161  127.022 i
 99.7  133.404  127.018 i
 99.75  150.125  127.013 i
 99.8  115.357  127.009 i
 99.85  120.625  127.005 i
 99.9  124.779  127.001 i
 99.95  152.619  126.997 i
 100  123.297  126.992 i
 100.05  121.103  126.988 i
 100.1  139.773  126.984 i
 100.15  118.91  126.98 i
 100.2  125.507  126.976 i
 100.25  142.392  126.972 i
 100.3  135.2  126.967 i
 100.35  141.598  126.963 i
 100.4  95.9626  126.959 i
 100.45  117.021  126.955 i
 100.5  125.648  126.951 i
 100.55  115.206  126.947 i
 100.6  146.476  126.942 i
 100.65  129.296  126.938 i
 100.7  151.034  126.934 i
 100.75  125.738  126.93 i
 100.8  142.983  126.926 i
 100.85  131.228  126.922 i
 100.9  127.563  126.918 i
 100.95  124.117  126.914 i
 101  133.779  126.909 i
 101.05  136.971  126.905 i
 101.1  117.8  126.901 i
 101.15  126.495  126.897 i
 101.2  147.616  126.893 i
 101.25  130.782  126.889 i
 101.3  151.55  126.885 i
 101.35  130.689  126.881 i
 101.4  156.893  126.876 i
 101.45  142.621  126.872 i
 101.5  128.324  126.868 i
 101.55  134.669  126.864 i
 101.6  137.109  126.86 i
 101.65  113.118  126.856 i
 101.7  125.527  126.852 i
 101.75  131.579  126.848 i
 101.8  119.665  126.844 i
 101.85  142.984  126.839 i
 101.9  124.997  126.835 i
 101.95  122.194  126.831 i
 102  132.338  126.827 i
 102.05  128.459  126.823 i
 102.1  143.801  126.819 i
 102.15  137.01  126.815 i
 102.2  105.575  126.811 i
 102.25  123.711  126.807 i
 102.3  109.283  126.802 i
 102.35  146.591  126.798 i
 102.4  137.433  126.794 i
 102.45  143.387  126.79 i
 102.5  144.974  126.786 i
 102.55  110.67  126.782 i
 102.6  116.54  126.778 i
 102.65  134.523  126.774 i
 102.7  133.169  126.769 i
 102.75  121.235  126.765 i
 102.8  129.872  126.761 i
 102.85  136.014  126.757 i
 102.9  130.618  126.753 i
 102.95  127.618  126.749 i
 103  113.701  126.745 i
 103.05  138.094  126.741 i
 103.1  132.527  126.736 i
 103.15  144.166  126.732 i
 103.2  138.209  126.728 i
 103.25  110.859  126.724 i
 103.3  111.88  126.72 i
 103.35  132.134  126.716 i
 103.4  121.675  126.711 i
 103.45  136.508  126.707 i
 103.5  132.013  126.703 i
 103.55  138.066  126.699 i
 103.6  129.213  126.695 i
 103.65  129.57  126.691 i
 103.7  127.462  126.686 i
 103.75  130.92  126.682 i
 103.8  127.459  126.678 i
 103.85  131.44  126.674 i
 103.9  128.217  126.67 i
 103.95  127.876  126.665 i
 104  131.776  126.661 i
 104.05  128.68  126.657 i
 104.1  129.254  126.653 i
 104.15  124.432  126.648 i
 104.2  129.878  126.644 i
 104.25  124.138  126.64 i
 104.3  130.586  126.636 i
 104.35  128.403  126.631 i
 104.4  117.116  126.627 i
 104.45  115.265  126.623 i
 104.5  137.174  126.619 i
 104.55  107.484  126.614 i
 104.6  128.297  126.61 i
 104.65  127.717  126.606 i
 104.7  134.196  126.601 i
 104.75  107.503  126.597 i
 104.8  131.118  126.593 i
 104.85  131.046  126.589 i
 104.9  151.258  126.584 i
 104.95  131.667  126.58 i
 105  126.588  126.576 i
 105.05  130.486  126.571 i
 105.1  125.989  126.567 i
 105.15  132.633  126.562 i
 105.2  115.917  126.558 i
 105.25  130.572  126.554 i
 105.3  139.893  126.549 i
 105.35  134.247  126.545 i
 105.4  118.394  126.54 i
 105.45  122.294  126.536 i
 105.5  110.333  126.532 i
 105.55  114.743  126.527 i
 105.6  112.357  126.523 i
 105.65  126.122  126.518 i
 105.7  152.564  126.514 i
 105.75  130.395  126.509 i
 105.8  116.329  126.505 i
 105.85  111.353  126.5 i
 105.9  122.791  126.496 i
 105.95  121.511  126.491 i
 106  127.918  126.487 i
 106.05  138.329  126.482 i
 106.1  129.197  126.478 i
 106.15  124.876  126.473 i
 106.2  135.617  126.469 i
 106.25  132.834  126.464 i
 106.3  117.543  126.46 i
 106.35  135.211  126.455 i
 106.4  117.717  126.45 i
 106.45  132.195  126.446 i
 106.5  107.476  126.441 i
 106.55  138.726  126.437 i
 106.6  124.24  126.432 i
 106.65  113.361  126.427 i
 106.7  121.298  126.423 i
 106.75  116.493  126.418 i
 106.8  144.502  126.413 i
 106.85  138.31  126.408 i
 106.9  147.292  126.404 i
 106.95  121.305  126.399 i
 107  142.307  126.394 i
 107.05  122.471  126.39 i
 107.1  125.54  126.385 i
 107.15  109.221  126.38 i
 107.2  120.71  126.375 i
 107.25  124.296  126.371 i
 107.3  108.571  126.366 i
 107.35  130.588  126.361 i
 107.4  121.789  126.357 i
 107.45  123.911  126.352 i
 107.5  130.166  126.347 i
 107.55  110.488  126.342 i
 107.6  113.408  126.338 i
 107.65  109.453  126.333 i
 107.7  118.331  126.328 i
 107.75  120.553  126.324 i
 107.8  120.618  126.319 i
 107.85  129.413  126.314 i
 107.9  118.115  126.309 i
 107.95  125.642  126.305 i
 108  114.876  126.3 i
 108.05  112.038  126.295 i
 108.1  149.848  126.291 i
 108.15  126.813  126.286 i
 108.2  134.925  126.281 i
 108.25  119.637  126.276 i
 108.3  129.698  126.272 i
 108.35  121.419  126.267 i
 108.4  109.917  126.262 i
 108.45  127.255  126.258 i
 108.5  135.126  126.253 i
 108.55  134.37  126.248 i
 108.6  137.306  126.244 i
 108.65  144.62  126.239 i
 108.7  130.788  126.234 i
 108.75  133.971  126.23 i
 108.8  109.843  126.225 i
 108.85  118.692  126.22 i
 108.9  117.103  126.215 i
 108.95  131.376  126.211 i
 109  138.508  126.206 i
 109.05  112.605  126.201 i
 109.1  132.456  126.197 i
 109.15  135.529  126.192 i
 109.2  110.061  126.187 i
 109.25  147.015  126.183 i
 109.3  121.499  126.178 i
 109.35  127.685  126.173 i
 109.4  117.814  126.169 i
 109.45  133.194  126.164 i
 109.5  126.08  126.159 i
 109.55  132.843  126.155 i
 109.6  132.645  126.15 i
 109.65  134.748  126.145 i
 109.7  120.327  126.141 i
 109.75  136.822  126.136 i
 109.8  127.332  126.131 i
 109.85  122.079  126.127 i
 109.9  132.198  126.122 i
 109.95  121.343  126.117 i
 110  137.57  126.113 i
 110.05  126.572  126.108 i
 110.1  137.308  126.103 i
 110.15  128.964  126.099 i
 110.2  147.407  126.094 i
 110.25  127.588  126.089 i
 110.3  109.986  126.085 i
 110.35  109.734  126.08 i
 110.4  135.888  126.075 i
 110.45  127.729  126.071 i
 110.5  121.214  126.066 i
 110.55  125.372  126.061 i
 110.6  131.99  126.057 i
 110.65  146.111  126.052 i
 110.7  113.453  126.047 i
 110.75  128.101  126.043 i
 110.8  102.862  126.038 i
 110.85  145.565  126.033 i
 110.9  139.922  126.029 i
 110.95  132.146  126.024 i
 111  136.803  126.02 i
 111.05  113.223  126.015 i
 111.1  143.017  126.01 i
 111.15  115.999  126.006 i
 111.2  117.002  126.001 i
 111.25  113.682  125.996 i
 111.3  132.384  125.992 i
 111.35  142.196  125.987 i
 111.4  115.439  125.982 i
 111.45  131.135  125.978 i
 111.5  133.918  125.973 i
 111.55  128.645  125.969 i
 111.6  133.625  125.964 i
 111.65  145.628  125.959 i
 111.7  131.343  125.955 i
 111.75  130.727  125.95 i
 111.8  136.03  125.945 i
 111.85  161.079  125.941 i
 111.9  113.317  125.936 i
 111.95  127.085  125.931 i
 112  121.478  125.927 i
 112.05  142.361  125.922 i
 112.1  147.357  125.918 i
 112.15  129.539  125.913 i
 112.2  135.503  125.908 i
 112.25  127.696  125.904 i
 112.3  124.253  125.899 i
 112.35  135.006  125.894 i
 112.4  132.952  125.89 i
 112.45  111.264  125.885 i
 112.5  121.356  125.881 i
 112.55  123.717  125.876 i
 112.6  127.053  125.871 i
 112.65  125.178  125.867 i
 112.7  137.502  125.862 i
 112.75  134.078  125.858 i
 112.8  115.193  125.853 i
 112.85  122.07  125.848 i
 112.9  135.721  125.844 i
 112.95  128.729  125.839 i
 113  111.785  125.834 i
 113.05  139.281  125.83 i
 113.1  146.858  125.825 i
 113.15  110.541  125.821 i
 113.2  102.575  125.816 i
 113.25  122.248  125.811 i
 113.3  121.758  125.807 i
 113.35  125.844  125.802 i
 113.4  134.374  125.798 i
 113.45  147.02  125.793 i
 113.5  143.993  125.788 i
 113.55  160.02  125.784 i
 113.6  144.012  125.779 i
 113.65  140.1  125.775 i
 113.7  143.749  125.77 i
 113.75  144.559  125.765 i
 113.8  139.054  125.761 i
 113.85  128.921  125.756 i
 113.9  126.927  125.752 i
 113.95  124.318  125.747 i
 114  127.031  125.742 i
 114.05  137.479  125.738 i
 114.1  133.023  125.733 i
 114.15  135.078  125.729 i
 114.2  136.78  125.724 i
 114.25  123.05  125.719 i
 114.3  154.657  125.715 i
 114.35  144.137  125.71 i
 114.4  154.335  125.706 i
 114.45  147.189  125.701 i
 114.5  157.937  125.696 i
 114.55  170.717  125.692 i
 114.6  169.88  125.687 i
 114.65  184.657  125.683 i
 114.7  166.111  125.678 i
 114.75  162.001  125.673 i
 114.8  192.804  125.669 i
 114.85  163.676  125.664 i
 114.9  170.021  125.66 i
 114.95  200.729  125.655 i
 115  190.521  125.651 i
 115.05  212.547  125.646 i
 115.1  206.985  125.641 i
 115.15  247.923  125.637 i
 115.2  235.85  125.632 i
 115.25  234.825  125.628 i
 115.3  243.464  125.623 i
 115.35  248.585  125.619 i
 115.4  244.504  125.614 i
 115.45  257.191  125.609 i
 115.5  240.162  125.605 i
 115.55  295.206  125.6 i
 115.6  212.501  125.596 i
 115.65  240.855  125.591 i
 115.7  234.68  125.586 i
 115.75  189.982  125.582 i
 115.8  203.964  125.577 i
 115.85  184.057  125.573 i
 115.9  205.053  125.568 i
 115.95  178.126  125.564 i
 116  175.419  125.559 i
 116.05  184.262  125.554 i
 116.1  184.231  125.55 i
 116.15  164.747  125.545 i
 116.2  165.95  125.541 i
 116.25  163.476  125.536 i
 116.3  163.322  125.532 i
 116.35  156.942  125.527 i
 116.4  139.688  125.522 i
 116.45  147.666  125.518 i
 116.5  152.403  125.513 i
 116.55  137.395  125.509 i
 116.6  132.965  125.504 i
 116.65  138.032  125.5 i
 116.7  121.293  125.495 i
 116.75  142.925  125.491 i
 116.8  135.474  125.486 i
 116.85  148.575  125.481 i
 116.9  142.896  125.477 i
 116.95  144.762  125.472 i
 117  147.912  125.468 i
 117.05  137.322  125.463 i
 117.1  151.265  125.459 i
 117.15  118.46  125.454 i
 117.2  143.927  125.449 i
 117.25  135.142  125.445 i
 117.3  124.579  125.44 i
 117.35  145.331  125.436 i
 117.4  143.957  125.431 i
 117.45  143.033  125.427 i
 117.5  123.784  125.422 i
 117.55  118.112  125.418 i
 117.6  125.59  125.413 i
 117.65  130.81  125.408 i
 117.7  119.367  125.404 i
 117.75  129.292  125.399 i
 117.8  145.816  125.395 i
 117.85  137.731  125.39 i
 117.9  130.778  125.386 i
 117.95  134.698  125.381 i
 118  127.357  125.377 i
 118.05  140.739  125.372 i
 118.1  130.516  125.367 i
 118.15  143.331  125.363 i
 118.2  128.757  125.358 i
 118.25  119.887  125.354 i
 118.3  146.029  125.349 i
 118.35  127.372  125.345 i
 118.4  134.147  125.34 i
 118.45  117.515  125.336 i
 118.5  130.532  125.331 i
 118.55  130.865  125.327 i
 118.6  122.099  125.322 i
 118.65  120.183  125.317 i
 118.7  111.401  125.313 i
 118.75  108.385  125.308 i
 118.8  133.592  125.304 i
 118.85  133.701  125.299 i
 118.9  138.421  125.295 i
 118.95  120.933  125.29 i
 119  101.157  125.286 i
 119.05  117.661  125.281 i
 119.1  121.582  125.277 i
 119.15  129.433  125.272 i
 119.2  139.012  125.267 i
 119.25  136.324  125.263 i
 119.3  119.645  125.258 i
 119.35  123.818  125.254 i
 119.4  132.099  125.249 i
 119.45  128.304  125.245 i
 119.5  123.45  125.24 i
 119.55  141.864  125.236 i
 119.6  123.016  125.231 i
 119.65  131.99  125.227 i
 119.7  134.28  125.222 i
 119.75  130.142  125.218 i
 119.8  134.174  125.213 i
 119.85  137.209  125.208 i
 119.9  164.031  125.204 i
 119.95  130.195  125.199 i
 120  114.891  125.195 i
 120.05  117.838  125.19 i
 120.1  122.446  125.186 i
 120.15  135.162  125.181 i
 120.2  103.256  125.177 i
 120.25  113.581  125.172 i
 120.3  147.214  125.168 i
 120.35  127.799  125.163 i
 120.4  115.88  125.159 i
 120.45  119.359  125.154 i
 120.5  132.938  125.15 i
 120.55  134.589  125.145 i
 120.6  133.533  125.14 i
 120.65  140.154  125.136 i
 120.7  131.767  125.131 i
 120.75  118.934  125.127 i
 120.8  135.693  125.122 i
 120.85  132.327  125.118 i
 120.9  132.397  125.113 i
 120.95  129.477  125.109 i
 121  119.787  125.104 i
 121.05  154.095  125.1 i
 121.1  130.027  125.095 i
 121.15  130.199  125.091 i
 121.2  132.738  125.086 i
 121.25  139.406  125.082 i
 121.3  133.649  125.077 i
 121.35  125.028  125.072 i
 121.4  126.296  125.068 i
 121.45  152.35  125.063 i
 121.5  124.545  125.059 i
 121.55  136.955  125.054 i
 121.6  129.965  125.05 i
 121.65  140.572  125.045 i
 121.7  131.934  125.041 i
 121.75  130.272  125.036 i
 121.8  119.67  125.032 i
 121.85  121.325  125.027 i
 121.9  133.235  125.023 i
 121.95  143.989  125.018 i
 122  139.083  125.014 i
 122.05  118.848  125.009 i
 122.1  136.133  125.005 i
 122.15  131.565  125 i
 122.2  118.61  124.995 i
 122.25  117.163  124.991 i
 122.3  142.126  124.986 i
 122.35  124.122  124.982 i
 122.4  127.004  124.977 i
 122.45  136.547  124.973 i
 122.5  123.823  124.968 i
 122.55  130.982  124.964 i
 122.6  106.554  124.959 i
 122.65  120.218  124.955 i
 122.7  128.1  124.95 i
 122.75  131.155  124.946 i
 122.8  133.959  124.941 i
 122.85  125.865  124.937 i
 122.9  141.495  124.932 i
 122.95  125.903  124.928 i
 123  107.722  124.923 i
 123.05  124.384  124.919 i
 123.1  126.335  124.914 i
 123.15  131.701  124.909 i
 123.2  135.149  124.905 i
 123.25  123.769  124.9 i
 123.3  125.311  124.896 i
 123.35  120.473  124.891 i
 123.4  140.659  124.887 i
 123.45  127.687  124.882 i
 123.5  104.722  124.878 i
 123.55  114.002  124.873 i
 123.6  115.872  124.869 i
 123.65  133.871  124.864 i
 123.7  125.004  124.86 i
 123.75  122.594  124.855 i
 123.8  109.837  124.851 i
 123.85  120.893  124.846 i
 123.9  139.566  124.842 i
 123.95  135.489  124.837 i
 124  143.978  124.833 i
 124.05  124.023  124.828 i
 124.1  115.819  124.824 i
 124.15  131.666  124.819 i
 124.2  105.058  124.814 i
 124.25  118.05  124.81 i
 124.3  97.2529  124.805 i
 124.35  131.84  124.801 i
 124.4  128.712  124.796 i
 124.45  137.774  124.792 i
 124.5  132.298  124.787 i
 124.55  113.243  124.783 i
 124.6  109.841  124.778 i
 124.65  122.006  124.774 i
 124.7  131.481  124.769 i
 124.75  136.736  124.765 i
 124.8  125.09  124.76 i
 124.85  145.713  124.756 i
 124.9  141.513  124.751 i
 124.95  141.746  124.747 i
 125  115.661  124.742 i
 125.05  131.929  124.738 i
 125.1  121.624  124.733 i
 125.15  152.373  124.729 i
 125.2  139.642  124.724 i
 125.25  124.766  124.719 i
 125.3  143.217  124.715 i
 125.35  134.889  124.71 i
 125.4  130.24  124.706 i
 125.45  124.839  124.701 i
 125.5  123.036  124.697 i
 125.55  128.92  124.692 i
 125.6  112.072  124.688 i
 125.65  126.415  124.683 i
 125.7  126.155  124.679 i
 125.75  146.24  124.674 i
 125.8  128.944  124.67 i
 125.85  112.485  124.665 i
 125.9  142.578  124.661 i
 125.95  135.898  124.656 i
 126  129.72  124.652 i
 126.05  118.719  124.647 i
 126.1  120.778  124.643 i
 126.15  130.539  124.638 i
 126.2  132.779  124.633 i
 126.25  133.621  124.629 i
 126.3  124.434  124.624 i
 126.35  136.232  124.62 i
 126.4  137.872  124.615 i
 126.45  112.981  124.611 i
 126.5  142.879  124.606 i
 126.55  131.63  124.602 i
 126.6  115.477  124.597 i
 126.65  136.051  124.593 i
 126.7  120.465  124.588 i
 126.75  122.823  124.584 i
 126.8  109.268  124.579 i
 126.85  110.376  124.575 i
 126.9  105.485  124.57 i
 126.95  132.667  124.566 i
 127  147.783  124.561 i
 127.05  108.316  124.557 i
 127.1  126.685  124.552 i
 127.15  115.772  124.547 i
 127.2  126.641  124.543 i
 127.25  130.11  124.538 i
 127.3  109.205  124.534 i
 127.35  134.531  124.529 i
 127.4  133.246  124.525 i
 127.45  126.868  124.52 i
 127.5  126.105  124.516 i
 127.55  142.165  124.511 i
 127.6  124.845  124.507 i
 127.65  127.782  124.502 i
 127.7  121.368  124.498 i
 127.75  127.859  124.493 i
 127.8  127.793  124.489 i
 127.85  148.545  124.484 i
 127.9  133.695  124.48 i
 127.95  126.692  124.475 i
 128  115.074  124.47 i
 128.05  121.614  124.466 i
 128.1  120.399  124.461 i
 128.15  135.661  124.457 i
 128.2  119.312  124.452 i
 128.25  123.054  124.448 i
 128.3  124.2  124.443 i
 128.35  135.437  124.439 i
 128.4  138.075  124.434 i
 128.45  108.668  124.43 i
 128.5  131.222  124.425 i
 128.55  148.039  124.421 i
 128.6  142.759  124.416 i
 128.65  123.124  124.411 i
 128.7  146.486  124.407 i
 128.75  110.105  124.402 i
 128.8  123.287  124.398 i
 128.85  134.647  124.393 i
 128.9  130.482  124.389 i
 128.95  128.071  124.384 i
 129  128.201  124.38 i
 129.05  122.618  124.375 i
 129.1  123.556  124.371 i
 129.15  111.854  124.366 i
 129.2  109.694  124.362 i
 129.25  141.32  124.357 i
 129.3  115.726  124.352 i
 129.35  140.046  124.348 i
 129.4  143.76  124.343 i
 129.45  124.725  124.339 i
 129.5  118.568  124.334 i
 129.55  126.015  124.33 i
 129.6  157.402  124.325 i
 129.65  140.38  124.321 i
 129.7  118.996  124.316 i
 129.75  145.391  124.312 i
 129.8  119.946  124.307 i
 129.85  141.232  124.303 i
 129.9  115.787  124.298 i
 129.95  111.782  124.293 i
 130  124.781  124.289 i

