40.00 209.2517
40.05 174.5425
40.10 169.7374
40.15 164.6877
40.20 175.2053
40.25 175.6185
40.30 191.7032
40.35 173.6238
40.40 178.2718
40.45 170.2077
40.50 180.4567
40.55 195.0807
40.60 191.5103
40.65 175.5010
40.70 184.9517
40.75 170.5129
40.80 152.5793
40.85 166.8924
40.90 177.3386
40.95 170.7691
41.00 186.6873
41.05 180.7290
41.10 163.2390
41.15 181.1307
41.20 189.5549
41.25 182.5174
41.30 166.2497
41.35 188.8016
41.40 185.0216
41.45 178.4615
41.50 190.9883
41.55 167.0210
41.60 146.7233
41.65 159.0784
41.70 162.9804
41.75 185.2668
41.80 166.4190
41.85 207.3612
41.90 172.0913
41.95 182.3472
42.00 171.6931
42.05 194.0559
42.10 168.5892
42.15 175.6931
42.20 165.4638
42.25 162.5410
42.30 157.6489
42.35 166.7773
42.40 178.0384
42.45 180.2659
42.50 163.5929
42.55 182.5959
42.60 173.9323
42.65 157.5375
42.70 158.7949
42.75 164.2363
42.80 191.2714
42.85 196.9712
42.90 175.9389
42.95 205.0720
43.00 176.5403
43.05 213.1083
43.10 186.5740
43.15 177.9419
43.20 213.7749
43.25 199.4472
43.30 210.0617
43.35 199.6144
43.40 202.7329
43.45 213.4144
43.50 225.5764
43.55 210.1915
43.60 213.5159
43.65 236.3062
43.70 223.8635
43.75 239.0966
43.80 254.5350
43.85 248.0643
43.90 264.6866
43.95 330.1039
44.00 352.2258
44.05 363.2623
44.10 530.7727
44.15 600.9854
44.20 764.1093
44.25 1153.3407
44.30 1768.6219
44.35 2918.5725
44.40 4475.6743
44.45 5661.6279
44.50 5619.3440
44.55 4323.8606
44.60 2775.6658
44.65 1686.3527
44.70 1005.3567
44.75 679.4632
44.80 547.3380
44.85 433.6517
44.90 340.9173
44.95 287.9133
45.00 294.1368
45.05 257.1859
45.10 226.0717
45.15 223.7873
45.20 213.2239
45.25 207.6534
45.30 217.9920
45.35 175.9417
45.40 172.8663
45.45 180.9214
45.50 174.0882
45.55 164.1669
45.60 167.3797
45.65 203.8337
45.70 143.8306
45.75 171.9261
45.80 189.3946
45.85 169.0965
45.90 152.0025
45.95 195.9198
46.00 169.0941
46.05 177.5581
46.10 164.0824
46.15 135.2545
46.20 188.1962
46.25 164.5185
46.30 178.3074
46.35 169.2038
46.40 181.3587
46.45 135.6576
46.50 160.7908
46.55 173.4486
46.60 145.7905
46.65 173.8999
46.70 166.4812
46.75 164.8218
46.80 176.5050
46.85 160.3194
46.90 158.7603
46.95 161.3119
47.00 180.7281
47.05 145.9646
47.10 195.1353
47.15 160.0218
47.20 159.2341
47.25 140.6493
47.30 139.6527
47.35 145.6692
47.40 162.5947
47.45 150.0649
47.50 157.1796
47.55 143.7175
47.60 178.3026
47.65 144.0415
47.70 150.6946
47.75 161.8997
47.80 159.3175
47.85 133.7924
47.90 158.3220
47.95 158.5943
48.00 177.7877
48.05 163.8256
48.10 167.7397
48.15 150.3476
48.20 163.6480
48.25 172.0205
48.30 136.5662
48.35 146.5061
48.40 155.3293
48.45 155.9986
48.50 162.5513
48.55 140.5155
48.60 142.5911
48.65 171.6211
48.70 157.3549
48.75 144.0974
48.80 139.6731
48.85 142.2533
48.90 177.1555
48.95 145.6769
49.00 150.0084
49.05 140.9455
49.10 147.8874
49.15 141.8194
49.20 150.5088
49.25 164.4543
49.30 154.9201
49.35 169.4732
49.40 161.1601
49.45 149.9188
49.50 182.3557
49.55 169.4070
49.60 147.5485
49.65 168.2171
49.70 150.4283
49.75 173.1968
49.80 176.5304
49.85 154.1104
49.90 133.9563
49.95 140.7203
50.00 159.6109
50.05 152.2237
50.10 143.6178
50.15 161.7613
50.20 138.5196
50.25 139.6864
50.30 161.6397
50.35 134.4694
50.40 153.8654
50.45 171.0074
50.50 163.3628
50.55 166.4318
50.60 167.7578
50.65 153.0101
50.70 157.2259
50.75 150.4302
50.80 154.8608
50.85 161.2824
50.90 159.4002
50.95 140.0116
51.00 156.6080
51.05 173.0256
51.10 144.0745
51.15 144.2607
51.20 156.0806
51.25 129.3628
51.30 154.4590
51.35 147.5950
51.40 134.6943
51.45 141.2905
51.50 164.9377
51.55 166.1420
51.60 166.1634
51.65 157.2920
51.70 139.1132
51.75 160.5230
51.80 169.2657
51.85 140.6512
51.90 145.6688
51.95 134.7421
52.00 141.9378
52.05 150.5975
52.10 160.1234
52.15 141.6822
52.20 133.8194
52.25 173.9340
52.30 138.6217
52.35 137.0812
52.40 141.5349
52.45 152.5271
52.50 141.1876
52.55 138.2001
52.60 144.1579
52.65 147.0975
52.70 166.6289
52.75 147.4457
52.80 158.2220
52.85 135.5310
52.90 152.8599
52.95 157.0687
53.00 136.7376
53.05 128.8017
53.10 164.3331
53.15 129.5883
53.20 152.2991
53.25 146.1183
53.30 169.2799
53.35 138.9553
53.40 129.7206
53.45 143.2209
53.50 111.7904
53.55 132.7793
53.60 138.0679
53.65 129.1748
53.70 141.4211
53.75 117.6244
53.80 146.7525
53.85 153.7603
53.90 133.4404
53.95 160.3186
54.00 119.2840
54.05 145.7961
54.10 140.2044
54.15 125.7442
54.20 129.3595
54.25 141.3117
54.30 137.0706
54.35 135.7710
54.40 160.3670
54.45 129.4321
54.50 127.6089
54.55 143.6625
54.60 149.6173
54.65 133.5641
54.70 148.6578
54.75 146.3635
54.80 164.5016
54.85 142.3324
54.90 133.0453
54.95 108.6753
55.00 146.2490
55.05 149.8903
55.10 136.9105
55.15 137.0982
55.20 144.0221
55.25 138.3528
55.30 135.7027
55.35 125.4289
55.40 131.2966
55.45 117.8308
55.50 161.4880
55.55 149.3733
55.60 146.8781
55.65 130.8742
55.70 145.6213
55.75 133.8033
55.80 136.5845
55.85 151.9766
55.90 148.8179
55.95 135.7601
56.00 138.8628
56.05 142.9115
56.10 139.3149
56.15 154.7649
56.20 132.5123
56.25 157.7654
56.30 147.5819
56.35 138.7368
56.40 127.7416
56.45 138.6031
56.50 160.9846
56.55 126.0467
56.60 143.9689
56.65 159.9801
56.70 143.1110
56.75 169.4089
56.80 122.6975
56.85 146.6113
56.90 136.0603
56.95 146.6728
57.00 144.5650
57.05 149.3464
57.10 144.4880
57.15 121.9046
57.20 137.5809
57.25 152.8005
57.30 156.6316
57.35 138.9110
57.40 117.9922
57.45 174.7599
57.50 131.6417
57.55 134.6988
57.60 133.1079
57.65 133.9026
57.70 138.8776
57.75 148.8766
57.80 143.3306
57.85 147.9342
57.90 138.2457
57.95 156.1465
58.00 136.7950
58.05 151.9323
58.10 146.0871
58.15 141.2168
58.20 123.9194
58.25 145.3276
58.30 132.3951
58.35 151.6649
58.40 114.7122
58.45 144.9106
58.50 140.6699
58.55 116.1655
58.60 162.7757
58.65 139.0987
58.70 143.7769
58.75 147.4123
58.80 133.3866
58.85 134.0681
58.90 128.1931
58.95 160.1674
59.00 127.3339
59.05 158.0531
59.10 148.5039
59.15 141.4955
59.20 125.4508
59.25 123.8649
59.30 129.1395
59.35 147.2193
59.40 130.9906
59.45 140.9801
59.50 154.1593
59.55 133.2751
59.60 148.3530
59.65 127.6755
59.70 130.3993
59.75 122.0363
59.80 127.9329
59.85 165.3161
59.90 141.3432
59.95 121.8888
60.00 130.6936
60.05 133.1552
60.10 115.7405
60.15 129.6078
60.20 133.7576
60.25 159.2937
60.30 145.5650
60.35 141.0954
60.40 130.4096
60.45 127.6331
60.50 135.2606
60.55 126.6917
60.60 149.6264
60.65 143.5136
60.70 140.8644
60.75 147.9652
60.80 134.8970
60.85 149.0405
60.90 146.7122
60.95 141.9968
61.00 147.2093
61.05 113.2148
61.10 132.3918
61.15 139.8319
61.20 110.4849
61.25 108.3190
61.30 121.4154
61.35 133.6649
61.40 144.5344
61.45 117.7547
61.50 146.7195
61.55 142.0859
61.60 136.6968
61.65 161.9799
61.70 150.2065
61.75 154.5043
61.80 147.1655
61.85 127.4315
61.90 118.4684
61.95 126.9355
62.00 150.3281
62.05 143.4401
62.10 140.5950
62.15 126.1598
62.20 135.4746
62.25 112.2349
62.30 132.6937
62.35 130.0548
62.40 134.5129
62.45 150.1286
62.50 156.6636
62.55 117.3915
62.60 137.8527
62.65 130.6729
62.70 151.8249
62.75 121.8824
62.80 137.6212
62.85 134.0668
62.90 123.8900
62.95 147.7532
63.00 150.4355
63.05 145.1757
63.10 129.9934
63.15 140.9175
63.20 135.7059
63.25 140.9813
63.30 128.8809
63.35 161.7905
63.40 137.5711
63.45 137.6891
63.50 138.4022
63.55 152.3309
63.60 167.5855
63.65 159.8463
63.70 145.9359
63.75 142.3443
63.80 152.4483
63.85 155.6096
63.90 145.8877
63.95 140.0931
64.00 176.0689
64.05 149.2216
64.10 145.9098
64.15 170.5435
64.20 194.9046
64.25 200.3035
64.30 213.1238
64.35 250.4911
64.40 254.5631
64.45 282.8746
64.50 318.9291
64.55 336.2723
64.60 311.4355
64.65 301.7082
64.70 271.3910
64.75 258.6956
64.80 249.7928
64.85 212.3020
64.90 188.7319
64.95 172.3543
65.00 160.7817
65.05 144.3348
65.10 134.7495
65.15 144.1733
65.20 165.4761
65.25 169.4900
65.30 159.2624
65.35 142.0507
65.40 157.9299
65.45 140.7580
65.50 123.4288
65.55 130.5074
65.60 132.0702
65.65 132.0796
65.70 132.0929
65.75 139.9459
65.80 131.5255
65.85 156.1279
65.90 150.3933
65.95 137.2144
66.00 148.4021
66.05 135.7393
66.10 142.0078
66.15 166.1483
66.20 142.5454
66.25 148.5386
66.30 129.0267
66.35 123.9241
66.40 132.8096
66.45 136.3919
66.50 151.9544
66.55 134.0208
66.60 131.9540
66.65 134.0330
66.70 127.0206
66.75 129.7755
66.80 143.6279
66.85 134.6046
66.90 125.7217
66.95 124.0860
67.00 140.2776
67.05 131.2464
67.10 126.5271
67.15 124.7504
67.20 134.2546
67.25 127.1067
67.30 121.5402
67.35 140.9582
67.40 140.6919
67.45 126.1699
67.50 132.3990
67.55 124.7626
67.60 140.2644
67.65 144.6416
67.70 139.3515
67.75 147.2523
67.80 141.0245
67.85 112.9966
67.90 124.5312
67.95 164.1671
68.00 135.0539
68.05 138.3700
68.10 138.1874
68.15 134.9221
68.20 129.9718
68.25 130.5913
68.30 149.5576
68.35 128.7425
68.40 142.8812
68.45 130.8206
68.50 119.8859
68.55 142.9676
68.60 128.7316
68.65 118.9986
68.70 142.2747
68.75 151.1929
68.80 125.8612
68.85 123.2136
68.90 139.2506
68.95 133.3699
69.00 142.8023
69.05 124.9199
69.10 121.0696
69.15 139.9266
69.20 130.8029
69.25 144.9817
69.30 152.4209
69.35 137.1294
69.40 119.7133
69.45 149.1347
69.50 141.1369
69.55 126.0989
69.60 112.1718
69.65 127.2574
69.70 127.8073
69.75 115.5831
69.80 124.1380
69.85 118.5190
69.90 125.8486
69.95 106.3259
70.00 123.1429
70.05 136.2093
70.10 135.0164
70.15 131.5949
70.20 130.8419
70.25 123.6355
70.30 132.6817
70.35 131.0189
70.40 139.9283
70.45 132.4788
70.50 127.4891
70.55 150.8441
70.60 129.5417
70.65 128.6502
70.70 128.0452
70.75 129.6904
70.80 127.5246
70.85 127.6506
70.90 128.5283
70.95 123.1989
71.00 134.2751
71.05 142.4624
71.10 139.6407
71.15 132.2182
71.20 123.7002
71.25 127.2058
71.30 138.8684
71.35 138.6884
71.40 137.9405
71.45 127.4986
71.50 142.4560
71.55 120.5051
71.60 134.2335
71.65 150.9419
71.70 150.4403
71.75 137.9596
71.80 123.6324
71.85 116.6073
71.90 135.0871
71.95 133.8586
72.00 137.7938
72.05 117.0179
72.10 145.8067
72.15 136.4698
72.20 139.3865
72.25 144.4098
72.30 133.9490
72.35 137.2251
72.40 138.6494
72.45 134.2688
72.50 138.8506
72.55 120.9387
72.60 129.1453
72.65 135.7890
72.70 107.5550
72.75 145.0573
72.80 129.2193
72.85 132.9719
72.90 138.4205
72.95 129.5659
73.00 130.1820
73.05 122.9666
73.10 122.4467
73.15 126.6237
73.20 154.4510
73.25 119.6890
73.30 148.9368
73.35 136.7897
73.40 136.8499
73.45 136.4035
73.50 136.6053
73.55 118.3143
73.60 140.1427
73.65 150.8682
73.70 129.0989
73.75 130.2355
73.80 114.7612
73.85 127.5168
73.90 138.0832
73.95 137.6539
74.00 146.2390
74.05 126.7430
74.10 122.8821
74.15 115.6684
74.20 129.2883
74.25 118.2103
74.30 130.5567
74.35 154.5138
74.40 121.5705
74.45 159.4622
74.50 128.3033
74.55 116.1163
74.60 135.7456
74.65 112.3296
74.70 150.0167
74.75 155.1515
74.80 136.7179
74.85 135.7458
74.90 134.5100
74.95 138.5733
75.00 131.7694
75.05 127.4708
75.10 142.0178
75.15 132.1824
75.20 137.5462
75.25 125.2217
75.30 140.9245
75.35 150.1990
75.40 143.5449
75.45 139.3150
75.50 120.6834
75.55 130.7288
75.60 130.3116
75.65 125.0743
75.70 121.7346
75.75 122.3344
75.80 140.9889
75.85 129.2701
75.90 131.9482
75.95 131.8101
76.00 141.1300
76.05 121.1364
76.10 116.9546
76.15 135.5631
76.20 129.2957
76.25 155.5052
76.30 136.2786
76.35 110.3433
76.40 138.9666
76.45 115.9098
76.50 149.3383
76.55 162.9437
76.60 141.8842
76.65 143.6684
76.70 119.5405
76.75 128.5565
76.80 130.5020
76.85 131.5444
76.90 123.2964
76.95 127.0602
77.00 142.1507
77.05 152.5587
77.10 120.8346
77.15 139.1195
77.20 127.4984
77.25 125.3913
77.30 136.5813
77.35 114.3747
77.40 137.7173
77.45 124.8155
77.50 142.0057
77.55 154.5348
77.60 155.4347
77.65 109.8039
77.70 114.4009
77.75 119.2724
77.80 127.3857
77.85 120.9693
77.90 130.9262
77.95 133.3943
78.00 142.6608
78.05 139.2884
78.10 128.6081
78.15 120.3656
78.20 135.2870
78.25 127.6014
78.30 139.1116
78.35 138.9355
78.40 116.5379
78.45 125.6543
78.50 132.5956
78.55 131.6530
78.60 131.8742
78.65 118.6001
78.70 139.6128
78.75 129.3764
78.80 116.7670
78.85 119.8292
78.90 133.1875
78.95 123.5074
79.00 137.9030
79.05 121.9865
79.10 128.3528
79.15 116.8687
79.20 133.7493
79.25 149.6039
79.30 133.3641
79.35 131.6692
79.40 142.1921
79.45 138.3637
79.50 126.6278
79.55 139.1950
79.60 125.1054
79.65 128.0570
79.70 144.0803
79.75 133.9526
79.80 137.6901
79.85 143.6656
79.90 159.8491
79.95 123.9148
80.00 152.1929
80.05 137.0773
80.10 143.7406
80.15 144.0305
80.20 155.6479
80.25 145.3824
80.30 140.3024
80.35 159.2573
80.40 128.2295
80.45 138.4194
80.50 140.4669
80.55 142.3402
80.60 134.6270
80.65 135.5035
80.70 129.3037
80.75 132.0226
80.80 154.7064
80.85 152.2788
80.90 150.2912
80.95 136.8405
81.00 175.1027
81.05 139.6921
81.10 160.8149
81.15 162.7673
81.20 152.7949
81.25 188.1659
81.30 175.4245
81.35 212.5377
81.40 218.5654
81.45 238.9963
81.50 264.5183
81.55 279.5069
81.60 324.9145
81.65 388.9220
81.70 424.5534
81.75 504.9930
81.80 533.7336
81.85 652.7449
81.90 670.1488
81.95 635.0283
82.00 582.2560
82.05 482.8865
82.10 449.9599
82.15 385.9541
82.20 311.1356
82.25 279.2646
82.30 247.6022
82.35 217.3636
82.40 191.9176
82.45 194.7224
82.50 182.4793
82.55 130.0766
82.60 164.7277
82.65 162.2444
82.70 147.1855
82.75 136.5773
82.80 144.1680
82.85 170.0112
82.90 164.4088
82.95 137.4879
83.00 145.2368
83.05 143.2032
83.10 136.1595
83.15 115.1093
83.20 123.5048
83.25 135.6842
83.30 126.5889
83.35 123.5548
83.40 111.7682
83.45 121.4748
83.50 124.6440
83.55 115.4164
83.60 143.2373
83.65 138.0360
83.70 133.9892
83.75 140.2842
83.80 116.6169
83.85 160.9057
83.90 152.2154
83.95 118.8644
84.00 136.1302
84.05 116.7511
84.10 135.4000
84.15 123.7880
84.20 142.2813
84.25 133.0600
84.30 137.7652
84.35 116.4682
84.40 128.1065
84.45 128.6219
84.50 110.4758
84.55 150.7803
84.60 130.4390
84.65 153.6330
84.70 142.7280
84.75 147.9795
84.80 116.7792
84.85 121.9375
84.90 138.4011
84.95 171.0753
85.00 127.9421
85.05 138.8623
85.10 145.4137
85.15 118.8856
85.20 136.8659
85.25 129.6921
85.30 152.5246
85.35 125.3686
85.40 135.7205
85.45 130.5747
85.50 119.1447
85.55 123.6865
85.60 138.3219
85.65 126.3729
85.70 114.8780
85.75 135.4924
85.80 115.1530
85.85 120.9822
85.90 127.7530
85.95 131.0834
86.00 123.2356
86.05 120.9558
86.10 140.4507
86.15 144.4478
86.20 133.1984
86.25 123.3446
86.30 149.6223
86.35 129.0499
86.40 135.7597
86.45 148.9372
86.50 139.3922
86.55 130.4058
86.60 135.9558
86.65 124.4425
86.70 122.8495
86.75 114.6480
86.80 141.2379
86.85 119.2942
86.90 137.3436
86.95 124.2845
87.00 138.3250
87.05 121.3226
87.10 133.1431
87.15 124.0512
87.20 124.1862
87.25 122.0697
87.30 127.3255
87.35 111.9618
87.40 142.6326
87.45 121.6473
87.50 129.7594
87.55 132.6082
87.60 123.2049
87.65 152.7201
87.70 134.5892
87.75 137.5576
87.80 108.3893
87.85 141.0356
87.90 137.4816
87.95 121.6645
88.00 125.0232
88.05 143.8488
88.10 124.5205
88.15 141.2452
88.20 121.7959
88.25 124.7373
88.30 117.9898
88.35 117.7916
88.40 108.5281
88.45 141.5485
88.50 119.0887
88.55 106.3574
88.60 128.8508
88.65 120.3033
88.70 144.0319
88.75 123.1051
88.80 141.4338
88.85 125.4457
88.90 127.8047
88.95 120.2433
89.00 155.1102
89.05 153.6508
89.10 140.6413
89.15 132.6157
89.20 131.9938
89.25 126.4195
89.30 127.6300
89.35 134.6535
89.40 149.6112
89.45 138.5292
89.50 111.8186
89.55 154.8228
89.60 125.1995
89.65 114.6568
89.70 118.1458
89.75 155.6351
89.80 121.8208
89.85 116.1544
89.90 135.5279
89.95 162.9122
90.00 135.6558
90.05 129.6372
90.10 116.5995
90.15 142.1924
90.20 145.9660
90.25 144.2805
90.30 132.0510
90.35 135.6762
90.40 143.2512
90.45 145.0176
90.50 127.5661
90.55 142.6103
90.60 153.5952
90.65 135.0374
90.70 115.7397
90.75 135.1418
90.80 123.0285
90.85 126.9147
90.90 149.0560
90.95 139.6865
91.00 138.6679
91.05 123.3381
91.10 121.7511
91.15 131.3574
91.20 138.8934
91.25 137.2111
91.30 120.4705
91.35 142.4161
91.40 137.5565
91.45 134.8587
91.50 131.8741
91.55 122.1417
91.60 125.7850
91.65 114.8354
91.70 147.8824
91.75 130.4399
91.80 121.4449
91.85 126.9490
91.90 129.9422
91.95 142.8574
92.00 116.6984
92.05 141.4145
92.10 137.0169
92.15 129.4648
92.20 122.9476
92.25 141.4571
92.30 144.1983
92.35 111.6909
92.40 125.4519
92.45 126.5930
92.50 124.5506
92.55 126.3709
92.60 133.8136
92.65 98.7531
92.70 113.3292
92.75 125.1149
92.80 139.9358
92.85 123.2572
92.90 133.0088
92.95 142.4110
93.00 132.6579
93.05 130.8505
93.10 149.6759
93.15 124.3506
93.20 138.3784
93.25 119.5619
93.30 139.6786
93.35 132.7847
93.40 124.9511
93.45 138.5454
93.50 125.8767
93.55 143.7248
93.60 116.7305
93.65 140.0557
93.70 141.8601
93.75 127.1792
93.80 125.8507
93.85 129.3332
93.90 126.6100
93.95 109.0256
94.00 125.1349
94.05 117.1548
94.10 116.1828
94.15 141.1293
94.20 135.6685
94.25 132.4279
94.30 135.5750
94.35 113.6893
94.40 122.4728
94.45 139.1444
94.50 147.6114
94.55 112.7755
94.60 115.0448
94.65 121.0240
94.70 127.2098
94.75 132.0839
94.80 127.9284
94.85 128.5187
94.90 137.8934
94.95 123.9525
95.00 142.5615
95.05 140.5310
95.10 130.6150
95.15 141.6782
95.20 118.8027
95.25 117.4073
95.30 143.1238
95.35 137.6779
95.40 108.0792
95.45 133.7230
95.50 119.1536
95.55 132.5161
95.60 140.9146
95.65 158.0615
95.70 129.4745
95.75 149.8954
95.80 132.5805
95.85 143.1534
95.90 138.2369
95.95 131.5692
96.00 138.1191
96.05 128.9448
96.10 126.9956
96.15 124.9378
96.20 127.6577
96.25 143.2926
96.30 134.7695
96.35 129.7558
96.40 127.4845
96.45 138.9190
96.50 133.5569
96.55 129.8101
96.60 125.0643
96.65 139.7417
96.70 120.1564
96.75 139.8748
96.80 99.2946
96.85 133.2484
96.90 132.6857
96.95 139.9249
97.00 116.2872
97.05 143.0671
97.10 120.9137
97.15 154.7448
97.20 153.7987
97.25 145.9842
97.30 137.1294
97.35 161.6716
97.40 139.8124
97.45 129.4337
97.50 147.0716
97.55 155.0330
97.60 155.7454
97.65 150.0960
97.70 160.4171
97.75 152.8617
97.80 157.6345
97.85 180.2540
97.90 185.0091
97.95 143.7253
98.00 184.4694
98.05 217.7049
98.10 246.3657
98.15 279.8331
98.20 299.6797
98.25 335.8035
98.30 370.7512
98.35 355.3569
98.40 366.6280
98.45 366.5952
98.50 353.1466
98.55 309.3050
98.60 255.2573
98.65 252.4166
98.70 234.9916
98.75 208.0888
98.80 202.5985
98.85 164.5028
98.90 187.8773
98.95 161.2836
99.00 161.8186
99.05 164.8225
99.10 149.7283
99.15 165.3382
99.20 151.6985
99.25 137.1863
99.30 144.1068
99.35 120.5170
99.40 133.2370
99.45 150.2169
99.50 117.8696
99.55 127.9998
99.60 112.3311
99.65 111.1611
99.70 133.4041
99.75 150.1253
99.80 115.3573
99.85 120.6248
99.90 124.7795
99.95 152.6189
100.00 123.2968
100.05 121.1029
100.10 139.7734
100.15 118.9100
100.20 125.5071
100.25 142.3915
100.30 135.2000
100.35 141.5982
100.40 95.9626
100.45 117.0207
100.50 125.6485
100.55 115.2055
100.60 146.4755
100.65 129.2959
100.70 151.0335
100.75 125.7376
100.80 142.9832
100.85 131.2283
100.90 127.5629
100.95 124.1174
101.00 133.7794
101.05 136.9712
101.10 117.8002
101.15 126.4953
101.20 147.6160
101.25 130.7824
101.30 151.5497
101.35 130.6885
101.40 156.8935
101.45 142.6206
101.50 128.3242
101.55 134.6694
101.60 137.1087
101.65 113.1175
101.70 125.5271
101.75 131.5788
101.80 119.6652
101.85 142.9837
101.90 124.9973
101.95 122.1938
102.00 132.3377
102.05 128.4591
102.10 143.8006
102.15 137.0101
102.20 105.5752
102.25 123.7113
102.30 109.2833
102.35 146.5912
102.40 137.4325
102.45 143.3869
102.50 144.9737
102.55 110.6702
102.60 116.5405
102.65 134.5229
102.70 133.1693
102.75 121.2347
102.80 129.8717
102.85 136.0145
102.90 130.6177
102.95 127.6182
103.00 113.7006
103.05 138.0941
103.10 132.5269
103.15 144.1661
103.20 138.2087
103.25 110.8595
103.30 111.8798
103.35 132.1340
103.40 121.6753
103.45 136.5081
103.50 132.0131
103.55 138.0657
103.60 129.2127
103.65 129.5703
103.70 127.4617
103.75 130.9196
103.80 127.4590
103.85 131.4398
103.90 128.2169
103.95 127.8756
104.00 131.7760
104.05 128.6805
104.10 129.2539
104.15 124.4318
104.20 129.8781
104.25 124.1384
104.30 130.5860
104.35 128.4026
104.40 117.1157
104.45 115.2653
104.50 137.1742
104.55 107.4842
104.60 128.2971
104.65 127.7166
104.70 134.1964
104.75 107.5030
104.80 131.1183
104.85 131.0458
104.90 151.2579
104.95 131.6666
105.00 126.5882
105.05 130.4862
105.10 125.9890
105.15 132.6328
105.20 115.9169
105.25 130.5721
105.30 139.8930
105.35 134.2469
105.40 118.3943
105.45 122.2942
105.50 110.3330
105.55 114.7435
105.60 112.3574
105.65 126.1219
105.70 152.5636
105.75 130.3948
105.80 116.3290
105.85 111.3526
105.90 122.7913
105.95 121.5110
106.00 127.9177
106.05 138.3293
106.10 129.1969
106.15 124.8763
106.20 135.6165
106.25 132.8336
106.30 117.5431
106.35 135.2106
106.40 117.7168
106.45 132.1947
106.50 107.4760
106.55 138.7259
106.60 124.2398
106.65 113.3609
106.70 121.2983
106.75 116.4934
106.80 144.5021
106.85 138.3104
106.90 147.2923
106.95 121.3045
107.00 142.3073
107.05 122.4710
107.10 125.5397
107.15 109.2210
107.20 120.7095
107.25 124.2961
107.30 108.5709
107.35 130.5883
107.40 121.7891
107.45 123.9111
107.50 130.1664
107.55 110.4882
107.60 113.4076
107.65 109.4533
107.70 118.3312
107.75 120.5527
107.80 120.6184
107.85 129.4129
107.90 118.1146
107.95 125.6417
108.00 114.8755
108.05 112.0377
108.10 149.8484
108.15 126.8127
108.20 134.9246
108.25 119.6368
108.30 129.6979
108.35 121.4188
108.40 109.9166
108.45 127.2546
108.50 135.1259
108.55 134.3704
108.60 137.3062
108.65 144.6203
108.70 130.7879
108.75 133.9708
108.80 109.8429
108.85 118.6920
108.90 117.1032
108.95 131.3756
109.00 138.5084
109.05 112.6048
109.10 132.4562
109.15 135.5286
109.20 110.0609
109.25 147.0146
109.30 121.4995
109.35 127.6849
109.40 117.8138
109.45 133.1940
109.50 126.0800
109.55 132.8426
109.60 132.6450
109.65 134.7481
109.70 120.3272
109.75 136.8225
109.80 127.3319
109.85 122.0785
109.90 132.1980
109.95 121.3428
110.00 137.5702
110.05 126.5716
110.10 137.3083
110.15 128.9637
110.20 147.4070
110.25 127.5881
110.30 109.9856
110.35 109.7342
110.40 135.8885
110.45 127.7290
110.50 121.2136
110.55 125.3718
110.60 131.9904
110.65 146.1106
110.70 113.4530
110.75 128.1008
110.80 102.8615
110.85 145.5648
110.90 139.9220
110.95 132.1463
111.00 136.8030
111.05 113.2226
111.10 143.0167
111.15 115.9992
111.20 117.0017
111.25 113.6816
111.30 132.3837
111.35 142.1957
111.40 115.4390
111.45 131.1345
111.50 133.9180
111.55 128.6447
111.60 133.6249
111.65 145.6278
111.70 131.3427
111.75 130.7275
111.80 136.0297
111.85 161.0792
111.90 113.3166
111.95 127.0855
112.00 121.4781
112.05 142.3612
112.10 147.3570
112.15 129.5391
112.20 135.5034
112.25 127.6962
112.30 124.2531
112.35 135.0060
112.40 132.9524
112.45 111.2636
112.50 121.3557
112.55 123.7171
112.60 127.0535
112.65 125.1785
112.70 137.5019
112.75 134.0780
112.80 115.1933
112.85 122.0697
112.90 135.7212
112.95 128.7290
113.00 111.7850
113.05 139.2809
113.10 146.8581
113.15 110.5406
113.20 102.5746
113.25 122.2484
113.30 121.7582
113.35 125.8440
113.40 134.3744
113.45 147.0202
113.50 143.9927
113.55 160.0201
113.60 144.0118
113.65 140.0999
113.70 143.7491
113.75 144.5587
113.80 139.0535
113.85 128.9214
113.90 126.9273
113.95 124.3183
114.00 127.0306
114.05 137.4790
114.10 133.0233
114.15 135.0782
114.20 136.7801
114.25 123.0504
114.30 154.6566
114.35 144.1372
114.40 154.3349
114.45 147.1890
114.50 157.9371
114.55 170.7166
114.60 169.8797
114.65 184.6566
114.70 166.1106
114.75 162.0011
114.80 192.8036
114.85 163.6763
114.90 170.0212
114.95 200.7286
115.00 190.5214
115.05 212.5467
115.10 206.9854
115.15 247.9229
115.20 235.8501
115.25 234.8250
115.30 243.4641
115.35 248.5851
115.40 244.5042
115.45 257.1910
115.50 240.1624
115.55 295.2056
115.60 212.5011
115.65 240.8550
115.70 234.6797
115.75 189.9824
115.80 203.9645
115.85 184.0567
115.90 205.0527
115.95 178.1256
116.00 175.4193
116.05 184.2617
116.10 184.2305
116.15 164.7474
116.20 165.9499
116.25 163.4761
116.30 163.3221
116.35 156.9421
116.40 139.6884
116.45 147.6658
116.50 152.4033
116.55 137.3948
116.60 132.9646
116.65 138.0321
116.70 121.2927
116.75 142.9252
116.80 135.4742
116.85 148.5747
116.90 142.8960
116.95 144.7621
117.00 147.9117
117.05 137.3216
117.10 151.2649
117.15 118.4599
117.20 143.9273
117.25 135.1424
117.30 124.5790
117.35 145.3308
117.40 143.9568
117.45 143.0332
117.50 123.7845
117.55 118.1116
117.60 125.5904
117.65 130.8101
117.70 119.3673
117.75 129.2915
117.80 145.8158
117.85 137.7305
117.90 130.7776
117.95 134.6981
118.00 127.3566
118.05 140.7389
118.10 130.5159
118.15 143.3306
118.20 128.7566
118.25 119.8873
118.30 146.0288
118.35 127.3716
118.40 134.1471
118.45 117.5154
118.50 130.5316
118.55 130.8648
118.60 122.0991
118.65 120.1833
118.70 111.4015
118.75 108.3851
118.80 133.5918
118.85 133.7009
118.90 138.4211
118.95 120.9334
119.00 101.1573
119.05 117.6608
119.10 121.5817
119.15 129.4333
119.20 139.0121
119.25 136.3239
119.30 119.6455
119.35 123.8179
119.40 132.0986
119.45 128.3043
119.50 123.4499
119.55 141.8641
119.60 123.0158
119.65 131.9900
119.70 134.2803
119.75 130.1422
119.80 134.1744
119.85 137.2090
119.90 164.0306
119.95 130.1945
120.00 114.8911
120.05 117.8382
120.10 122.4458
120.15 135.1617
120.20 103.2558
120.25 113.5810
120.30 147.2137
120.35 127.7990
120.40 115.8802
120.45 119.3590
120.50 132.9379
120.55 134.5889
120.60 133.5332
120.65 140.1538
120.70 131.7666
120.75 118.9344
120.80 135.6933
120.85 132.3265
120.90 132.3972
120.95 129.4775
121.00 119.7867
121.05 154.0955
121.10 130.0270
121.15 130.1992
121.20 132.7377
121.25 139.4064
121.30 133.6491
121.35 125.0284
121.40 126.2957
121.45 152.3503
121.50 124.5446
121.55 136.9551
121.60 129.9646
121.65 140.5721
121.70 131.9337
121.75 130.2723
121.80 119.6701
121.85 121.3252
121.90 133.2349
121.95 143.9895
122.00 139.0832
122.05 118.8477
122.10 136.1329
122.15 131.5647
122.20 118.6096
122.25 117.1628
122.30 142.1260
122.35 124.1223
122.40 127.0042
122.45 136.5472
122.50 123.8234
122.55 130.9823
122.60 106.5543
122.65 120.2183
122.70 128.1004
122.75 131.1548
122.80 133.9588
122.85 125.8646
122.90 141.4950
122.95 125.9027
123.00 107.7223
123.05 124.3837
123.10 126.3346
123.15 131.7010
123.20 135.1491
123.25 123.7691
123.30 125.3114
123.35 120.4728
123.40 140.6593
123.45 127.6871
123.50 104.7216
123.55 114.0016
123.60 115.8721
123.65 133.8710
123.70 125.0040
123.75 122.5941
123.80 109.8372
123.85 120.8928
123.90 139.5660
123.95 135.4886
124.00 143.9783
124.05 124.0232
124.10 115.8186
124.15 131.6660
124.20 105.0580
124.25 118.0501
124.30 97.2529
124.35 131.8401
124.40 128.7124
124.45 137.7743
124.50 132.2976
124.55 113.2425
124.60 109.8413
124.65 122.0058
124.70 131.4809
124.75 136.7362
124.80 125.0895
124.85 145.7134
124.90 141.5127
124.95 141.7462
125.00 115.6614
125.05 131.9293
125.10 121.6236
125.15 152.3729
125.20 139.6416
125.25 124.7661
125.30 143.2166
125.35 134.8892
125.40 130.2401
125.45 124.8391
125.50 123.0357
125.55 128.9197
125.60 112.0716
125.65 126.4155
125.70 126.1552
125.75 146.2402
125.80 128.9439
125.85 112.4850
125.90 142.5777
125.95 135.8983
126.00 129.7202
126.05 118.7186
126.10 120.7778
126.15 130.5390
126.20 132.7793
126.25 133.6210
126.30 124.4345
126.35 136.2319
126.40 137.8716
126.45 112.9805
126.50 142.8791
126.55 131.6295
126.60 115.4772
126.65 136.0513
126.70 120.4647
126.75 122.8235
126.80 109.2677
126.85 110.3756
126.90 105.4852
126.95 132.6672
127.00 147.7826
127.05 108.3158
127.10 126.6846
127.15 115.7716
127.20 126.6412
127.25 130.1098
127.30 109.2053
127.35 134.5306
127.40 133.2462
127.45 126.8680
127.50 126.1052
127.55 142.1649
127.60 124.8449
127.65 127.7816
127.70 121.3675
127.75 127.8590
127.80 127.7930
127.85 148.5447
127.90 133.6948
127.95 126.6919
128.00 115.0740
128.05 121.6144
128.10 120.3988
128.15 135.6613
128.20 119.3116
128.25 123.0541
128.30 124.2000
128.35 135.4368
128.40 138.0751
128.45 108.6680
128.50 131.2222
128.55 148.0394
128.60 142.7593
128.65 123.1238
128.70 146.4860
128.75 110.1053
128.80 123.2875
128.85 134.6469
128.90 130.4823
128.95 128.0706
129.00 128.2007
129.05 122.6180
129.10 123.5563
129.15 111.8537
129.20 109.6935
129.25 141.3204
129.30 115.7263
129.35 140.0455
129.40 143.7597
129.45 124.7252
129.50 118.5678
129.55 126.0153
129.60 157.4016
129.65 140.3799
129.70 118.9959
129.75 145.3914
129.80 119.9460
129.85 141.2322
129.90 115.7865
129.95 111.7816
130.00 124.7808
