*TYPE		=  Raw
*CLASS		=  ASCII CLASS
*SAMPLE		=   
*COMMENT	=   
*FNAME		=  PB_Ge220_2.5SS_500umDS_RS1_Rod_2.5SS_Hypix1D_EFRW2_Weld_Centre_Unirradiated_Z-Reset_Theta_2-Theta.asc
*DATE		=  13-Apr-22 13:10

*GROUP_COUNT	=  1
*GONIO		=  SmartLab(In-plane), 0.000000
*ATTACHMENT	=  Chi phi Z cradle
*ASC		=  0, 0, 0.000000, 0.000000
*I_MONOCHRO	=  Ge(220)x2, 0.000000
*FILTER		=  None
*C_MONOCHRO	=  No_unit, 0.000000
*SLIT_NAME	=  0, Incident slit
*SLIT_NAME	=  1, Receiving slit # 1
*SLIT_NAME	=  2, Receiving slit # 2
*COUNTER	=  HyPix 3000(H), 0
*POS_FORMAT	=  0
*SCAN_AXIS	=  2theta/theta
*MEAS_MODE	=  Continuous Scanning
*TARGET		=  29
*XRAY_CHAR	=  K-ALPHA1
*WAVE_LENGTH1	=  1.54059
*WAVE_LENGTH2	=  1.54441
*THICKNESS	=  0, 0.000000
*MU		=  0, 0.000000
*SCAN_MODE	=  2theta/theta
*SPEED_DIM	=  sec./step
*XUNIT		=  deg.
*YUNIT		=  
*SCALE_MODE	=  1
*REP_COUNT	=  0
*SE_COUNT	=  0
*STD_MATERIAL	=  Unknown, Unknown, 0.000000, 0.000000, 0.000000, 0.000000, 0.000000, 0.000000
*LATT_CONS	=  0, Unknown, Unknown, 0.000000, 0.000000, 0.000000, 0.000000, 0.000000, 0.000000
*SEC_COUNT	=  1
*TSPEC_SIZE	=  0
*EXTRA_SIZE	=  0
*MEMO		=   

*BEGIN
*GROUP		=  0
*START		=  40
*STOP		=  119.99
*STEP		=  0.01
*OFFSET		=  0.000000
*SPEED		=  1.19227
*SLIT_SPEC	=  0, 1.000mm, 1, 0.000000
*SLIT_SPEC	=  1, 20.000mm, 20, 0.000000
*SLIT_SPEC	=  2, 38.500mm, 38.5, 0.000000
*KV		=  40
*MA		=  30
*LOW		=  0.000000
*HIGH		=  0.000000
*CTEMPER	=  0, 0.000000
*CTEMPER	=  1, 0.000000
*CTEMPER	=  2, 0.000000
*PAREX		=  0, 0.000000
*PAREX		=  1, 0.000000
*PAREX		=  2, 0.000000
*PAREX		=  3, 0.000000
*PAREX		=  4, 0.000000
*PAREX		=  5, 0.000000
*PAREX		=  6, 0.000000
*PAREX		=  7, 0.000000
*PAREX		=  8, 0.000000
*PAREX		=  9, 0.000000
*PAREX		=  10, 0.000000
*PAREX		=  11, 0.000000
*PAREX		=  12, 0.000000
*PAREX		=  13, 0.000000
*PAREX		=  14, 0.000000
*PAREX		=  15, 0.000000
*FULL_SCALE	=  22.0548
*INDEX		=  0, 0, 0
*COUNT		=  8000
0.000000, 0.000000, 0.000000, 0.000000
0.000000, 0.0194104, 1.1131, 1.54917
2.33547, 2.23121, 0.470704, 1.79047
0.435352, 1.01448, 0.000000, 6.0305
1.00658, 0.153112, 2.39769, 2.1819
2.27541, 1.17863, 0.000000, 0.780507
1.90587, 1.44592, 0.000000, 1.174
2.0746, 2.10596, 0.712625, 0.000000
0.000000, 0.947282, 0.785921, 1.07207
0.14344, 0.0388247, 1.88255, 0.215085
0.725889, 0.425187, 0.593553, 0.000000
1.42249, 0.608045, 0.957408, 0.000000
0.000000, 0.178185, 0.854647, 0.357573
0.632087, 2.05896, 0.907277, 1.80569
0.277232, 1.07954, 2.00639, 0.000000
0.000000, 0.94872, 0.380885, 2.02485
0.512341, 1.03436, 0.000000, 0.885731
1.15675, 1.00171, 0.000000, 0.000000
0.000000, 0.000000, 0.509946, 3.04152
2.0977, 1.13609, 1.31632, 0.00425899
0.97457, 0.189732, 1.78074, 0.986834
2.50461, 0.530501, 0.000000, 0.000000
0.000000, 0.978814, 0.000000, 1.00008
0.000000, 0.307143, 2.61484, 0.000000
0.000000, 0.000000, 0.000000, 3.00808
1.06336, 1.01941, 1.05976, 1.30934
0.775022, 0.000000, 0.000000, 1.90549
1.03784, 0.981299, 0.988129, 0.000000
0.11439, 0.843934, 0.000000, 0.000000
1.00581, 2.94517, 1.72213, 1.13384
3.0065, 2.1631, 0.989148, 0.000000
0.000000, 0.69563, 1.31201, 2.88314
0.930486, 0.673403, 2.2972, 1.00786
1.96687, 1.04656, 0.880375, 0.000000
0.953477, 0.961021, 0.000000, 0.000000
0.000000, 0.000000, 0.954793, 0.0423476
0.886536, 2.2475, 1.127, 0.665849
0.983592, 0.944969, 1.71236, 2.14512
0.214885, 0.000000, 0.000000, 0.193362
1.83907, 0.379259, 0.653833, 0.000000
3.07148, 0.000000, 0.000000, 0.000000
0.963656, 0.000000, 2.02652, 0.324395
1.11794, 1.56319, 0.593934, 3.3501
1.02645, 0.000000, 0.967945, 2.00775
0.000000, 0.000000, 0.994675, 0.000000
0.961185, 2.33495, 0.7371, 0.000000
0.000000, 0.000000, 0.215008, 2.03716
1.74229, 0.764004, 1.6677, 0.495452
0.000000, 0.000000, 0.858402, 2.11291
0.000000, 0.000000, 0.231165, 1.71264
0.437475, 0.589298, 3.23813, 1.432
0.274426, 2.05134, 1.07612, 0.000000
0.000000, 0.000000, 0.000000, 0.000000
0.946988, 0.000000, 0.000000, 0.000000
1.10141, 2.01177, 0.000000, 0.972096
0.000000, 2.38962, 0.608638, 2.08131
0.000000, 0.000000, 0.000000, 2.88941
0.000000, 0.317494, 1.62431, 0.343298
0.631169, 0.000000, 0.000000, 0.000000
0.000000, 0.000000, 0.000000, 0.000000
1.91005, 0.000000, 0.000000, 1.00483
0.000000, 0.000000, 0.728334, 0.219761
1.019, 0.0457894, 0.912663, 0.000000
0.6391, 2.10469, 1.10966, 1.01359
1.67286, 0.283595, 0.997719, 1.9333
1.06519, 1.9254, 0.000000, 0.000000
0.958168, 0.000000, 0.000000, 0.000000
0.000000, 0.000000, 1.10688, 0.000000
0.000000, 0.313937, 0.676851, 0.000000
0.000000, 1.43463, 0.631273, 0.849274
2.06828, 1.06305, 0.000000, 0.515469
2.44647, 0.000000, 2.50783, 0.433327
0.000000, 0.000000, 0.000000, 0.000000
0.000000, 0.000000, 0.000000, 0.000000
0.000000, 1.13415, 0.813492, 0.000000
0.983236, 0.934722, 0.0525774, 0.915842
0.25333, 0.788836, 0.000000, 0.935339
0.624308, 2.06054, 0.291241, 0.000000
3.95509, 0.9705, 0.000000, 0.000000
0.000000, 0.958172, 1.12672, 0.868885
0.000000, 0.000000, 1.09192, 0.0356636
0.939462, 0.000000, 0.642262, 2.33252
1.00469, 0.990387, 0.982044, 1.03723
0.000000, 1.95481, 2.06663, 0.898264
0.25649, 1.67311, 0.000000, 0.000000
1.29496, 2.22579, 2.16653, 1.33019
0.000000, 0.000000, 0.000000, 0.000000
0.000000, 0.487746, 1.50738, 1.67307
1.07002, 0.220332, 0.936905, 0.0362012
1.00032, 1.00348, 0.000000, 0.000000
0.000000, 0.608105, 3.05544, 0.776953
0.179476, 0.986562, 1.01022, 0.17343
2.29351, 2.75934, 0.590599, 0.978795
0.000000, 1.43011, 1.43737, 0.000000
0.000000, 0.000000, 0.000000, 0.000000
1.04046, 0.0882105, 1.89211, 1.23101
0.000000, 0.000000, 1.95294, 0.0169655
0.000000, 0.000000, 0.000000, 0.000000
0.000000, 1.88592, 3.83123, 0.262131
0.910186, 1.11698, 0.119895, 1.11399
1.74255, 0.796392, 1.19791, 0.952276
0.697759, 3.84606, 1.36374, 0.969023
1.09267, 0.908179, 0.000000, 0.984859
0.000000, 0.000000, 0.630775, 1.09071
2.12151, 3.06089, 1.08801, 0.0962775
0.881841, 0.000000, 1.38938, 0.611534
0.000000, 0.000000, 0.000000, 4.22897
2.72576, 0.0951737, 2.17001, 0.833738
1.28679, 2.60009, 0.000000, 0.000000
0.695318, 2.09439, 1.93054, 3.11463
1.09548, 5.5059, 4.69603, 1.7763
3.22109, 4.54981, 5.86593, 8.75602
2.89993, 10.0472, 10.4873, 11.429
15.9417, 14.5686, 14.6588, 9.65907
17.641, 14.7593, 16.7152, 13.6976
15.2521, 14.4232, 9.0093, 9.72954
11.3068, 4.1066, 8.59767, 8.35449
3.05877, 5.60302, 8.00584, 8.26518
7.10573, 4.05864, 2.10631, 4.46715
2.82772, 2.66755, 0.000000, 1.70321
1.92496, 0.283716, 3.02128, 2.16719
2.13922, 2.33823, 0.699308, 1.99639
3.12375, 0.754652, 3.69454, 1.05885
1.1741, 0.0888654, 0.973947, 0.554992
2.49394, 0.454456, 0.530941, 0.000000
0.991797, 0.000000, 0.954277, 1.08801
0.982719, 0.000000, 2.34244, 1.66878
1.49182, 1.57862, 1.63802, 0.315103
0.906442, 0.127004, 1.02003, 0.000000
0.000000, 0.000000, 0.982811, 0.995265
2.02151, 0.000000, 0.118698, 2.13165
1.96275, 0.000000, 1.49283, 1.59412
0.000000, 0.9961, 0.353431, 0.000000
0.706861, 0.000000, 0.000000, 0.000000
0.146401, 0.880465, 0.000000, 0.000000
0.000000, 0.000000, 1.02056, 2.67025
1.42764, 4.909, 0.0389909, 1.04031
0.000000, 0.929106, 0.455863, 1.49523
1.68086, 0.339927, 0.000000, 0.000000
1.03489, 0.123967, 1.83994, 0.303273
0.663671, 0.000000, 1.23695, 0.835605
0.971416, 0.000000, 2.90346, 0.146872
0.955552, 2.09544, 0.354562, 0.652778
0.982283, 0.000000, 0.750671, 1.08027
0.171359, 0.982709, 2.11377, 0.973571
0.000000, 0.000000, 0.000000, 0.596906
0.433833, 1.03564, 0.000000, 0.000000
1.15204, 0.169897, 0.998007, 0.000000
0.000000, 0.000000, 0.962901, 0.000000
0.000000, 0.000000, 0.168069, 0.191221
2.96172, 1.27969, 0.823163, 0.000000
0.000000, 0.000000, 0.000000, 0.000000
2.88021, 0.000000, 0.130048, 1.337
1.57248, 0.000000, 0.996092, 0.965829
0.000000, 0.800834, 1.31637, 0.000000
1.0115, 0.000000, 0.000000, 0.987563
0.000000, 0.000000, 0.000000, 1.90525
1.83571, 0.172195, 0.000000, 0.112575
0.910514, 0.000000, 0.000000, 0.000000
2.05194, 0.68151, 1.08066, 1.18072
0.000000, 1.00713, 0.000000, 0.000000
0.000000, 0.000000, 0.000000, 0.000000
0.990226, 0.800568, 0.188847, 0.000000
0.000000, 0.000000, 0.000000, 0.391282
0.650751, 1.99782, 0.000000, 0.000000
0.000000, 0.000000, 0.967856, 1.11477
0.867936, 1.06036, 0.000000, 0.000000
0.000000, 0.965656, 0.000000, 0.957694
1.07711, 0.0700976, 2.04865, 2.93375
0.000000, 0.575322, 0.544185, 0.623918
0.349489, 0.86331, 1.95621, 2.13301
0.976009, 0.000000, 0.999781, 0.000000
0.985848, 0.000000, 0.000000, 0.786805
0.230139, 0.000000, 0.0543335, 1.05526
2.04088, 1.05005, 0.647225, 0.000000
0.602375, 0.364139, 0.000000, 1.03627
0.000814462, 0.989956, 0.000000, 0.292419
0.737206, 1.1395, 0.985987, 3.45728
3.22198, 1.47859, 0.938583, 2.00235
0.267471, 2.72257, 0.992187, 0.000000
1.43587, 0.473948, 0.707779, 1.93686
2.50832, 0.978, 0.0896439, 0.866999
0.000000, 0.000000, 0.000000, 0.000000
0.000000, 0.000000, 0.000000, 0.000000
0.975701, 0.228504, 1.74415, 0.307307
0.701499, 0.000000, 2.71296, 1.87871
0.309736, 1.01817, 2.52038, 0.257877
2.19431, 0.000000, 0.328104, 3.99653
0.537901, 0.000000, 2.27848, 6.66731
2.31465, 1.00472, 3.29533, 4.66035
0.855076, 3.31834, 2.86115, 2.00204
1.03379, 0.75495, 0.239874, 1.87477
0.051502, 1.14037, 1.37105, 3.53941
0.000000, 2.45646, 0.471306, 3.58362
1.14139, 1.16188, 0.972397, 2.04075
0.503343, 2.64963, 1.71299, 0.447666
1.51356, 0.000000, 1.77675, 0.53049
0.0520033, 1.67693, 0.123041, 0.913208
1.09402, 0.390484, 2.09849, 1.13092
2.07929, 1.08772, 1.23242, 1.98158
0.0308108, 0.000000, 0.481414, 2.4329
0.000000, 0.000000, 0.000000, 0.000000
0.000000, 0.000000, 0.000000, 0.000000
0.994492, 0.000000, 0.000000, 0.954248
0.561965, 0.418795, 0.777496, 0.243137
0.964452, 0.050155, 0.000000, 0.228063
1.06273, 0.645185, 1.00048, 0.000000
0.993079, 0.000000, 0.000000, 0.000000
1.97995, 1.02415, 0.000000, 0.000000
1.02886, 0.968652, 0.000000, 0.000000
0.000000, 0.000000, 0.000000, 0.118443
0.855294, 1.00925, 0.995975, 0.000000
0.000000, 0.000000, 0.849574, 0.236286
0.000000, 0.000000, 1.50592, 0.898218
0.652628, 0.000000, 0.000000, 1.55487
0.358902, 1.00949, 2.93216, 1.17023
0.203203, 1.75221, 0.000000, 1.40839
0.607968, 0.563931, 0.415303, 0.000000
0.000000, 1.97069, 1.16923, 2.61467
1.1948, 2.07892, 0.945516, 0.000000
0.000000, 0.000000, 0.000000, 0.000000
0.97249, 0.000000, 0.000000, 1.10116
0.000000, 0.445736, 0.515363, 1.93592
0.000000, 0.000000, 0.000000, 2.08999
2.1656, 0.000000, 0.000000, 0.000000
0.000000, 0.000000, 0.000000, 0.000000
0.000000, 0.000000, 1.99331, 1.13808
0.000000, 0.000000, 0.701159, 0.000000
0.000000, 0.000000, 1.08169, 0.907285
0.0932035, 1.94157, 0.000000, 0.000000
0.383534, 1.07425, 1.07982, 0.418371
0.000000, 0.000000, 0.909983, 0.0415153
0.281209, 2.87085, 0.727338, 0.438938
0.585804, 0.000000, 0.000000, 0.000000
0.000000, 0.000000, 1.98343, 0.210589
0.937067, 0.000000, 0.000000, 0.000000
0.000000, 0.778837, 1.2054, 1.0131
1.93728, 0.000000, 0.000000, 0.000000
1.00633, 0.522973, 1.51067, 0.218555
1.08695, 1.55648, 0.0739683, 0.0710556
1.26095, 2.22448, 1.50921, 0.958348
0.547819, 0.460398, 0.000000, 0.000000
0.000000, 0.000000, 0.000000, 0.201114
0.784186, 0.000000, 0.4953, 1.48676
1.75923, 0.340987, 0.838963, 0.131077
0.000000, 0.000000, 0.000000, 0.000000
1.41169, 1.06308, 0.449281, 0.000000
0.000000, 0.000000, 0.000000, 2.05931
0.88699, 0.287949, 0.737546, 0.000000
1.54175, 0.444337, 0.754133, 0.247688
0.000000, 0.0364717, 2.98473, 0.435867
1.50362, 0.830403, 1.17772, 0.60422
0.398949, 1.58349, 0.418141, 1.98275
0.0406943, 0.168843, 0.832138, 0.000000
0.506368, 1.58009, 0.000000, 0.000000
0.000000, 1.82794, 1.06391, 1.05264
0.000000, 0.000000, 0.000000, 0.000000
1.6105, 0.444312, 0.960908, 0.000000
0.000000, 0.000000, 0.000000, 0.000000
0.000000, 0.000000, 0.000000, 0.000000
1.69007, 2.82363, 0.365477, 0.000000
0.000000, 0.565785, 2.4231, 0.000000
0.000000, 0.000000, 0.000000, 2.71556
0.244181, 0.89198, 1.13581, 0.000000
1.02634, 0.000000, 0.419961, 0.588534
0.000000, 0.000000, 0.000000, 0.918083
1.00547, 0.0176078, 1.03164, 0.252807
0.572878, 1.48405, 1.57647, 0.000000
0.533847, 0.189578, 0.335211, 0.0476773
1.12138, 1.22408, 1.82868, 0.407028
2.05774, 0.467498, 1.74344, 1.30773
0.000000, 0.000000, 0.998597, 0.000000
2.17319, 1.71997, 1.45805, 2.08717
1.49209, 0.000000, 0.000000, 0.000000
0.000000, 1.01732, 1.03177, 0.000000
0.000000, 0.000000, 0.000000, 0.000000
0.000000, 0.997729, 0.000000, 0.000000
0.000000, 0.000000, 0.000000, 0.000000
0.497683, 1.64743, 0.758066, 1.85932
0.218993, 0.000000, 0.975389, 0.000000
1.23915, 1.15768, 1.72186, 0.000000
0.961039, 0.000000, 0.000000, 0.000000
0.000000, 0.000000, 0.000000, 0.000000
1.40312, 1.11148, 1.1118, 0.406935
0.949318, 0.874566, 0.126566, 0.0634262
0.953575, 0.247665, 2.80728, 0.454072
1.12708, 2.08942, 0.365571, 0.000000
0.000000, 0.0127607, 2.12303, 1.01167
0.000000, 0.000000, 0.000000, 0.000000
0.660444, 1.1915, 0.225885, 1.12639
0.0467349, 2.95001, 0.000000, 1.32793
0.686523, 0.000000, 1.54037, 0.374431
0.962466, 0.906301, 1.05914, 0.0109858
0.000000, 0.000000, 1.05818, 0.000000
0.000000, 1.27612, 1.373, 1.22554
0.000000, 2.9065, 0.000000, 2.19921
1.00363, 0.997322, 0.000000, 1.97023
1.0133, 0.757626, 2.15962, 2.06112
0.197481, 2.82827, 0.24318, 0.714014
1.34991, 2.2276, 1.71573, 0.734749
0.827599, 0.18115, 1.00129, 1.0003
0.000000, 0.000000, 1.01038, 1.00347
0.553575, 2.13284, 0.345028, 0.000000
0.000000, 1.001, 1.04194, 1.0147
0.000000, 0.000000, 1.07011, 0.000000
1.14701, 0.000000, 0.997049, 0.997033
0.00855603, 0.000000, 0.000000, 0.000000
0.450233, 0.521221, 0.000000, 0.778938
2.076, 0.164611, 0.000000, 0.000000
0.220216, 2.94661, 0.000000, 1.05897
0.000000, 0.666067, 0.298423, 0.000000
0.000000, 0.954491, 0.000000, 0.000000
0.345182, 1.58971, 0.520588, 0.443216
1.09002, 0.000000, 0.934427, 2.1374
0.959926, 0.000000, 0.000000, 2.00297
1.06403, 0.962199, 0.000000, 2.95019
0.000000, 0.000000, 0.0514473, 1.10563
2.323, 1.50036, 0.000000, 0.000000
0.929413, 0.958982, 0.781954, 0.18869
1.03391, 1.00414, 0.000000, 0.000000
0.000000, 0.000000, 0.000000, 0.000000
0.000000, 0.864604, 1.18562, 0.000000
0.000000, 0.000000, 0.000000, 0.000000
0.000000, 0.000000, 0.000000, 0.000000
0.978023, 1.10739, 0.000000, 0.000000
1.0194, 0.000000, 0.000000, 0.000000
0.000000, 0.000000, 0.000000, 0.89077
0.092174, 3.01923, 1.00911, 1.01461
0.000000, 1.49513, 1.50273, 2.012
1.75588, 0.228369, 0.000000, 0.0509032
0.903244, 0.279194, 0.873841, 0.000000
1.00113, 0.000000, 0.70871, 0.283728
0.000000, 0.000000, 0.000000, 0.000000
0.000000, 0.000000, 0.000000, 0.000000
0.663736, 0.344899, 1.9219, 0.000000
0.0391268, 1.08086, 0.146334, 0.36772
0.785681, 0.000000, 0.000000, 0.655721
0.285877, 0.000000, 1.95108, 0.019864
1.09543, 0.000000, 0.000000, 1.11318
0.564568, 1.48019, 0.000000, 0.000000
0.000000, 0.000000, 0.000000, 0.206039
2.15884, 0.689746, 0.000000, 0.000000
0.000000, 1.96352, 0.000000, 0.000000
0.994586, 0.000000, 0.000000, 0.000000
0.000000, 1.03333, 0.000000, 0.000000
0.000000, 0.000000, 1.95702, 0.000000
0.182552, 1.7994, 1.02474, 0.000000
1.12784, 1.91389, 0.765044, 0.247792
0.000000, 0.0393157, 2.22422, 1.77403
0.000000, 1.0053, 0.953462, 0.000000
2.07573, 2.54052, 2.39118, 0.000000
1.9934, 0.000000, 0.000000, 0.000000
0.000000, 0.000000, 1.67573, 1.09138
0.255596, 0.000000, 1.01236, 0.000000
1.01571, 0.290519, 1.63071, 0.494811
0.5093, 0.646449, 0.302017, 2.08168
1.00622, 0.0582966, 0.92726, 0.249947
0.75815, 0.47372, 3.0834, 0.454995
0.000000, 0.000000, 0.894987, 1.09878
0.979766, 0.180467, 1.07054, 0.774128
0.000000, 0.997526, 0.679825, 1.31992
0.000000, 1.07149, 0.000000, 2.11166
1.06565, 1.42358, 2.38783, 0.000000
0.620347, 0.400299, 0.770726, 0.196809
0.000000, 0.000000, 0.000000, 0.0835108
0.227448, 1.36055, 0.337485, 0.000000
0.000000, 0.275141, 2.85264, 0.726905
0.111749, 0.834411, 0.650429, 1.46894
0.000000, 0.000000, 0.000000, 2.56586
0.43522, 0.000000, 0.0647151, 0.978208
0.000000, 1.00074, 0.000000, 0.000000
0.000000, 0.000000, 0.000000, 0.000000
0.990042, 0.000000, 0.000000, 0.000000
0.000000, 1.01323, 0.000000, 0.669148
0.33444, 1.81733, 0.138946, 0.000000
0.000000, 0.000000, 0.000000, 0.000000
0.992709, 0.000000, 0.000000, 0.828121
1.17938, 0.983951, 2.03388, 0.000000
0.658523, 1.38946, 1.59072, 0.544535
3.68984, 0.378595, 0.981365, 0.000000
3.06099, 0.968317, 0.212669, 0.774639
0.401331, 1.56279, 1.55625, 0.392518
0.000000, 0.000000, 0.000000, 0.000000
0.978091, 1.26625, 1.73716, 0.441051
1.53363, 0.65411, 0.381991, 1.63822
1.33765, 0.00888578, 1.98506, 0.96564
0.000000, 0.000000, 0.000000, 0.000000
0.000000, 0.977005, 0.973487, 0.950092
2.00952, 0.956838, 0.000000, 0.000000
0.000000, 0.575094, 0.532548, 1.46403
1.59647, 1.07508, 0.000000, 0.000000
1.0055, 0.267364, 0.707136, 0.439112
0.508988, 0.97308, 0.000000, 0.955541
1.98369, 0.0725249, 0.136388, 0.964321
0.000000, 0.404303, 1.14752, 0.555364
0.977844, 0.992657, 1.86384, 0.123499
0.000000, 0.000000, 0.000000, 0.000000
0.437452, 0.544636, 1.99573, 0.000000
0.000000, 1.83827, 1.11848, 0.101003
1.04863, 1.28194, 2.25497, 0.000000
0.570662, 2.3862, 0.000000, 1.82399
0.138899, 0.000000, 0.000000, 0.000000
0.000000, 0.000000, 0.000000, 0.000000
1.05324, 0.738951, 0.178671, 1.01945
0.00607302, 0.000000, 0.258126, 0.67286
1.51072, 0.525525, 0.000000, 0.326314
0.000000, 0.652628, 0.000000, 0.000000
2.27816, 0.78133, 1.05205, 0.529869
2.47143, 0.000000, 1.5205, 0.41012
0.129415, 0.00313352, 0.927843, 0.000000
0.000000, 0.945741, 2.64334, 1.45188
0.756848, 2.09835, 0.170251, 0.000000
0.106329, 1.07088, 1.84681, 0.3971
0.615201, 3.27327, 2.62969, 0.746642
0.223209, 0.000000, 0.000000, 0.000000
0.000000, 0.000000, 0.418391, 0.553227
0.623234, 1.08264, 0.280546, 0.850043
0.0917447, 2.03546, 0.000000, 0.322193
2.27113, 1.57447, 1.51165, 0.409478
0.000000, 0.000000, 0.967859, 1.06838
0.945622, 1.02638, 0.33484, 0.716464
0.500083, 0.485713, 0.738519, 0.322454
0.000000, 0.000000, 0.000000, 0.000000
0.000000, 0.97988, 0.425677, 1.52436
1.01227, 1.4911, 0.539223, 0.000000
0.000000, 0.000000, 0.000000, 0.000000
0.000000, 0.000000, 0.960969, 0.700807
1.34222, 0.832863, 0.1276, 1.08788
1.29031, 1.69845, 1.25479, 1.05145
0.572259, 0.000000, 0.000000, 1.54124
0.358966, 0.000000, 0.947499, 0.000000
0.000000, 0.000000, 1.01677, 0.000000
0.000000, 0.000000, 0.802237, 1.06605
0.0549875, 0.000000, 1.11596, 0.000000
1.45789, 1.55012, 0.000000, 0.000000
0.000000, 0.000000, 0.000000, 0.000000
0.167712, 0.813349, 1.93199, 0.000000
0.000000, 1.0079, 1.79724, 0.279971
0.991285, 0.0790963, 0.9718, 0.000000
2.01635, 0.000000, 0.936288, 0.964918
0.000000, 0.000000, 0.900958, 1.11001
0.000000, 0.309347, 1.70948, 0.000000
0.442673, 1.1216, 0.486093, 0.000000
0.000000, 0.000000, 1.02562, 0.000000
0.191918, 0.809904, 0.000000, 2.40099
3.11862, 2.11087, 2.20799, 1.91959
0.292191, 0.145391, 0.132515, 2.19606
0.980489, 1.72722, 0.575173, 0.139998
0.000000, 0.000000, 1.01946, 0.000000
1.05042, 0.902676, 2.08276, 0.000000
0.000000, 0.000000, 0.0852657, 1.5136
1.28613, 1.11948, 0.0738702, 0.000000
0.202484, 1.06481, 2.53999, 1.21034
0.000000, 0.969826, 0.000000, 0.844992
1.0908, 1.05857, 0.938476, 0.248274
1.77908, 0.000000, 0.000000, 0.000000
0.952159, 0.000000, 1.82448, 1.0627
0.000000, 0.000000, 0.000000, 0.000000
0.000000, 0.000000, 0.631201, 0.31592
0.000000, 0.000000, 0.0437765, 0.950716
0.000000, 0.000000, 0.000000, 0.508612
1.06366, 1.17491, 1.14057, 1.13685
1.16215, 2.1964, 1.95742, 1.53191
2.48404, 0.000000, 1.57982, 1.11669
0.36025, 0.799761, 0.155164, 2.04726
0.000000, 0.000000, 0.000000, 0.000000
0.000000, 0.000000, 0.000000, 0.000000
0.982636, 0.000000, 0.000000, 0.000000
0.000000, 0.000000, 0.000000, 0.000000
0.000000, 0.696646, 0.263717, 0.931414
3.042, 0.000000, 0.000000, 0.000000
0.000000, 0.479827, 1.14109, 1.78823
0.656076, 1.03817, 0.99304, 0.000000
1.06128, 0.000000, 0.321683, 0.65281
0.000000, 0.000000, 2.26677, 0.936331
0.000000, 0.000000, 0.000000, 0.174544
0.797022, 0.000000, 0.961481, 0.931446
0.000000, 0.000000, 0.000000, 1.02887
0.0717532, 0.000000, 0.000000, 0.982376
0.000000, 0.000000, 0.60774, 0.412699
0.000000, 0.000000, 0.000000, 0.000000
0.000000, 0.9756, 0.000000, 0.000000
0.000000, 0.000000, 1.66615, 0.260804
0.000000, 0.000000, 0.107244, 0.905671
0.000000, 0.000000, 2.43403, 1.0878
1.47799, 0.000000, 0.000000, 0.937058
2.15121, 0.944509, 0.641404, 0.334215
0.990126, 0.000000, 0.000000, 0.000000
0.795166, 0.192648, 1.94987, 0.000000
0.183621, 0.822233, 0.705609, 1.19455
1.15372, 0.906018, 1.73167, 0.254224
0.000000, 0.000000, 0.000000, 0.000000
0.970602, 0.000000, 0.954322, 0.000000
0.977532, 0.000000, 0.954739, 0.000000
0.0662533, 0.874314, 0.000000, 0.949486
1.00359, 0.988595, 0.000000, 0.000000
0.000000, 0.000000, 0.000000, 0.000000
0.200502, 2.07682, 2.06197, 0.654592
0.000000, 1.62208, 0.325134, 0.896895
0.141259, 0.000000, 0.000000, 1.02519
0.979471, 0.000000, 0.000000, 0.659228
1.10372, 1.06415, 1.98003, 1.16552
1.07789, 1.32029, 1.59134, 0.386529
0.646302, 0.000000, 0.000000, 0.94571
0.000000, 0.000000, 0.000000, 1.01763
0.000000, 1.05471, 0.000000, 0.000000
1.06897, 0.635694, 0.27797, 0.000000
1.03982, 1.06671, 0.960868, 0.000000
0.000000, 0.000000, 0.921592, 0.000000
0.000000, 0.000000, 0.000000, 0.000000
0.000000, 0.000000, 0.101028, 0.235208
0.32901, 0.343461, 1.65659, 1.11394
0.234709, 0.000000, 1.04312, 0.143115
1.0601, 0.770445, 0.410882, 0.537601
0.000000, 0.680902, 2.10528, 1.0774
0.0934644, 0.000000, 0.000000, 0.000000
0.000000, 0.000000, 0.000000, 2.00907
0.468478, 0.152253, 1.2128, 1.10102
0.000000, 0.967694, 0.983583, 0.425256
0.598272, 0.000000, 0.000000, 0.000000
0.000000, 1.05721, 1.14488, 0.000000
1.01497, 1.02831, 1.19258, 0.000000
0.969937, 1.98219, 0.13032, 1.00039
5.29241, 1.10801, 0.000000, 1.04482
0.000000, 0.470082, 1.43254, 0.846438
1.12686, 0.2116, 1.0176, 0.976017
0.145762, 3.89966, 0.000000, 0.000000
0.559745, 0.495393, 0.000000, 1.65728
0.379497, 0.00230801, 1.92497, 1.0065
1.26251, 0.701779, 0.465833, 1.50609
0.989075, 0.000000, 0.000000, 1.02411
0.986534, 3.14588, 0.825693, 0.314579
0.656382, 0.000000, 0.612771, 1.70739
2.12605, 2.06523, 0.20482, 0.000000
0.161111, 1.98954, 1.67353, 0.000000
0.000000, 0.000000, 0.741002, 0.260484
0.900381, 1.00281, 0.000000, 0.000000
0.000000, 1.39266, 1.05151, 0.465464
0.000000, 0.000000, 0.830648, 3.03501
0.0313267, 0.000000, 1.18071, 0.706836
0.457835, 1.11824, 1.05507, 1.10483
1.92253, 0.366533, 2.01756, 0.101289
2.88801, 1.1499, 0.361669, 1.54473
3.10326, 0.000000, 0.740741, 1.93573
2.96686, 0.0573411, 1.39784, 4.87438
0.326377, 2.04687, 2.04983, 1.48473
0.000000, 1.77327, 1.23792, 2.02921
0.344197, 3.70816, 0.000000, 0.945871
0.000000, 0.961481, 0.000000, 1.47292
1.36896, 0.167034, 0.000000, 0.000000
0.209956, 2.04235, 1.30384, 0.000000
0.884817, 1.39321, 0.986619, 0.000000
0.000000, 0.189363, 1.12588, 1.79802
0.000000, 0.000000, 1.00329, 0.98598
0.706566, 0.267894, 0.000000, 0.000000
0.957362, 0.000000, 0.000000, 0.000000
0.000000, 0.000000, 0.000000, 0.000000
4.06119, 0.000000, 1.00954, 0.000000
1.9776, 1.0783, 2.00589, 0.000000
4.71361, 0.000000, 3.11153, 0.000000
0.000000, 0.163565, 3.85261, 0.000000
0.000000, 0.000000, 0.000000, 0.000000
0.000000, 0.000000, 0.000000, 0.000000
1.01977, 0.000000, 0.000000, 1.90039
0.000000, 0.59895, 1.1263, 1.25824
0.000000, 0.000000, 0.000000, 0.000000
1.20322, 0.735267, 0.000000, 0.000000
1.00813, 0.704129, 0.263101, 2.01631
0.0114409, 1.01296, 1.13326, 0.831261
0.000000, 0.000000, 0.000000, 0.000000
1.84367, 1.10903, 0.141326, 0.000000
1.11228, 0.913213, 0.000000, 0.96761
0.534611, 0.490573, 0.000000, 1.82849
1.17872, 0.000000, 1.96273, 0.000000
0.000000, 0.37493, 1.64243, 0.000000
1.9485, 0.000000, 0.000000, 0.000000
2.1214, 0.000000, 0.000000, 0.322877
0.702226, 0.95682, 0.942539, 0.000000
0.823103, 0.222848, 0.980732, 0.0710674
1.9895, 0.257852, 0.738044, 0.436148
0.538043, 0.000000, 0.000000, 0.956289
0.971145, 0.0848207, 1.00407, 0.000000
0.611716, 1.44619, 0.000000, 0.000000
1.7266, 0.337585, 1.77288, 0.279972
2.03622, 0.000000, 0.000000, 0.000000
0.414812, 1.07539, 0.476624, 1.01427
0.795864, 0.189651, 1.95187, 2.90741
0.991034, 0.000000, 0.739187, 2.26433
0.566955, 0.440577, 0.796079, 0.263234
0.000000, 0.000000, 0.000000, 0.218065
1.76843, 1.27479, 0.000000, 0.624245
0.000000, 0.000000, 0.000000, 1.0139
0.0709152, 0.900176, 0.000000, 0.702686
1.26999, 0.000000, 1.60889, 0.339529
0.972905, 0.000000, 1.99973, 0.111733
1.89953, 0.980947, 0.000000, 0.996927
0.000000, 0.644885, 0.306651, 0.000000
0.000000, 0.976118, 0.000000, 0.000000
1.346, 0.664084, 0.000000, 0.63416
0.385925, 0.317512, 0.952543, 0.635024
1.34964, 0.000000, 1.68689, 0.000000
0.000000, 0.000000, 0.000000, 0.000000
0.801842, 1.14663, 0.992987, 0.000000
0.22242, 1.08684, 1.6445, 2.98671
0.992865, 0.990301, 1.03779, 2.65446
0.3377, 2.11571, 0.000000, 1.44133
0.74942, 1.05406, 0.982584, 2.16552
1.00061, 0.000000, 0.000000, 1.98675
1.1226, 1.08104, 1.40972, 1.38763
1.09147, 0.57252, 0.404082, 0.000000
0.000000, 0.000000, 0.987482, 0.000000
0.248056, 1.84284, 0.000000, 0.000000
0.599179, 0.36016, 0.000000, 0.000000
0.951403, 0.964946, 0.000000, 0.577425
1.44625, 0.000000, 0.602198, 2.40128
0.985863, 0.000000, 2.80541, 2.0813
3.21156, 2.47364, 0.100433, 1.58667
1.59236, 2.57423, 0.385802, 0.797822
0.204915, 1.92438, 0.0152231, 2.12904
1.85823, 1.32994, 1.59884, 0.000000
0.000000, 0.727268, 1.09995, 2.14091
2.92672, 3.00408, 1.9108, 0.794654
1.80264, 4.08197, 6.06004, 0.724649
2.71387, 1.52287, 2.96637, 2.05558
0.46488, 2.77109, 2.65744, 2.82099
4.87317, 2.09048, 2.29695, 1.91483
1.00131, 1.28025, 1.32566, 4.46461
1.1209, 2.10719, 2.0054, 0.483791
0.955729, 0.000000, 0.000000, 0.941817
2.95491, 0.135883, 1.06632, 2.02684
7.87502, 0.000000, 3.11017, 0.000000
0.769582, 0.194148, 3.01527, 1.10813
0.967623, 0.000000, 0.000000, 0.000000
0.538685, 1.56617, 0.000000, 1.65335
2.38523, 0.0100271, 1.02135, 0.000000
1.94522, 0.000000, 1.04436, 0.61961
0.426961, 0.000000, 0.000000, 0.000000
1.02404, 0.309898, 2.62041, 0.34149
1.60847, 0.511591, 1.075, 0.370636
2.04356, 0.000000, 0.00829084, 1.03413
0.000000, 0.283061, 0.689202, 0.464141
0.502971, 0.000000, 0.000000, 1.68278
0.27964, 1.00707, 2.92527, 0.000000
0.000000, 0.000000, 1.02046, 0.000000
1.68478, 0.286883, 0.000000, 0.953046
0.000000, 0.000000, 0.000000, 0.000000
0.000000, 1.12555, 0.896635, 0.000000
0.966361, 0.000000, 0.000000, 0.000000
0.000000, 0.312566, 0.690032, 0.000000
0.000000, 0.657422, 1.24518, 0.000000
0.000000, 0.956629, 0.000000, 0.000000
0.000000, 1.05876, 0.000000, 0.976369
1.98723, 1.13314, 1.99744, 1.05413
1.01195, 0.000000, 0.5752, 1.38101
0.000000, 1.63431, 0.40742, 0.955583
1.88415, 1.38175, 1.01801, 1.95069
0.000000, 0.000000, 1.05763, 1.9649
0.000000, 0.000000, 0.000000, 0.000000
0.000000, 0.000000, 0.982044, 0.000000
0.000000, 0.000000, 0.000000, 0.000000
0.000000, 0.000000, 0.000000, 0.000000
0.000000, 2.10034, 0.000000, 0.000000
0.489434, 0.482735, 0.000000, 1.91455
1.9582, 3.41275, 1.99068, 0.170347
2.85376, 0.000000, 0.302749, 0.373953
0.215252, 0.1231, 0.000000, 0.000000
0.994782, 0.961203, 0.000000, 0.000000
0.000000, 0.941804, 0.978333, 0.000000
0.000000, 0.985255, 0.000000, 0.000000
0.000000, 0.000000, 0.000000, 0.41568
1.06277, 1.34152, 1.53549, 0.000000
2.05219, 1.96419, 0.00412753, 1.01169
0.000000, 0.947735, 0.000000, 0.98182
1.08179, 0.000000, 0.000000, 0.000000
0.000000, 0.000000, 1.04978, 0.329793
0.708738, 0.000000, 1.94302, 1.69347
0.315179, 0.000000, 0.978785, 0.0960652
0.948464, 1.26801, 0.758399, 0.466901
1.51883, 1.58188, 0.337441, 0.000000
0.000000, 0.96932, 2.24391, 1.91049
0.000000, 1.0123, 0.000000, 0.000000
0.000000, 0.000000, 0.887826, 0.137135
2.15942, 1.96133, 0.238729, 1.68242
0.000000, 0.000000, 0.639811, 0.389884
0.840437, 1.04465, 1.09313, 0.00106794
0.000000, 0.98862, 0.753151, 1.24717
0.000000, 0.000000, 0.000000, 0.000000
0.931479, 0.0564287, 0.000000, 0.000000
0.000000, 0.000000, 0.507449, 1.09345
2.04886, 0.29353, 0.923224, 0.117821
0.959206, 0.160076, 0.781508, 0.35067
0.626682, 0.976853, 0.000000, 0.796994
1.29279, 1.80332, 0.164987, 1.07574
0.913624, 0.583629, 2.37451, 0.000000
0.000000, 1.58164, 1.32583, 0.000000
1.99253, 0.0633087, 2.34615, 1.6467
0.000000, 1.06919, 0.000000, 1.91033
0.000000, 0.000000, 0.000000, 0.000000
0.958823, 0.000000, 0.000000, 0.000000
0.000000, 0.000000, 0.000000, 1.87156
0.239425, 0.140715, 1.35738, 0.9527
0.21872, 0.736537, 0.000000, 0.000000
0.000000, 0.000000, 0.000000, 0.000000
0.000000, 0.000000, 0.000000, 0.281839
1.71464, 0.949068, 0.000000, 0.642573
0.35385, 0.000000, 0.000000, 1.01462
1.96354, 0.000000, 0.000000, 0.000000
0.000000, 0.000000, 0.666903, 0.309218
0.000000, 0.989523, 2.07095, 0.000000
0.000000, 0.000000, 0.000000, 0.952472
0.632176, 0.37582, 0.000000, 0.887769
1.0656, 0.000000, 1.1776, 1.11867
0.738599, 1.96858, 0.000000, 0.954322
0.000000, 1.994, 0.000000, 0.000000
0.267441, 2.65276, 1.34727, 0.70549
0.000000, 0.000000, 0.000000, 0.970604
0.000000, 0.961836, 2.12077, 1.07048
0.909137, 1.03771, 0.000000, 0.000000
0.649832, 3.30155, 0.815476, 0.15931
0.000000, 0.000000, 0.217757, 1.79859
0.000000, 0.000000, 0.000000, 0.000000
0.000000, 0.863638, 1.05674, 0.029557
0.949714, 0.000000, 0.000000, 0.000000
1.0057, 0.000000, 1.00203, 0.000000
0.000000, 0.0147692, 1.91855, 0.000000
0.000000, 0.000000, 0.58618, 0.636019
1.40914, 0.940615, 0.228489, 0.000000
2.02024, 0.987018, 2.47073, 1.55033
2.04935, 0.000000, 0.000000, 0.000000
0.000000, 1.00577, 0.000000, 0.000000
0.000000, 2.09738, 0.989019, 0.931655
2.07403, 0.655763, 0.352047, 0.000000
1.13344, 0.0284764, 0.979232, 0.205498
0.74129, 0.431173, 0.631258, 0.57279
0.39049, 0.000000, 0.873003, 1.1629
0.0297757, 0.154535, 4.12579, 1.06567
0.649774, 0.000000, 0.000000, 1.57771
0.591389, 0.000000, 1.02915, 0.000000
0.972162, 0.000000, 0.000000, 0.000000
1.11646, 0.632976, 0.309934, 0.000000
1.88356, 0.0445017, 0.000000, 0.000000
0.312669, 0.628932, 0.515466, 2.70145
2.53121, 0.289368, 0.864209, 1.08246
0.993065, 0.000000, 0.000000, 0.000000
0.000000, 0.000000, 0.661343, 0.350532
0.000000, 0.000000, 0.000000, 0.000000
0.000000, 0.000000, 0.429013, 0.620594
0.637635, 0.000000, 0.318818, 0.000000
0.000000, 0.0694105, 0.929342, 0.000000
0.330069, 0.605818, 0.000000, 0.610193
0.349436, 0.000000, 1.04295, 0.000000
0.000000, 0.000000, 0.000000, 0.000000
1.445, 2.10893, 0.45115, 0.000000
0.000000, 1.94383, 0.0865248, 0.000000
0.000000, 2.29907, 1.6994, 0.974398
0.599687, 1.05723, 0.277068, 3.94588
0.203448, 0.0897627, 0.90631, 0.000000
0.000000, 1.48697, 0.559991, 0.000000
0.000000, 0.961575, 0.000000, 0.000000
0.000000, 0.000000, 0.322718, 0.694539
0.510442, 1.52267, 1.05714, 0.755329
1.17049, 1.99443, 0.09424, 1.88697
0.000000, 0.34415, 0.623702, 0.000000
0.942714, 0.000000, 0.000000, 0.000000
0.620569, 0.000000, 1.30072, 0.000000
0.98405, 1.55085, 2.69113, 0.000000
1.0952, 0.967671, 3.86459, 1.12041
0.939501, 0.000000, 0.990884, 1.0295
1.96546, 2.76802, 1.09283, 1.60076
1.35831, 1.95208, 0.00269185, 0.000000
1.69923, 0.000000, 1.32213, 0.973079
0.000000, 1.50325, 0.491037, 1.01793
0.968226, 0.124498, 0.823301, 0.321059
0.681798, 0.480489, 0.463623, 0.969724
0.000000, 0.92563, 0.118498, 0.937802
0.181991, 1.14504, 1.07383, 0.652216
1.09254, 0.000000, 0.000000, 0.000000
0.000000, 0.000000, 0.000000, 0.952591
1.06048, 0.000000, 0.51444, 0.532842
1.30845, 1.45811, 1.17543, 0.140457
0.0565099, 1.9012, 0.000000, 0.345903
1.09954, 1.07104, 0.455232, 0.715561
1.22862, 0.000000, 0.000000, 0.000000
2.15799, 0.8447, 0.0974799, 0.451694
0.502263, 2.27668, 0.686918, 1.00356
1.97543, 1.05646, 0.130428, 0.841058
0.000000, 1.02445, 0.000000, 0.000000
0.995337, 0.985472, 0.555579, 0.0690806
0.31233, 0.17363, 1.34962, 1.4201
1.47886, 0.586051, 1.38256, 0.76239
1.77303, 1.35262, 0.994249, 0.961372
0.000000, 0.971037, 0.000000, 0.985141
1.55773, 0.39567, 0.23292, 0.940356
3.52658, 0.119283, 2.50738, 0.000000
2.13541, 0.983918, 1.02305, 1.73461
2.36658, 0.000000, 0.000000, 0.952524
1.10553, 2.84425, 0.000000, 0.000000
0.000000, 0.000000, 0.000000, 1.84853
2.88409, 2.22394, 0.093108, 1.98359
0.990232, 2.21226, 1.50415, 1.16417
0.000000, 0.997128, 0.000000, 0.000000
0.000000, 0.0802758, 1.9195, 0.000000
0.000000, 0.000000, 0.570847, 0.461292
0.946648, 0.000000, 1.03525, 0.101251
0.938463, 0.000000, 1.09398, 2.0084
0.964895, 0.000000, 0.972777, 1.52984
1.36427, 2.26554, 0.0682265, 0.000000
0.246686, 1.06788, 1.63419, 0.000000
0.000000, 0.000000, 0.975843, 0.000000
1.01442, 0.000000, 1.00568, 0.000000
0.000000, 0.000000, 1.02558, 0.000000
0.000000, 0.000000, 0.000000, 1.0404
0.137448, 1.06928, 0.735855, 0.000000
0.957434, 0.000000, 1.77812, 0.28525
0.000000, 0.000000, 0.000000, 0.179071
0.824715, 0.000000, 0.978649, 0.000000
0.000000, 1.75066, 1.22878, 1.04405
0.0592046, 4.1062, 1.83068, 1.29563
1.49824, 4.1927, 1.20641, 1.84254
1.78379, 2.00681, 1.25313, 0.997776
1.63899, 3.40456, 0.000000, 0.000000
2.01811, 1.88224, 0.677836, 1.06988
1.09516, 3.22015, 1.9733, 0.978111
1.25908, 1.72559, 0.981488, 0.000000
1.00524, 2.48679, 0.463813, 0.994492
0.0477673, 0.000000, 0.000000, 0.335267
1.65567, 0.000000, 1.89456, 0.000000
1.00202, 0.000000, 1.14793, 0.252591
2.65404, 0.000000, 0.000000, 0.445612
1.07247, 0.440988, 0.71218, 1.99597
0.329297, 0.000000, 0.000000, 0.000000
0.318037, 0.694728, 0.000000, 0.000000
0.000000, 0.000000, 0.000000, 0.000000
0.000000, 0.000000, 0.000000, 0.000000
0.000000, 0.000000, 1.75091, 0.361328
0.81087, 2.07445, 0.000000, 0.968556
0.000000, 0.000000, 0.000000, 0.558471
1.54939, 0.683693, 0.330858, 0.000000
0.000000, 0.0504303, 1.07139, 2.83574
0.000000, 0.000000, 0.000000, 0.000000
1.65521, 0.294094, 0.000000, 0.926496
1.97392, 0.000000, 0.000000, 0.000000
0.000000, 0.946853, 0.000000, 0.000000
1.01135, 1.04751, 0.968654, 0.961194
0.000000, 0.000000, 0.000000, 0.000000
0.000000, 0.000000, 0.000000, 0.000000
0.977408, 1.0711, 1.10323, 0.848457
0.000000, 0.89121, 1.09075, 0.654767
0.37079, 0.000000, 0.000000, 1.94735
0.000000, 0.000000, 0.000000, 0.000000
0.000000, 1.9395, 0.669221, 5.3023
0.855039, 0.132787, 1.1105, 2.8039
0.524603, 1.63289, 0.000000, 0.000000
0.000000, 1.09398, 0.75952, 0.178715
0.000000, 0.000000, 0.000000, 2.01326
1.35324, 0.63197, 0.000000, 0.672771
0.348018, 0.887656, 0.159283, 0.000000
1.90994, 0.945225, 0.000000, 0.40947
1.53723, 0.000000, 0.000000, 0.806047
1.06792, 0.109924, 0.931342, 0.164884
0.80858, 0.000000, 0.000000, 0.544869
0.451315, 0.000000, 0.000000, 0.000000
0.000000, 0.000000, 1.42175, 1.89888
0.69781, 0.000000, 0.000000, 0.000000
0.000000, 0.90989, 0.137794, 1.15844
1.9039, 0.2457, 0.75286, 0.000000
0.000000, 0.984487, 0.000000, 0.782707
3.08265, 1.15702, 0.000000, 0.000000
0.989233, 1.381, 0.622308, 0.000000
0.000000, 0.000000, 0.000000, 0.000000
0.000000, 0.000000, 0.989844, 0.982522
0.993646, 0.000000, 0.000000, 0.683618
0.29255, 0.822098, 1.04797, 1.03667
0.000000, 0.25371, 0.697676, 1.96176
1.56401, 0.464284, 0.000000, 0.000000
0.000000, 0.951062, 0.000000, 0.000000
1.24306, 0.65415, 0.477323, 0.489308
0.993117, 0.000000, 0.000000, 0.969456
0.0343582, 0.000000, 0.000000, 0.989349
0.000000, 0.531543, 1.09761, 0.375698
2.03004, 0.000000, 1.95262, 0.000000
0.000000, 2.08732, 3.17802, 3.08133
1.54804, 2.33655, 0.663744, 2.55528
0.438045, 1.04998, 0.973964, 0.22367
1.73765, 0.973529, 0.971662, 0.968303
0.000000, 1.0565, 0.000000, 0.929004
0.986825, 0.000000, 0.000000, 0.000000
0.000000, 0.000000, 0.000000, 1.00311
0.96909, 0.000000, 0.000000, 0.000000
0.213755, 0.787356, 0.392235, 1.5643
1.60834, 0.404198, 0.000000, 0.98681
0.000000, 0.000000, 0.976042, 0.000000
0.000000, 0.000000, 0.000000, 0.000000
1.37632, 1.49877, 0.000000, 0.982755
1.2043, 1.83251, 0.000000, 0.000000
0.000000, 1.6121, 1.71804, 2.56183
0.000000, 2.0079, 1.14195, 3.04171
2.06225, 3.96182, 1.40055, 1.66116
1.1972, 0.759919, 0.987003, 0.000000
2.913, 0.000000, 0.000000, 0.000000
0.000000, 0.463554, 2.51891, 0.000000
2.74197, 0.259286, 1.94753, 0.0249265
0.877218, 0.413408, 1.49681, 0.000000
0.000000, 0.000000, 0.000000, 0.000000
0.000000, 3.95176, 0.11562, 1.00658
0.000000, 2.00513, 0.444699, 6.56321
0.000000, 0.000000, 0.000000, 1.9146
0.972669, 0.109884, 0.943595, 0.000000
0.984555, 0.000000, 0.563484, 1.04603
1.05027, 0.227258, 1.97448, 0.0477567
0.000000, 0.97341, 0.000000, 0.920311
0.000000, 0.604349, 0.378947, 0.000000
0.935607, 0.106505, 1.07597, 1.10659
1.43673, 1.82394, 1.61869, 0.000000
0.000000, 1.54799, 1.34484, 1.10292
0.972153, 0.138342, 0.969052, 0.000000
1.19603, 3.73788, 1.2133, 1.57384
1.09463, 0.206682, 0.987941, 1.01871
0.165945, 1.86985, 0.000000, 0.000000
0.000000, 0.000000, 0.000000, 0.941366
0.000000, 0.000000, 0.000000, 1.16945
1.47317, 2.54475, 0.000000, 0.000000
0.000000, 0.000000, 0.000000, 0.956688
0.0432409, 1.03379, 0.000000, 1.00616
0.460765, 0.613961, 0.000000, 0.000000
0.000000, 0.000000, 0.000000, 0.000000
0.18899, 0.838783, 0.000000, 0.000000
0.000000, 0.000000, 0.000000, 0.000000
0.000000, 2.27629, 0.156007, 0.883698
1.21266, 0.777587, 0.592981, 0.50056
2.09212, 0.760451, 0.20387, 0.937865
0.965184, 0.000000, 0.268348, 3.08318
1.02949, 0.528165, 0.975225, 0.724386
0.264496, 1.9433, 1.0713, 3.06582
0.901733, 0.000000, 0.000000, 0.000000
0.000000, 0.000000, 0.000000, 0.000000
0.000000, 0.000000, 0.000000, 0.931228
0.000000, 0.000000, 0.982731, 0.000000
0.771387, 0.30776, 0.000000, 1.03373
0.000000, 1.04206, 0.985996, 0.000000
0.000000, 2.0696, 1.85222, 1.48567
1.47391, 0.000000, 0.987568, 0.128607
0.855175, 0.000000, 0.000000, 0.51365
3.6009, 0.771371, 0.765231, 1.1652
0.922623, 1.00984, 1.74115, 0.976255
1.66395, 4.39817, 0.51895, 2.14297
0.000000, 0.959574, 0.000000, 1.05734
2.07987, 1.68861, 0.000000, 0.000000
0.000000, 0.000000, 0.000000, 0.000000
0.979446, 0.000000, 1.02998, 0.982513
0.000000, 0.000000, 0.000000, 1.02232
1.63314, 0.387556, 0.917455, 0.000000
0.000896177, 2.0965, 0.879107, 2.03359
0.000000, 0.000000, 0.540833, 0.412578
1.97251, 0.000000, 0.949892, 0.982117
0.000000, 0.000000, 0.000000, 0.000000
0.000000, 0.59545, 2.99004, 0.294535
1.00895, 0.977825, 1.13005, 0.000000
0.266008, 1.0908, 1.60387, 2.35225
0.97704, 0.000000, 1.95833, 0.000000
0.976853, 0.000000, 1.04519, 0.000000
0.413407, 1.62037, 1.02425, 0.000000
0.000000, 0.978534, 2.0243, 0.0567468
1.0471, 0.853903, 0.000000, 0.968977
0.000000, 1.56993, 2.03554, 0.280048
0.000000, 0.000000, 1.02975, 0.000000
0.000000, 0.000000, 0.511619, 0.563735
0.000000, 0.987484, 0.834912, 1.05773
2.06757, 0.137034, 0.866673, 1.34854
1.65103, 0.000000, 0.000000, 0.000000
0.000000, 2.75512, 0.216988, 1.01108
0.000000, 1.98856, 0.972691, 1.05911
0.000000, 0.000000, 0.000000, 1.96138
0.000000, 1.98086, 1.94906, 1.39228
1.80029, 1.08221, 1.11424, 0.516055
0.98871, 0.978367, 0.000000, 0.000000
0.982961, 1.97241, 0.000000, 0.000000
0.000000, 0.000000, 0.000000, 0.000000
0.000000, 0.000000, 0.000000, 0.000000
0.186889, 1.72975, 0.964189, 0.000000
0.000000, 0.000000, 0.000000, 0.82625
0.138718, 0.0441872, 0.936995, 0.24373
0.798637, 1.04555, 1.61136, 0.496491
0.737004, 0.307214, 1.01861, 0.000000
0.000000, 0.000000, 0.000000, 0.000000
0.000000, 0.000000, 0.977765, 0.975863
0.000000, 0.932441, 0.0670437, 0.327391
3.26073, 2.64943, 0.66034, 1.50952
1.54476, 0.747368, 2.05419, 0.211391
0.96409, 0.0950328, 0.946451, 0.000000
0.000000, 0.978971, 2.26596, 0.616053
0.358683, 0.000000, 0.000000, 1.01464
0.000000, 0.394603, 2.58436, 1.16838
3.31267, 0.508382, 1.03397, 0.761905
1.19226, 2.89641, 0.0465242, 0.000000
0.000000, 0.000000, 0.144768, 0.195451
1.02972, 1.46222, 1.12522, 1.19525
0.979779, 0.000000, 0.96561, 0.987648
0.724917, 1.2372, 0.000000, 0.000000
0.000000, 2.5124, 0.473476, 1.02575
0.000000, 0.000000, 0.000000, 0.000000
0.000000, 0.000000, 2.08468, 0.000000
0.000000, 1.00205, 0.0942939, 2.07695
1.82106, 0.000000, 0.000000, 0.982569
0.667655, 1.04195, 1.162, 1.3024
1.13267, 0.989857, 1.54837, 2.37745
1.74717, 2.20989, 4.44052, 3.23057
4.09893, 0.94385, 1.86271, 1.16028
3.09945, 0.834815, 0.000000, 0.000000
0.000000, 0.000000, 1.68503, 0.288447
0.000000, 0.000000, 0.000000, 0.000000
0.000000, 0.000000, 2.89205, 1.03171
0.000000, 0.000000, 0.000000, 0.000000
0.000000, 0.000000, 0.974191, 0.671548
1.45158, 0.000000, 1.66058, 1.42399
0.000000, 0.000000, 0.964004, 0.0226323
0.000000, 1.01687, 0.343201, 2.63085
0.523219, 0.439594, 0.000000, 0.000000
0.965177, 0.000000, 0.000000, 0.000000
0.311015, 1.70343, 0.482082, 1.11417
0.436452, 0.000000, 0.000000, 1.01398
1.02233, 1.04259, 0.247032, 1.73158
1.39604, 0.541868, 0.990432, 0.000000
0.000000, 0.000000, 0.000000, 1.97734
0.000000, 0.000000, 0.750825, 1.25
0.000000, 0.662283, 2.13614, 1.23926
0.000000, 0.000000, 0.000000, 0.228116
0.786602, 0.000000, 0.539843, 0.522861
0.000000, 0.971869, 1.03483, 0.000000
1.00341, 0.000000, 0.000000, 0.000000
0.955851, 0.533231, 0.650056, 1.09294
1.36401, 0.280345, 0.000000, 0.000000
1.26647, 1.75361, 0.443631, 0.676997
0.000000, 0.000000, 0.74767, 1.12691
0.138253, 0.000000, 1.04515, 0.000000
0.000000, 0.000000, 0.000000, 0.000000
0.000000, 0.807076, 1.98885, 0.0888177
0.949106, 0.000000, 0.000000, 0.000000
0.000000, 0.000000, 1.01484, 0.000000
0.000000, 0.000000, 0.0386419, 0.954235
0.000000, 0.000000, 0.442956, 1.0912
0.45056, 0.000000, 1.59456, 1.49215
1.00054, 1.01946, 2.84969, 0.000000
0.949421, 1.02145, 1.09924, 0.000000
1.10751, 1.98495, 0.947582, 2.12627
1.05069, 1.93647, 0.000000, 2.06006
0.496966, 1.09562, 2.08711, 1.28447
0.000000, 1.02078, 1.00072, 0.171783
2.02602, 0.000000, 0.000000, 1.53755
4.43058, 3.14304, 1.87507, 0.193159
0.961634, 0.294487, 2.90922, 3.84536
0.000000, 0.503266, 1.11394, 2.99486
2.13472, 0.247076, 4.74199, 2.80138
1.23174, 4.38761, 4.18251, 4.21024
3.60394, 2.10928, 3.91346, 1.41339
1.92462, 1.17453, 4.08371, 1.84827
8.0989, 7.73652, 2.59487, 2.23424
3.52299, 0.609144, 2.95589, 1.63741
1.09233, 1.99543, 0.229622, 0.848974
1.06272, 0.000000, 1.00045, 0.654024
1.77445, 0.417408, 0.000000, 1.06205
0.000000, 0.000000, 1.02593, 0.000000
0.000000, 0.204749, 0.120867, 1.3398
0.298911, 2.99033, 0.964846, 1.1978
3.16858, 0.818666, 0.000000, 0.000000
0.000000, 0.000000, 0.817993, 1.96353
0.0954373, 0.876386, 0.247551, 0.812581
0.963476, 0.000000, 1.20517, 3.08559
3.85875, 1.71121, 4.03222, 0.0339411
1.17025, 0.000000, 1.95509, 0.000000
0.000000, 0.000000, 0.000000, 0.80495
1.1016, 1.16761, 0.975489, 1.01841
0.000000, 2.28227, 2.83888, 0.956474
0.000000, 0.000000, 0.000000, 0.000000
0.12735, 1.98037, 0.834752, 0.000000
0.000000, 1.50126, 0.460974, 1.01984
0.266241, 1.01809, 1.65028, 0.000000
0.000000, 0.000000, 0.38406, 1.617
0.576885, 2.08765, 0.316142, 0.000000
0.974608, 1.07036, 0.144066, 1.85888
0.000000, 0.000000, 0.532371, 0.492221
0.982241, 0.93158, 0.000000, 0.000000
0.000000, 0.174397, 0.792574, 0.349943
0.598046, 0.000000, 1.02893, 0.748912
0.254024, 0.000000, 1.0568, 0.980735
1.00271, 0.944557, 0.988357, 0.493883
0.490193, 0.000000, 0.000000, 1.75186
0.24013, 0.000000, 0.000000, 0.258948
1.71512, 0.000000, 0.000000, 0.969995
1.01431, 0.000000, 0.962814, 0.000000
1.15897, 1.09017, 0.811393, 0.115251
0.698806, 0.744543, 3.06785, 0.52876
0.877023, 2.01994, 1.19913, 1.2819
1.97681, 0.718976, 0.000000, 0.506873
0.463231, 0.985556, 0.000000, 0.853419
0.0947493, 0.991461, 0.000000, 0.000000
0.000000, 0.953213, 1.09039, 2.01688
0.000000, 1.91402, 0.172529, 0.966828
0.13624, 0.934849, 0.96561, 0.000000
0.981206, 0.000000, 0.680339, 1.82825
0.411096, 0.973519, 0.0910777, 1.86727
0.000000, 2.06946, 1.00045, 0.000000
0.984094, 0.711816, 3.04784, 2.38106
1.10681, 0.633863, 0.000000, 0.000000
1.00229, 0.000000, 0.000000, 0.683413
0.327784, 2.00662, 0.000000, 0.0525778
0.931606, 1.15417, 1.7188, 0.000000
0.000000, 0.000000, 0.000000, 1.61892
0.383263, 0.000000, 0.000000, 0.186838
2.7241, 0.354138, 0.590372, 0.000000
0.627271, 0.325845, 0.000000, 1.04187
1.03723, 0.000000, 0.984645, 0.000000
0.000000, 0.000000, 0.000000, 0.000000
0.000000, 0.000000, 0.000000, 0.000000
0.17758, 0.876706, 0.989452, 0.000000
0.525265, 1.051, 1.3287, 0.000000
1.01865, 0.036517, 1.99383, 2.26337
0.752989, 1.70122, 3.08467, 1.69545
0.84675, 0.860153, 1.2393, 2.95873
0.117099, 0.000000, 0.000000, 0.000000
0.420509, 0.548627, 1.10557, 0.000000
0.000000, 1.91804, 1.07574, 0.000000
1.03933, 1.0002, 0.956217, 0.000000
0.000000, 0.000000, 0.000000, 0.818052
0.14457, 0.000000, 0.143173, 1.15794
0.763163, 0.425021, 0.596217, 0.000000
0.703118, 0.302248, 0.861529, 2.0233
0.0174222, 0.000000, 0.000000, 0.000000
0.962868, 0.000000, 0.641972, 1.07988
1.21478, 0.996993, 0.0791016, 0.000000
0.000000, 0.000000, 0.962892, 0.000000
0.94646, 1.10945, 0.000000, 0.000000
0.000000, 0.000000, 0.000000, 1.23236
0.720533, 0.000000, 1.00573, 0.979923
1.00123, 0.000000, 1.0004, 0.000000
0.000000, 0.181441, 0.763778, 1.07759
0.994559, 0.000000, 0.000000, 1.00561
0.000000, 1.00122, 0.000000, 1.00098
0.000000, 0.000000, 0.000000, 0.96328
1.02112, 1.39661, 1.40958, 2.12073
0.111191, 0.000000, 0.167964, 0.79603
0.000000, 0.000000, 0.000000, 0.000000
0.000000, 0.000000, 0.000000, 0.000000
0.000000, 0.000000, 0.293066, 0.66164
0.989339, 1.13389, 0.973982, 0.920278
0.214241, 0.000000, 0.000000, 0.000000
0.000000, 0.993509, 0.000000, 0.000000
0.000000, 0.000000, 0.000000, 0.000000
1.00686, 1.05484, 0.983564, 1.34122
1.72109, 0.000000, 0.986715, 0.000000
0.000000, 0.000000, 0.000000, 0.0421901
1.1847, 1.71744, 0.000000, 0.420413
1.06038, 0.453777, 0.955904, 0.000000
1.74761, 0.207308, 1.94538, 0.971286
0.000000, 0.000000, 0.000000, 0.000000
1.68987, 1.11403, 0.255207, 0.000000
1.02698, 0.926589, 0.000000, 0.000000
0.000000, 0.000000, 0.000000, 0.000000
0.000000, 1.90845, 1.10901, 1.08171
0.926828, 0.000000, 0.985849, 0.000000
0.000000, 0.000000, 0.000000, 0.809224
1.0515, 1.13145, 1.00849, 0.000000
0.000000, 0.000000, 1.9839, 1.04286
0.000000, 2.54793, 0.484019, 0.000000
0.000000, 0.975684, 0.000000, 0.000000
0.000000, 0.000000, 0.625968, 1.38489
0.000000, 0.973001, 0.000000, 0.0896758
0.957388, 0.000000, 1.16576, 0.000000
0.000000, 0.000000, 0.000000, 0.000000
0.000000, 1.04125, 1.93013, 0.000000
1.00753, 0.000000, 0.000000, 1.0513
0.000000, 1.03357, 0.836839, 1.2031
0.986683, 0.000000, 0.272006, 1.12771
0.628636, 0.544644, 0.464146, 0.000000
0.000000, 0.000000, 0.000000, 0.000000
0.194918, 0.776472, 0.000000, 2.49865
0.508867, 0.000000, 0.781557, 1.17216
0.000000, 0.0484302, 0.916163, 0.252324
0.803441, 0.989789, 1.03208, 1.9129
0.000000, 1.04067, 1.77574, 3.12723
1.11907, 0.935356, 0.546643, 1.42442
1.00512, 0.578639, 0.453691, 1.95762
0.000000, 0.000000, 0.0300518, 1.96012
0.000000, 0.31762, 2.05736, 1.08908
0.479118, 0.000000, 0.780827, 0.210518
0.985899, 1.03799, 0.000000, 0.249345
0.711093, 0.000000, 1.54853, 1.43025
3.5403, 0.523987, 0.970948, 0.000000
1.02169, 0.196227, 1.73767, 0.000000
0.507175, 0.534803, 0.000000, 0.000000
1.02546, 0.000000, 0.982507, 0.000000
1.24122, 0.911929, 0.000000, 1.01622
0.000000, 0.709442, 0.284357, 1.26462
0.0309293, 0.635476, 0.186513, 2.07634
0.690557, 0.000000, 0.551494, 2.15017
0.353956, 0.000000, 0.000000, 1.97726
0.000000, 0.98567, 1.09113, 1.99918
0.000000, 1.98373, 0.000000, 0.965298
0.000000, 1.02302, 0.0829185, 1.04174
0.257738, 1.41489, 1.24476, 0.000000
0.594232, 1.0977, 0.276028, 0.923538
0.0767446, 0.000000, 0.000000, 0.291042
0.676342, 0.000000, 0.000000, 0.000000
1.48374, 1.43981, 0.000000, 0.000000
0.000000, 1.20847, 0.748113, 0.000000
0.000000, 0.000000, 0.972626, 1.01687
0.905265, 0.0944109, 0.000000, 0.189567
0.814805, 0.000000, 0.000000, 0.965661
0.000000, 0.000000, 0.969384, 0.951185
0.0565368, 0.131817, 1.84481, 0.362257
2.17008, 1.49291, 0.000000, 0.000000
0.000000, 0.000000, 1.89138, 1.06532
0.000000, 0.000000, 0.000000, 1.02007
0.000000, 0.000000, 0.000000, 0.804746
2.08605, 1.02594, 0.000000, 1.9757
0.000000, 0.000000, 0.000000, 0.632062
0.444818, 2.75985, 0.233713, 1.93916
1.07542, 0.000000, 0.000000, 0.969077
0.000000, 0.97294, 0.612694, 0.367183
0.000000, 0.000000, 0.000000, 1.0306
0.000000, 0.000000, 2.33969, 0.622156
0.000000, 0.987307, 0.000000, 0.868729
0.150424, 0.000000, 0.000000, 1.40929
1.51784, 2.44514, 1.08345, 1.0542
0.369762, 0.000000, 1.81302, 1.17465
2.00226, 0.000000, 0.000000, 2.48602
0.620326, 0.529536, 0.430636, 0.000000
0.000000, 1.95551, 0.000000, 1.09039
0.998077, 0.000000, 0.000000, 0.990188
0.582119, 1.09707, 0.319477, 1.02866
0.000000, 0.000000, 0.000000, 0.000000
0.000000, 0.929004, 0.56094, 1.1016
1.07382, 0.273281, 1.84969, 0.0830449
0.996876, 0.194959, 0.807178, 0.000000
0.477656, 0.522197, 0.000000, 0.000000
1.85702, 0.151741, 0.9915, 0.267046
1.66127, 0.000000, 0.000000, 1.0397
0.992694, 0.000000, 0.000000, 0.000000
0.000000, 0.000000, 0.969582, 0.000000
0.000000, 1.52339, 0.533798, 0.000000
1.47367, 1.54109, 0.000000, 0.000000
0.000000, 0.000000, 0.000000, 0.000000
0.000000, 0.593972, 0.408107, 0.000000
0.982494, 0.000000, 2.03306, 0.000000
0.000000, 0.000000, 0.000000, 1.02863
0.000000, 0.000000, 0.000000, 0.000000
0.000000, 1.08517, 1.8107, 0.000000
0.000000, 0.000000, 0.000000, 0.000000
0.000000, 0.000000, 1.95624, 1.05127
1.141, 0.886099, 0.319321, 0.647802
0.516838, 1.06473, 2.71018, 1.43132
0.213495, 0.000000, 0.163078, 1.74805
0.000000, 0.975125, 0.000000, 1.04657
0.000000, 0.719464, 2.71762, 1.42232
0.0663835, 1.02111, 0.000000, 0.000000
0.411711, 1.11956, 1.08416, 1.10488
0.323284, 0.000000, 0.000000, 0.0636801
0.878161, 0.000000, 0.000000, 0.000000
0.000000, 0.600789, 0.34686, 0.943642
1.97318, 0.0972639, 2.91751, 0.000000
0.9724, 0.992888, 2.98826, 0.617601
1.45237, 0.000000, 0.000000, 0.000000
0.000000, 0.000000, 0.000000, 0.000000
1.94793, 0.000000, 0.000000, 1.10036
0.819554, 2.04575, 0.0983154, 0.000000
0.000000, 1.00245, 0.36811, 0.622992
0.984885, 0.000000, 0.000000, 0.000000
0.000000, 0.000000, 0.950002, 0.000000
0.000000, 0.000000, 0.000000, 1.02484
0.000000, 0.000000, 1.79591, 1.07969
0.000000, 0.000000, 0.258917, 0.739599
0.000000, 0.000000, 0.000000, 0.744186
0.273471, 0.998916, 0.000000, 0.106746
1.94301, 0.999921, 0.000000, 0.000000
0.000000, 0.000000, 1.78405, 0.22178
0.000000, 2.05673, 0.913093, 0.242099
1.74387, 0.000000, 0.000000, 0.000000
0.000000, 0.000000, 0.871153, 1.07447
1.06795, 1.1664, 2.2763, 0.116147
0.194146, 0.000000, 0.000000, 0.000000
1.09171, 1.04526, 0.0366966, 1.00951
0.000000, 0.296785, 1.04233, 0.578717
0.56394, 0.373706, 0.766194, 1.03602
0.108594, 0.981045, 0.000000, 0.000000
0.000000, 0.000000, 0.000000, 0.000000
1.0959, 0.853682, 0.176627, 0.000000
0.11305, 1.88847, 0.000000, 0.000000
0.000000, 0.000000, 0.000000, 1.08682
0.000000, 1.06005, 1.03735, 0.958182
0.000000, 0.000000, 1.28674, 1.68307
0.643324, 3.05767, 0.273534, 0.000000
0.000000, 0.000000, 0.000000, 0.320343
0.812325, 0.000000, 1.05869, 0.620905
0.319292, 0.84339, 0.149782, 0.97109
1.51156, 3.31157, 0.319525, 0.675385
0.000000, 0.000000, 0.704204, 0.30362
0.000000, 0.000000, 0.000000, 0.000000
0.000000, 0.967694, 1.03493, 0.000000
4.57111, 1.31255, 1.93366, 0.184475
4.04748, 1.14975, 0.883353, 0.319848
1.13604, 0.608199, 0.645112, 0.45459
1.01891, 0.000000, 0.000000, 0.0756511
1.21541, 0.155432, 0.800335, 0.630657
1.48522, 0.491504, 1.92265, 0.779437
3.18515, 0.986595, 0.000000, 0.000000
0.301893, 0.754702, 0.000000, 0.000000
0.000000, 0.000000, 0.000000, 0.996663
0.99692, 0.264409, 1.69024, 0.000000
0.000000, 1.53637, 1.46884, 0.236286
0.100477, 0.599725, 2.04902, 1.02196
0.173955, 0.828034, 0.000000, 1.14008
1.00737, 1.68517, 0.374857, 0.000000
0.939357, 0.072048, 0.000000, 0.410548
2.52825, 0.000000, 1.97363, 0.638905
0.444857, 0.764908, 1.23908, 0.000000
0.000000, 0.000000, 0.000000, 0.000000
0.939273, 0.521483, 3.36196, 2.49381
0.566174, 0.000000, 0.986187, 0.950295
0.000000, 0.000000, 0.969595, 0.000000
0.599264, 0.448756, 0.98871, 0.000000
1.04042, 0.949641, 0.000000, 0.974086
0.000000, 0.000000, 0.000000, 0.000000
0.000000, 0.000000, 0.000000, 0.000000
0.995723, 0.000000, 0.000000, 0.000000
0.000000, 1.09861, 1.57219, 0.372969
0.801603, 0.155797, 0.0257315, 0.961684
0.000000, 0.000000, 0.391767, 0.578825
0.000000, 0.98563, 0.000000, 0.871554
2.03365, 0.02848, 0.154002, 0.815832
0.000000, 0.435239, 1.06713, 2.13104
1.15115, 1.11138, 0.181741, 0.000000
0.000000, 0.000000, 0.578624, 1.4062
0.983583, 0.985628, 0.000000, 0.000000
1.82989, 2.1281, 0.142171, 2.86701
0.000000, 0.325615, 0.661511, 0.000000
0.000000, 0.72879, 1.25116, 0.000000
0.000000, 0.945134, 0.000000, 0.279169
0.74042, 0.000000, 0.000000, 1.02825
1.02237, 0.000000, 0.901222, 1.05429
0.000000, 0.430341, 1.84402, 0.656792
0.987579, 0.000000, 0.000000, 0.000000
0.000000, 0.000000, 0.000000, 1.14069
0.91545, 0.955119, 0.426591, 1.56006
0.000000, 0.000000, 0.000000, 1.96534
3.91759, 0.206707, 1.95412, 0.815996
0.000000, 0.481681, 1.08013, 1.41647
0.000000, 0.000000, 0.000000, 0.000000
1.26395, 1.79685, 0.377339, 0.75662
0.000000, 0.000000, 0.000000, 1.57088
1.26074, 2.11322, 0.00640835, 0.000000
0.000000, 0.000000, 0.463561, 0.532284
2.56691, 0.332842, 0.000000, 0.000000
0.993091, 0.923319, 0.423552, 2.46714
0.000000, 0.000000, 0.000000, 0.969262
0.000000, 0.903483, 0.12156, 0.000000
0.971212, 0.000000, 0.000000, 0.000000
0.000000, 0.000000, 0.000000, 0.969021
0.938921, 1.02736, 0.000000, 0.000000
0.972929, 0.000000, 0.000000, 0.997363
0.665161, 0.320405, 0.000000, 0.000000
0.000000, 0.000000, 0.235017, 0.739069
0.000000, 0.000000, 0.000000, 1.95485
1.07521, 0.000000, 0.000000, 1.17904
1.79096, 0.271582, 1.07774, 0.632731
0.000000, 0.000000, 0.000000, 1.04125
0.000000, 0.0340995, 1.07819, 0.885587
0.000000, 0.000000, 0.495044, 2.80354
0.929389, 0.0443155, 0.900956, 0.117867
1.9894, 0.945235, 1.04427, 0.000000
0.000000, 1.58547, 0.487333, 1.69175
1.31589, 0.930182, 0.0779828, 0.000000
0.209163, 0.80702, 0.000000, 0.487439
2.71624, 1.50858, 0.314304, 0.000000
0.000000, 0.93076, 0.000000, 0.000000
0.000000, 0.000000, 0.000000, 0.000000
0.000000, 0.955858, 2.82957, 2.19791
0.985801, 3.02856, 0.000000, 0.000000
0.000000, 0.000000, 0.000000, 0.000000
0.000000, 0.000000, 1.03034, 2.49572
1.72629, 2.03233, 0.699188, 0.969995
1.00001, 0.000000, 0.000000, 0.988429
0.000000, 2.13409, 0.927887, 0.261981
0.727413, 0.000000, 0.000000, 0.000000
0.000000, 0.832526, 1.1385, 0.0202949
1.10763, 0.85457, 1.00717, 0.979502
0.478804, 1.47357, 0.000000, 0.000000
0.000000, 1.04614, 0.118563, 1.91574
0.000000, 0.340445, 1.60065, 0.519878
1.07714, 0.37051, 0.865109, 0.198415
0.947351, 0.000000, 3.99747, 0.000000
1.05914, 0.000000, 2.06629, 0.000000
2.78503, 1.22471, 6.09224, 0.0827158
1.95647, 0.918974, 4.40764, 1.10334
0.61296, 1.83478, 2.17437, 0.773491
0.198576, 0.980541, 1.02279, 0.000000
0.000000, 0.000000, 1.43851, 0.54841
0.000000, 1.03121, 0.000000, 0.000000
2.02732, 0.000000, 0.000000, 0.000000
1.44196, 1.1309, 0.491714, 0.000000
0.000000, 0.000000, 0.000000, 0.974228
0.000000, 0.000000, 0.339222, 0.645842
0.530413, 0.464445, 0.000000, 0.833496
2.15526, 0.0963937, 0.000000, 0.979
0.597566, 1.47509, 0.46719, 0.512044
0.000000, 1.05469, 0.000000, 0.958489
0.095262, 1.1016, 0.857378, 0.656014
1.75911, 0.559364, 1.64914, 0.378567
0.000000, 1.85401, 2.07172, 0.0124162
0.000000, 1.03878, 0.000000, 0.471625
0.555032, 0.000000, 0.932864, 0.000000
0.000000, 0.000000, 1.09347, 0.872495
0.000000, 0.959283, 0.000000, 1.00545
0.000000, 0.802164, 1.09638, 1.04805
0.02888, 2.09242, 1.25003, 2.69181
0.000000, 0.532891, 0.461207, 0.000000
0.000000, 0.000000, 1.02471, 0.103883
0.910391, 0.000000, 0.000000, 0.000000
0.000000, 0.000000, 0.756937, 0.234881
0.000000, 2.04111, 0.000000, 0.307349
0.999667, 0.138775, 0.18857, 2.09612
1.3946, 2.96336, 0.407829, 1.92448
0.982908, 2.11237, 1.18271, 0.744645
0.000000, 1.01833, 1.37405, 0.736404
0.000000, 0.000000, 1.96672, 0.118188
1.82303, 0.000000, 0.000000, 0.485015
1.4886, 0.000000, 0.000000, 0.000000
0.000000, 0.000000, 0.000000, 0.000000
0.348019, 1.71506, 0.000000, 0.000000
0.000000, 0.000000, 0.928803, 0.0845842
0.000000, 1.97279, 0.000000, 2.02235
0.000000, 0.000000, 0.000000, 0.000000
1.01821, 0.000000, 0.000000, 0.986039
0.000000, 0.000000, 0.000000, 0.516375
0.474297, 0.000000, 0.000000, 1.92118
0.101406, 0.993177, 0.000000, 0.000000
0.993355, 0.000000, 1.02638, 0.171111
0.000000, 2.05396, 1.12752, 1.1031
0.99183, 0.000000, 0.292751, 1.96912
0.558581, 0.594974, 0.40011, 0.997355
0.000000, 0.000000, 0.000000, 1.05937
0.000000, 0.000000, 0.000000, 0.000000
1.94443, 1.11164, 0.870531, 1.1208
0.0820342, 0.105592, 1.87869, 0.000000
0.391409, 0.6086, 0.987322, 0.974027
0.766741, 0.230343, 0.000000, 0.0589186
1.07052, 0.000000, 0.000000, 0.000000
0.000000, 0.000000, 0.000000, 0.769565
0.183668, 0.000000, 0.000000, 0.000000
0.000000, 0.000000, 2.36835, 2.09888
0.445197, 0.76835, 0.254392, 1.02289
1.00398, 1.93518, 0.000000, 0.000000
0.000000, 1.00895, 1.00049, 0.000000
0.000000, 0.000000, 1.94831, 1.0541
0.000000, 0.000000, 0.96665, 0.000000
0.000000, 0.000000, 0.000000, 0.000000
0.000000, 1.08719, 0.109431, 0.87534
0.996969, 0.993014, 0.483822, 0.506195
1.72765, 1.27599, 0.000000, 0.000000
0.95732, 0.145432, 0.827608, 0.000000
0.000000, 1.04797, 0.940443, 1.99137
1.77429, 0.190407, 0.957995, 0.000000
0.363694, 1.57292, 1.42465, 1.62999
0.000000, 1.04268, 1.51497, 2.17107
4.17027, 1.04246, 0.972899, 1.01566
2.28559, 0.716479, 0.000000, 0.59409
0.389968, 0.000000, 0.000000, 1.00215
0.989091, 0.170786, 1.08387, 1.66858
0.000000, 0.000000, 1.01287, 1.81052
2.22095, 2.77162, 1.17612, 0.999591
0.223555, 1.16527, 2.14751, 1.60621
3.03675, 0.000000, 0.000000, 0.000000
1.03868, 0.000000, 1.07539, 1.19978
1.10089, 1.07919, 2.18276, 2.04443
1.39965, 0.000000, 0.000000, 0.00390922
2.04159, 0.974966, 0.285671, 1.7499
1.00296, 1.11352, 0.000000, 0.000000
0.000000, 1.94926, 1.04539, 0.130321
2.01503, 1.1188, 2.09592, 2.04205
2.66297, 0.781961, 0.799555, 0.205664
0.000000, 0.000000, 0.000000, 0.000000
0.000000, 0.000000, 0.000000, 0.000000
0.000000, 0.000000, 0.000000, 0.953874
0.000000, 0.196935, 0.734996, 0.780204
1.16978, 0.995084, 0.000000, 0.782497
2.03405, 0.265551, 0.000000, 0.000000
0.992892, 1.06128, 0.000000, 0.000000
0.000000, 0.000000, 0.98968, 1.02891
0.000000, 0.000000, 0.978563, 0.000000
0.376026, 0.607333, 0.000000, 0.000000
0.000000, 0.832751, 1.1198, 1.04532
1.8339, 1.98218, 0.998058, 0.000000
2.03764, 0.000000, 1.37736, 0.579366
0.983367, 0.000000, 2.05802, 0.874229
0.000000, 0.981389, 1.04948, 0.963388
2.97765, 0.70608, 2.28057, 0.976989
1.02453, 1.08039, 0.847325, 1.28989
0.690167, 1.00821, 0.000000, 0.000000
2.01146, 0.000000, 1.03961, 0.975207
0.000000, 0.000000, 0.000000, 0.429611
0.543799, 0.945446, 1.73234, 0.276939
0.000000, 0.000000, 0.000000, 0.000000
0.000000, 0.000000, 0.000000, 0.000000
0.649667, 0.3222, 1.00705, 0.000000
0.0512455, 1.06156, 0.000000, 0.988964
0.000000, 0.000000, 0.000000, 0.000000
0.000000, 1.08661, 0.000000, 2.01765
0.000000, 0.000000, 0.000000, 0.472139
0.549882, 1.00705, 0.000000, 0.000000
2.02314, 0.0273419, 0.937716, 0.000000
0.000000, 0.000000, 0.000000, 1.79012
1.97657, 0.341346, 0.000000, 1.99006
1.05685, 0.000000, 0.258389, 0.753082
0.000000, 0.000000, 0.000000, 1.65767
2.72643, 0.53445, 2.00517, 0.000000
0.988018, 1.11447, 0.162958, 0.459052
2.24246, 1.10281, 1.09961, 0.240701
0.000000, 0.000000, 0.000000, 0.000000
0.000000, 1.02583, 1.11939, 0.000000
0.944076, 0.000000, 0.000000, 0.000000
0.085473, 1.91255, 0.000000, 0.000000
0.000000, 1.02611, 0.652476, 0.34572
0.878024, 0.16421, 0.000000, 0.000000
2.23261, 1.91127, 2.03054, 0.000000
0.953599, 0.000000, 0.000000, 0.000000
0.953516, 1.03048, 0.000000, 0.000000
0.998669, 0.444606, 0.54971, 0.616084
0.352698, 0.000000, 0.000000, 0.000000
1.19925, 0.942594, 0.000000, 0.000000
0.937625, 0.000000, 0.697751, 0.337066
0.000000, 0.000000, 2.0286, 0.000000
0.985279, 0.345121, 2.1031, 0.551
0.000000, 0.000000, 1.56692, 0.374725
0.000000, 0.000000, 0.000000, 0.000000
0.000000, 0.963426, 0.558182, 1.45769
1.00609, 0.000000, 0.000000, 0.000000
0.000000, 0.000000, 1.02857, 0.0958524
0.497419, 0.485418, 0.000000, 0.000000
0.000000, 0.000000, 0.000000, 0.000000
0.986919, 0.000000, 0.000000, 0.546736
1.47053, 1.00755, 0.000000, 0.000000
0.000000, 2.20274, 0.939645, 0.000000
0.000000, 1.64621, 1.12478, 1.44171
0.000000, 0.000000, 0.000000, 0.000000
1.02976, 0.928481, 0.000000, 0.973918
0.000000, 0.96653, 0.000000, 1.79536
0.189238, 0.000000, 0.000000, 0.000000
1.05454, 0.000000, 0.000000, 1.11038
0.000000, 0.490185, 0.160056, 1.28397
0.979028, 0.000000, 1.94385, 0.317429
1.57298, 0.972778, 0.000000, 0.000000
0.789197, 1.19697, 2.8931, 1.07034
2.08428, 0.983746, 0.989719, 0.455145
2.09963, 1.44169, 3.04087, 0.000000
1.01204, 0.000000, 0.124386, 0.969505
0.994838, 0.000000, 1.44297, 0.511651
0.000000, 0.000000, 0.000000, 0.000000
0.000000, 0.000000, 0.000000, 0.000000
0.000000, 0.524625, 0.465934, 1.4964
1.54885, 0.885305, 0.0920697, 1.95138
1.01094, 0.000000, 0.000000, 0.000000
0.000000, 1.02546, 0.000000, 0.000000
0.000000, 0.000000, 0.000000, 0.22918
2.73412, 0.000000, 0.000000, 0.667308
0.433314, 0.000000, 0.000000, 0.990996
0.0162382, 1.30551, 1.8797, 0.698526
0.000000, 0.932446, 0.983742, 0.000000
1.97416, 1.02344, 0.000000, 0.000000
0.000000, 0.000000, 0.000000, 0.000000
1.58718, 0.41066, 0.000000, 0.000000
2.90246, 0.994038, 0.947634, 0.947005
0.000000, 0.456006, 2.18926, 0.519375
1.01541, 0.000000, 0.98534, 1.11231
1.00157, 1.0525, 0.000000, 0.371809
0.601322, 0.000000, 0.000000, 0.000000
0.000000, 0.000000, 1.06688, 1.08669
0.879679, 0.000000, 0.980075, 0.508322
2.50139, 0.682121, 0.287357, 0.945225
0.000000, 0.000000, 0.000000, 0.000000
0.000000, 1.02915, 1.03104, 0.000000
0.959141, 0.000000, 0.000000, 0.952412
0.126403, 2.3764, 1.91542, 0.685316
0.000000, 0.976615, 0.000000, 0.000000
0.895582, 0.128331, 0.000000, 0.986648
0.000000, 0.000000, 0.000000, 0.000000
0.000000, 0.738532, 0.281237, 0.93675
0.000000, 0.981624, 1.2339, 0.824489
1.47423, 0.643705, 1.569, 0.413499
0.000000, 0.000000, 0.000000, 0.0464989
0.970175, 0.000000, 0.000000, 0.000000
0.484075, 0.45096, 0.99122, 0.823418
1.24, 0.993458, 0.964185, 0.000000
1.31656, 2.98747, 0.58528, 0.000000
1.0069, 0.000000, 0.000000, 0.000000
0.0273617, 0.949223, 0.0351726, 0.127058
1.53149, 0.675013, 0.0826518, 0.0564028
0.000000, 0.000000, 0.992972, 0.130558
1.83699, 0.524296, 1.5306, 0.958114
0.601834, 0.516136, 0.000000, 0.000000
1.9889, 0.0860379, 0.000000, 0.000000
0.000000, 1.03342, 0.975783, 0.000000
0.000000, 1.73699, 0.231026, 0.000000
0.0487478, 1.93887, 1.21815, 0.737255
0.976255, 0.510905, 2.50706, 0.000000
0.991266, 1.05692, 0.000000, 1.02086
0.000000, 0.000000, 0.934714, 0.000000
0.000000, 0.000000, 0.951289, 0.000000
0.978254, 0.000000, 0.974392, 0.000000
0.000000, 0.958288, 1.0027, 0.000000
0.000000, 0.987058, 0.000000, 0.000000
1.93473, 0.000000, 0.260193, 0.748131
0.942103, 1.16629, 0.000000, 0.000000
0.000000, 0.871084, 0.0769773, 1.02087
1.07425, 1.94509, 0.000000, 0.000000
0.928838, 0.697695, 1.33696, 0.000000
2.03525, 0.0455855, 0.969913, 0.000000
0.000000, 0.000000, 1.63211, 0.516925
0.987058, 0.000000, 0.000000, 0.000000
0.000000, 0.000000, 0.624659, 0.000000
1.30313, 0.000000, 0.000000, 0.791082
0.2628, 0.000000, 0.0341162, 1.9445
0.000000, 0.316283, 0.681449, 0.000000
0.947203, 0.000000, 0.000000, 0.895764
0.118268, 1.10019, 1.14502, 2.17265
0.711224, 1.00258, 0.000000, 0.000000
1.47941, 0.539113, 0.000000, 0.000000
0.000000, 0.000000, 0.296775, 0.694843
0.478659, 0.502054, 0.000000, 0.000000
0.894096, 1.12598, 0.925624, 0.000000
0.000000, 0.000000, 0.000000, 0.000000
0.000000, 0.000000, 0.8234, 1.25271
0.969232, 0.0979583, 0.942535, 0.270763
1.66486, 0.493348, 0.555539, 0.000000
0.000000, 0.856896, 0.153676, 1.01031
0.000000, 0.000000, 0.000000, 0.000000
0.000000, 0.974008, 0.000000, 0.989908
0.000000, 0.000000, 0.070491, 0.868665
0.267797, 0.747175, 0.425372, 0.514395
0.000000, 1.52163, 1.60906, 0.000000
1.00356, 0.000000, 0.000000, 0.292939
1.07367, 1.57721, 0.000000, 0.686561
0.323441, 1.98798, 0.000000, 1.06009
0.000000, 0.992262, 1.27309, 1.09025
0.558303, 0.000000, 0.000000, 1.75624
1.23073, 0.00126586, 0.985517, 0.000000
0.000000, 0.000000, 0.000000, 0.000000
1.64094, 0.332895, 0.000000, 1.06947
1.00478, 0.000000, 0.000000, 0.000000
0.328894, 0.000000, 0.657787, 0.975146
0.774027, 0.199867, 1.07873, 0.000000
0.179411, 0.861539, 0.000000, 0.000000
0.000000, 0.000000, 1.00406, 0.973553
0.000000, 0.971869, 1.01363, 0.000000
0.000000, 0.000000, 2.01826, 4.05218
0.000000, 0.000000, 1.72114, 1.21864
0.97166, 0.000000, 3.00303, 0.000000
0.000000, 0.991738, 0.605128, 1.33155
1.01322, 0.000000, 0.966614, 1.99178
0.000000, 0.000000, 0.000000, 0.000000
0.000000, 1.66387, 1.49952, 0.816583
0.139903, 0.000000, 1.06221, 1.07477
0.728804, 0.000000, 0.000000, 0.000000
0.000000, 0.000000, 0.000000, 0.000000
0.000000, 0.000000, 0.000000, 0.000000
0.000000, 0.517955, 0.418959, 0.000000
0.983121, 0.000000, 1.0244, 0.126407
0.934076, 0.316786, 0.711788, 0.974107
0.000000, 0.718044, 0.329334, 0.000000
1.03553, 0.000000, 0.000000, 0.979347
0.000000, 0.000000, 0.542642, 0.471429
0.740824, 1.0496, 0.170325, 0.00683433
1.05968, 0.901343, 0.000000, 0.000000
1.94486, 1.99495, 0.658491, 1.12883
1.05891, 2.05307, 0.977683, 0.000000
0.464806, 1.51976, 0.430141, 0.586741
0.000000, 0.000000, 0.000000, 0.000000
0.000000, 1.00705, 0.000000, 0.000000
0.000000, 0.000000, 0.000000, 0.000000
0.71731, 1.24731, 0.973865, 0.0987566
2.05806, 2.01369, 0.000000, 0.000000
0.000000, 1.24071, 0.847784, 0.000000
1.05424, 1.94774, 2.04507, 1.172
0.899789, 0.000000, 0.975148, 0.000000
0.000000, 0.000000, 0.91005, 0.000000
0.000000, 0.107203, 2.06966, 0.763366
0.417588, 2.12887, 0.517514, 0.000000
0.000000, 0.824093, 2.05053, 0.045759
0.000000, 0.985077, 0.000000, 2.39829
1.56557, 1.23443, 0.773788, 0.000000
0.274164, 1.96213, 2.53674, 0.179752
0.813051, 0.977751, 0.000000, 0.000000
0.000000, 0.745458, 0.251915, 0.000000
1.06372, 0.000000, 0.000000, 0.938729
0.000000, 0.963538, 1.6378, 0.445349
0.000000, 0.000000, 0.000000, 0.998495
0.000000, 0.000000, 0.354886, 0.652954
0.541315, 0.459426, 0.000000, 1.92451
0.199302, 1.06017, 0.107179, 1.10175
0.830794, 0.000000, 0.000000, 0.000000
0.981498, 0.000000, 0.000000, 0.000000
0.000000, 0.000000, 1.16862, 3.37051
0.000000, 1.06196, 0.9678, 0.000000
0.000000, 0.000000, 1.04123, 1.06833
2.05705, 0.793367, 0.000000, 1.43308
0.54463, 0.986691, 0.000000, 0.000000
0.000000, 0.000000, 0.000000, 0.949892
0.000000, 0.420887, 1.61929, 0.592628
0.395297, 0.974499, 0.857917, 0.113617
0.0712533, 1.10307, 1.43124, 2.41005
0.000000, 0.977303, 0.638703, 1.331
0.000000, 1.0044, 0.000000, 0.000000
0.000000, 1.58118, 1.78555, 0.611794
1.17293, 0.841886, 0.000000, 1.78444
0.277697, 2.16898, 2.03966, 0.862501
0.000000, 0.000000, 0.000000, 0.000000
0.695626, 2.02079, 0.183978, 0.000000
1.07501, 0.868619, 0.000000, 1.00556
0.000000, 0.551363, 1.07961, 1.27872
0.932962, 0.000000, 0.0716629, 2.02878
0.877158, 0.988254, 0.000000, 0.000000
0.000000, 0.000000, 0.000000, 0.000000
1.04636, 0.000000, 2.18442, 0.000000
0.367337, 0.658955, 1.02023, 1.02023
0.973996, 1.80423, 0.165098, 0.000000
0.000000, 0.000000, 0.000000, 1.95332
0.972433, 0.000000, 0.000000, 0.000000
3.51349, 2.4517, 1.96039, 0.000000
1.95128, 0.000000, 0.987576, 0.000000
2.58676, 0.377823, 0.835622, 1.2297
0.000906381, 1.97415, 0.000000, 1.03395
0.000000, 0.000000, 0.000000, 1.01467
1.47159, 2.3181, 0.144252, 0.039373
0.962317, 0.979519, 0.000000, 0.000000
0.000000, 0.000000, 0.996849, 0.000000
2.80824, 0.222835, 0.000000, 0.000000
0.951509, 0.000000, 0.000000, 0.525954
0.430994, 0.000000, 0.819962, 1.19837
0.0218177, 0.988824, 0.000000, 0.000000
0.000000, 0.000000, 0.000000, 0.000000
0.000000, 0.000000, 0.000000, 0.000000
0.161468, 0.884849, 0.000000, 0.000000
2.10516, 1.61607, 0.359464, 0.000000
0.000000, 0.000000, 1.02022, 0.873913
0.000000, 0.000000, 0.000000, 0.000000
0.000000, 2.00054, 0.996542, 0.000000
0.000000, 0.000000, 0.217291, 0.72338
0.993983, 1.02209, 0.000000, 0.697025
0.294521, 0.000000, 2.09648, 0.0909206
1.04105, 0.806966, 0.730576, 1.278
0.958271, 0.000000, 0.752426, 0.262575
0.000000, 0.000000, 1.1052, 1.32402
1.60871, 0.383179, 0.569845, 0.97903
0.000000, 0.000000, 0.000000, 0.98712
1.02682, 1.11186, 0.000000, 1.30808
0.654632, 1.09472, 0.952261, 0.000000
0.000000, 0.000000, 0.000000, 0.000000
0.394495, 1.62277, 0.000000, 0.474355
0.516481, 0.000000, 0.000000, 1.69198
2.12278, 0.0953305, 0.000000, 0.000000
0.000000, 0.000000, 0.000000, 0.000000
0.000000, 0.000000, 0.964647, 1.03885
1.9854, 0.177184, 0.819124, 0.000000
0.000000, 0.000000, 0.000000, 1.02095
0.822996, 1.07189, 0.0656043, 0.000000
0.000000, 0.000000, 1.37096, 0.555722
0.000000, 0.698807, 0.31668, 0.873213
1.0651, 0.0278179, 0.160949, 2.87765
0.000000, 0.000000, 0.000000, 0.000000
0.000000, 0.000000, 0.000000, 0.9979
0.000000, 0.000000, 0.000000, 0.000000
0.000000, 0.000000, 0.000000, 0.000000
1.02534, 0.000000, 0.0990683, 3.06049
1.08555, 0.783525, 0.448762, 0.605694
0.000000, 1.00398, 0.000000, 0.991343
0.961207, 0.0956144, 1.05033, 0.000000
1.31058, 0.644395, 0.000000, 0.969592
0.000000, 0.845882, 2.18443, 0.0683915
1.03773, 0.000000, 0.000000, 0.000000
0.000000, 0.000000, 0.000000, 1.9898
0.000000, 0.000000, 0.95353, 1.10644
1.77456, 0.000000, 0.000000, 0.000000
0.000000, 0.000000, 0.000000, 0.000000
0.968341, 0.000000, 0.000000, 1.03142
1.763, 1.23143, 0.000000, 0.000000
0.754468, 1.05559, 0.132315, 0.102904
1.9184, 0.000000, 1.36958, 0.711209
0.535746, 0.488858, 0.694372, 0.281322
1.85169, 0.0962321, 1.08861, 0.179025
3.11588, 2.46092, 0.351083, 0.000000
0.000000, 0.801561, 1.23074, 0.177555
2.01452, 1.87709, 0.000000, 0.000000
0.803551, 2.12171, 0.000000, 0.000000
0.000000, 0.000000, 0.000000, 3.0969
0.000000, 0.000000, 0.000000, 0.286152
0.351007, 0.20322, 0.115359, 0.807229
1.08378, 0.0783624, 0.000000, 0.222009
1.15445, 1.67052, 0.000000, 0.58615
0.42126, 0.742044, 1.17937, 1.06509
0.978251, 0.000000, 0.000000, 0.000000
0.000000, 0.000000, 0.000000, 0.000000
2.87774, 1.18549, 0.000000, 0.965205
0.000000, 0.000000, 1.04921, 0.464978
1.59713, 1.63597, 0.346385, 0.000000
2.02602, 1.0014, 0.127574, 0.850106
0.000000, 1.38242, 1.0717, 2.11983
1.11514, 1.34573, 2.04553, 0.962682
0.987119, 0.000000, 0.000000, 0.000000
0.000000, 0.000000, 0.935569, 0.233598
0.995801, 1.64056, 0.137542, 1.89203
2.05066, 1.34745, 1.10291, 0.630169
0.000000, 0.000000, 0.000000, 0.000000
0.949574, 0.0371844, 0.000000, 0.000000
0.000000, 0.000000, 0.000000, 0.616397
1.48411, 1.77016, 0.185337, 0.000000
0.000000, 0.000000, 0.000000, 2.6944
1.27791, 0.575384, 0.439366, 2.68423
0.23515, 0.000000, 1.00906, 1.08027
0.860784, 0.33372, 0.702112, 0.000000
0.596561, 0.388906, 0.000000, 0.000000
0.96167, 0.000000, 0.000000, 0.000000
1.0008, 0.000000, 0.000000, 0.000000
0.000000, 0.000000, 0.984909, 2.0742
0.000000, 0.213537, 0.803004, 0.000000
0.000000, 1.09302, 0.000000, 0.000000
0.831165, 0.123294, 1.00343, 0.000000
0.966827, 0.000000, 0.000000, 0.000000
0.000000, 0.000000, 0.000000, 1.92691
3.11734, 0.000000, 1.01145, 0.000000
0.406199, 1.13864, 0.528382, 0.000000
0.000000, 0.952965, 0.000000, 1.05564
0.132783, 1.30876, 1.88507, 0.678446
0.507803, 0.480401, 0.000000, 1.69952
1.07028, 0.105939, 2.06334, 0.956316
0.000000, 0.343689, 0.602034, 0.000000
0.000000, 0.000000, 1.73144, 1.14568
1.99399, 0.944264, 0.000000, 1.00364
1.00337, 0.000000, 0.000000, 1.62775
1.21937, 0.000000, 0.000000, 0.000000
0.000000, 0.236814, 1.04718, 1.6417
0.000000, 0.000000, 0.000000, 1.60655
0.358246, 1.02588, 0.000000, 1.21382
0.811217, 0.000000, 0.000000, 0.935631
1.62306, 2.39728, 0.000000, 6.95009
0.000000, 0.972263, 0.460638, 1.51142
0.000000, 0.000000, 1.01804, 0.000000
0.000000, 0.882149, 0.104216, 0.000000
0.000000, 0.000000, 0.000000, 0.361408
0.423052, 2.49497, 0.840025, 1.72542
0.332851, 0.000000, 0.000000, 0.951788
0.000000, 0.970997, 0.000000, 1.02961
0.000000, 0.000000, 0.84448, 1.08581
0.987703, 0.971775, 0.000000, 0.000000
0.000000, 0.52869, 0.45513, 0.000000
0.000000, 0.977221, 1.01028, 1.30651
2.92578, 1.07269, 1.66006, 0.000000
0.000000, 0.000000, 0.000000, 0.961618
0.000000, 0.000000, 0.000000, 0.985039
0.000000, 1.42982, 0.612242, 1.01999
0.000000, 0.000000, 0.000000, 0.000000
2.96792, 0.179229, 0.814131, 0.000000
0.000000, 2.59164, 0.453956, 0.000000
1.84993, 2.1338, 2.02627, 0.000000
1.99898, 0.308828, 0.677341, 0.492623
0.4888, 0.000000, 0.803041, 1.22782
1.02501, 3.03677, 0.000000, 1.2501
1.09441, 0.639011, 0.000000, 0.629362
0.362259, 0.000000, 2.1137, 1.05248
1.06471, 1.85482, 0.000000, 0.000000
0.000000, 0.000000, 0.649564, 0.315587
0.000000, 0.000000, 0.000000, 1.03982
1.25635, 1.05322, 0.642918, 0.000000
0.696546, 0.432449, 0.000000, 0.000000
0.928836, 1.04367, 0.000000, 0.000000
0.408389, 0.689088, 0.000000, 0.000000
1.03013, 0.000000, 0.000000, 0.983231
0.123957, 0.85, 0.000000, 1.02389
0.000000, 0.000000, 1.70593, 1.12425
0.216027, 0.994897, 0.000000, 0.000000
0.000000, 1.98436, 0.000000, 0.000000
0.000000, 0.981225, 0.000000, 0.922621
0.079396, 0.000000, 0.000000, 0.599825
1.41071, 0.47117, 1.49513, 0.000000
0.000000, 0.000000, 0.000000, 3.01159
0.000000, 1.00202, 1.33438, 0.658065
0.000000, 0.624329, 0.382877, 0.000000
0.91389, 1.11492, 0.000000, 1.90008
0.761191, 0.000000, 0.486825, 0.550271
0.647428, 2.0627, 1.21483, 1.88177
0.092349, 1.94802, 0.995337, 0.000000
0.000000, 0.000000, 3.7831, 1.19203
0.000000, 0.000000, 0.000000, 0.970059
0.000000, 0.265335, 1.09261, 0.62723
4.57123, 0.480546, 0.000000, 1.96368
1.1882, 0.0343965, 2.8616, 0.336954
1.03894, 0.673908, 0.000000, 0.000000
1.0231, 1.76759, 1.04625, 0.125923
1.03227, 1.02305, 0.23441, 1.72892
0.973763, 1.01209, 0.670561, 0.406191
0.000000, 1.9887, 0.000000, 1.03677
0.957453, 0.000000, 1.38927, 0.620013
0.977375, 2.9533, 3.59583, 2.49238
0.966469, 1.00204, 0.000000, 0.22372
3.93111, 0.667044, 0.489132, 1.12028
1.44468, 0.791585, 2.81514, 0.328381
0.000000, 0.510101, 2.4658, 1.02697
0.925765, 1.65219, 1.42852, 0.000000
0.000000, 0.000000, 0.000000, 0.000000
0.198511, 2.81582, 0.000000, 0.000000
0.603656, 1.10738, 0.807091, 1.96557
1.37841, 0.0455056, 0.000000, 0.240202
2.6953, 0.000000, 0.959932, 0.000000
0.711358, 0.27656, 1.04689, 1.0126
0.405052, 3.08051, 2.78707, 2.03433
0.591766, 0.000000, 1.02534, 0.000000
0.000000, 0.918739, 2.00076, 0.000000
0.000000, 0.000000, 0.394812, 0.547109
0.000000, 0.000000, 0.000000, 0.897549
2.02923, 0.000000, 0.000000, 1.21786
0.726875, 0.441882, 1.53018, 0.000000
0.000000, 0.000000, 0.000000, 0.000000
1.01984, 0.000000, 0.299765, 0.676529
0.000000, 0.000000, 1.79584, 1.09162
1.22451, 0.961799, 2.03173, 0.315491
1.95069, 1.09924, 1.08526, 2.00773
0.456455, 1.7835, 1.13217, 1.08185
2.05722, 0.953024, 0.000000, 0.000000
0.000000, 0.000000, 0.000000, 0.982661
0.740075, 1.24673, 0.000000, 0.000000
0.000000, 0.000000, 2.08629, 0.000000
0.000000, 1.05366, 0.000000, 1.76485
0.204666, 0.000000, 0.000000, 0.000000
0.280012, 1.17184, 0.729115, 0.000000
0.000000, 0.11593, 0.0399785, 1.99993
0.145074, 0.133636, 0.000000, 0.000000
1.07708, 0.000000, 0.000000, 1.34358
1.37493, 0.213162, 0.000000, 0.0649356
0.932554, 0.000000, 0.000000, 0.000000
0.000000, 0.000000, 0.744363, 0.281129
0.000000, 0.000000, 0.11017, 2.28813
1.72699, 0.000000, 0.000000, 0.000000
0.000000, 1.00928, 0.000000, 0.000000
0.0469289, 1.91239, 0.233948, 1.71738
0.000000, 0.000000, 0.000000, 0.696193
0.286935, 0.000000, 0.968107, 1.11577
0.185663, 0.845153, 0.000000, 1.01354
0.000000, 0.000000, 0.000000, 1.01791
1.09998, 1.05076, 0.960667, 0.000000
0.000000, 0.000000, 1.00692, 0.000000
0.000000, 0.000000, 0.951938, 0.000000
1.89037, 0.000000, 0.000000, 0.000000
0.867592, 1.07953, 0.637428, 0.367399
0.94511, 1.94856, 0.0115102, 0.952226
0.000000, 0.297364, 0.710218, 0.502186
0.535571, 0.000000, 0.824193, 0.250237
0.984846, 0.952766, 0.000000, 2.06842
0.000000, 1.40812, 0.554302, 0.000000
0.000000, 0.000000, 0.000000, 1.98037
1.08529, 0.899059, 0.278488, 0.725405
0.000000, 0.000000, 0.000000, 0.000000
0.000000, 0.000000, 0.969975, 0.000000
0.96549, 0.303681, 1.71266, 0.518258
1.16975, 1.48082, 0.000000, 0.000000
0.000000, 0.0690529, 0.904888, 0.000000
0.000000, 0.452608, 0.556601, 0.000000
0.000000, 0.96426, 0.887264, 2.15731
0.000000, 0.194377, 0.760172, 0.000000
0.000000, 0.000000, 0.000000, 0.000000
0.000000, 1.00718, 0.000000, 0.145981
1.84918, 0.000000, 0.000000, 0.000000
0.606838, 0.372647, 0.000000, 0.959595
0.000000, 1.03935, 1.03815, 0.000000
0.373404, 0.62313, 0.566143, 2.47364
0.391996, 0.673526, 0.668686, 1.00776
0.322486, 0.000000, 1.01285, 0.000000
0.000000, 0.961158, 0.000000, 1.00574
0.842712, 0.109491, 0.000000, 0.164529
0.81367, 1.00995, 0.967992, 0.52173
0.434217, 0.000000, 0.000000, 0.000000
3.13863, 0.000000, 0.200619, 0.770744
0.000000, 0.000000, 0.000000, 1.06826
0.000000, 0.966379, 0.000000, 1.12955
1.96306, 0.000000, 0.000000, 0.000000
0.000000, 0.000000, 0.000000, 0.000000
0.000000, 0.000000, 0.000000, 0.594473
2.55397, 0.000000, 0.000000, 0.000000
1.67856, 0.360135, 2.82617, 0.150919
1.95943, 1.20178, 1.84721, 0.967556
2.38177, 1.07356, 1.49355, 0.700536
3.33618, 0.000000, 2.12025, 1.04014
0.000000, 0.000000, 0.359723, 0.639826
0.000000, 0.000000, 1.00185, 0.000000
0.000000, 0.000000, 0.000000, 0.000000
0.987526, 0.000000, 0.496547, 2.738
0.822452, 1.80074, 1.05428, 2.09183
1.04785, 0.892549, 0.245388, 1.71084
0.000000, 0.521257, 0.460478, 0.000000
1.77304, 0.172577, 1.968, 1.03793
0.000000, 0.000000, 0.000000, 0.000000
1.13716, 1.50535, 1.10204, 0.247378
0.000000, 0.980835, 0.129969, 0.828087
0.309794, 0.64504, 0.000000, 0.632214
*END

*EOF
