40 37.7376 30.3058 7.4318
40.05 32.8109 30.3047 2.5062
40.1 35.5877 30.3035 5.2842
40.15 29.9465 30.3025 -0.356
40.2 38.4941 30.3015 8.1926
40.25 35.9873 30.3006 5.6867
40.3 36.8878 30.2996 6.5882
40.35 34.8807 30.2988 4.5819
40.4 31.6898 30.298 1.3918
40.45 35.5314 30.2974 5.234
40.5 27.9957 30.2967 -2.301
40.55 37.2041 30.2961 6.908
40.6 37.929 30.2956 7.6334
40.65 41.7227 30.2952 11.4275
40.7 43.4007 30.2948 13.1059
40.75 35.0683 30.2946 4.7737
40.8 30.4813 30.2944 0.1869
40.85 31.3025 30.2944 1.0081
40.9 33.0748 30.2944 2.7804
40.95 33.1474 30.2946 2.8528
41 44.2541 30.2948 13.9593
41.05 27.4895 30.2952 -2.8057
41.1 31.4599 30.2957 1.1642
41.15 37.6539 30.2964 7.3575
41.2 45.3231 30.2971 15.026
41.25 42.1368 30.298 11.8388
41.3 35.8502 30.2991 5.5511
41.35 41.1699 30.3005 10.8694
41.4 32.5669 30.3019 2.265
41.45 37.8588 30.3036 7.5552
41.5 45.4811 30.3054 15.1757
41.55 43.6928 30.3075 13.3853
41.6 47.4073 30.3098 17.0975
41.65 42.6426 30.3124 12.3302
41.7 28.5613 30.3152 -1.7539
41.75 34.6055 30.3185 4.287
41.8 43.2384 30.3218 12.9166
41.85 40.2252 30.3258 9.8994
41.9 34.6421 30.3298 4.3123
41.95 36.5026 30.3346 6.168
42 34.1863 30.3393 3.847
42.05 41.4847 30.345 11.1397
42.1 40.4098 30.3507 10.0591
42.15 34.8477 30.3575 4.4902
42.2 36.5292 30.3642 6.165
42.25 50.1853 30.3719 19.8134
42.3 25.2395 30.3803 -5.1408
42.35 32.9072 30.3899 2.5173
42.4 44.385 30.3995 13.9855
42.45 45.113 30.4104 14.7026
42.5 40.3258 30.4223 9.9035
42.55 39.1332 30.4359 8.6973
42.6 39.3882 30.4496 8.9386
42.65 42.2193 30.4652 11.7541
42.7 46.4961 30.4823 16.0138
42.75 40.9596 30.5011 10.4585
42.8 26.8247 30.5218 -3.6971
42.85 42.589 30.5458 12.0432
42.9 28.0782 30.5698 -2.4916
42.95 34.1091 30.5993 3.5098
43 39.5615 30.6287 8.9328
43.05 44.0683 30.6633 13.405
43.1 39.0578 30.702 8.3558
43.15 36.9177 30.7485 6.1692
43.2 36.4638 30.795 5.6688
43.25 33.6822 30.8574 2.8248
43.3 37.422 30.9198 6.5022
43.35 45.4698 31.0164 14.4534
43.4 55.6737 31.2788 24.3949
43.45 35.4328 31.6037 3.8291
43.5 36.0097 31.7845 4.2252
43.55 36.9111 31.9735 4.9376
43.6 35.0404 32.1626 2.8778
43.65 35.3699 32.4159 2.954
43.7 39.0572 32.6691 6.3881
43.75 31.6294 33.0276 -1.3982
43.8 34.5958 33.3861 1.2097
43.85 37.903 33.9193 3.9837
43.9 29.7097 34.4524 -4.7427
43.95 35.2241 35.2971 -0.073
44 40.4618 36.1418 4.32
44.05 32.1102 37.605 -5.4948
44.1 49.8994 39.0683 10.8311
44.15 39.0702 41.4277 -2.3575
44.2 56.2997 44.9178 11.3819
44.25 56.6419 50.5581 6.0838
44.3 77.8788 61.4915 16.3873
44.35 85.3703 90.8106 -5.4403
44.4 139.071 182.629 -43.558
44.45 363.966 451.543 -87.577
44.5 1207.05 1015.91 191.14
44.55 1802.43 1732.71 69.72
44.6 1844.62 1942.67 -98.05
44.65 1022.65 1000.06 22.59
44.7 251.603 250.783 0.82
44.75 88.874 96.716 -7.842
44.8 70.0504 64.0223 6.0281
44.85 57.6528 51.5333 6.1195
44.9 44.2237 44.6211 -0.3974
44.95 50.8111 40.7308 10.0803
45 32.7903 38.2291 -5.4388
45.05 38.9166 36.7634 2.1532
45.1 45.0589 35.2977 9.7612
45.15 51.2416 34.3925 16.8491
45.2 35.0201 33.7026 1.3175
45.25 28.263 33.2193 -4.9563
45.3 27.0194 32.736 -5.7166
45.35 32.2172 32.4205 -0.2033
45.4 32.1268 32.1049 0.0219
45.45 32.4014 31.8871 0.5143
45.5 37.9811 31.6693 6.3118
45.55 33.8329 31.5122 2.3207
45.6 30.8753 31.3552 -0.4799
45.65 36.1251 31.2372 4.8879
45.7 35.369 31.1193 4.2497
45.75 26.4417 31.0034 -4.5617
45.8 25.2048 30.8875 -5.6827
45.85 39.2651 30.7891 8.476
45.9 39.9357 30.6907 9.245
45.95 37.7356 30.6354 7.1002
46 35.9118 30.5802 5.3316
46.05 40.8132 30.5358 10.2774
46.1 38.423 30.4914 7.9316
46.15 34.851 30.4547 4.3963
46.2 31.2257 30.418 0.8077
46.25 25.683 30.3872 -4.7042
46.3 19.7874 30.3563 -10.5689
46.35 44.8191 30.3289 14.4902
46.4 34.625 30.3036 4.3214
46.45 50.4642 30.2801 20.1841
46.5 24.5853 30.2582 -5.6729
46.55 32.3108 30.2383 2.0725
46.6 30.2986 30.2185 0.0801
46.65 42.3736 30.2011 12.1725
46.7 32.8152 30.1836 2.6316
46.75 40.5812 30.1681 10.4131
46.8 44.0965 30.1526 13.9439
46.85 33.7078 30.1384 3.5694
46.9 49.2605 30.1248 19.1357
46.95 27.4622 30.1123 -2.6501
47 39.4329 30.0998 9.3331
47.05 32.8084 30.0884 2.72
47.1 31.3788 30.077 1.3018
47.15 31.0158 30.0666 0.9492
47.2 36.8521 30.0562 6.7959
47.25 35.4231 30.0466 5.3765
47.3 41.293 30.037 11.256
47.35 27.6444 30.0282 -2.3838
47.4 27.6751 30.0193 -2.3442
47.45 30.5445 30.0111 0.5334
47.5 38.0393 30.0028 8.0365
47.55 33.8807 29.9951 3.8856
47.6 21.6314 29.9874 -8.356
47.65 35.0161 29.9802 5.0359
47.7 29.838 29.9729 -0.1349
47.75 38.1761 29.9661 8.21
47.8 32.3377 29.9593 2.3784
47.85 44.7662 29.9527 14.8135
47.9 20.4439 29.9464 -9.5025
47.95 24.0516 29.9402 -5.8886
48 41.5349 29.9341 11.6008
48.05 34.606 29.9282 4.6778
48.1 42.5298 29.9224 12.6074
48.15 44.299 29.9167 14.3823
48.2 33.1329 29.9112 3.2217
48.25 35.8055 29.9058 5.8997
48.3 37.3676 29.9004 7.4672
48.35 35.0923 29.8953 5.197
48.4 46.3954 29.8901 16.5053
48.45 34.1682 29.8851 4.2831
48.5 37.6426 29.8801 7.7625
48.55 22.5027 29.8753 -7.3726
48.6 35.7727 29.8705 5.9022
48.65 36.7579 29.8658 6.8921
48.7 40.5003 29.8611 10.6392
48.75 30.0663 29.8566 0.2097
48.8 26.9404 29.8521 -2.9117
48.85 32.1592 29.8476 2.3116
48.9 34.092 29.8432 4.2488
48.95 23.9242 29.8389 -5.9147
49 37.7292 29.8346 7.8946
49.05 27.615 29.8304 -2.2154
49.1 35.2827 29.8262 5.4565
49.15 35.6353 29.8221 5.8132
49.2 25.4112 29.818 -4.4068
49.25 31.4784 29.8146 1.6638
49.3 36.5529 29.8113 6.7416
49.35 31.1698 29.8073 1.3625
49.4 37.531 29.8034 7.7276
49.45 29.3331 29.7995 -0.4664
49.5 33.46 29.7956 3.6644
49.55 32.4249 29.7918 2.6331
49.6 33.9736 29.788 4.1856
49.65 28.5264 29.7843 -1.2579
49.7 37.1278 29.7805 7.3473
49.75 29.7649 29.7769 -0.012
49.8 32.4365 29.7732 2.6633
49.85 31.9243 29.7695 2.1548
49.9 23.5287 29.7659 -6.2372
49.95 37.6173 29.7623 7.855
50 35.3171 29.7587 5.5584
50.05 36.0773 29.7552 6.3221
50.1 26.7853 29.7516 -2.9663
50.15 35.9585 29.7481 6.2104
50.2 25.3886 29.7446 -4.356
50.25 36.0658 29.7412 6.3246
50.3 25.6119 29.7377 -4.1258
50.35 32.4784 29.7343 2.7441
50.4 30.41 29.7308 0.6792
50.45 23.9724 29.7275 -5.7551
50.5 36.9127 29.7241 7.1886
50.55 31.0935 29.7207 1.3728
50.6 32.8801 29.7173 3.1628
50.65 32.5259 29.714 2.8119
50.7 27.277 29.7107 -2.4337
50.75 36.5218 29.7074 6.8144
50.8 31.2371 29.7041 1.533
50.85 40.7306 29.7008 11.0298
50.9 23.1427 29.6975 -6.5548
50.95 26.7945 29.6943 -2.8998
51 41.2221 29.691 11.5311
51.05 27.6125 29.6878 -2.0753
51.1 35.0118 29.6845 5.3273
51.15 27.1553 29.6813 -2.526
51.2 25.6464 29.6781 -4.0317
51.25 41.7218 29.6749 12.0469
51.3 26.5883 29.6717 -3.0834
51.35 33.1464 29.6686 3.4778
51.4 40.8406 29.6654 11.1752
51.45 42.1806 29.6622 12.5184
51.5 21.7511 29.6591 -7.908
51.55 25.2994 29.656 -4.3566
51.6 37.2137 29.6528 7.5609
51.65 35.8849 29.6497 6.2352
51.7 32.3595 29.6466 2.7129
51.75 33.5686 29.6435 3.9251
51.8 29.126 29.6404 -0.5144
51.85 43.0031 29.6373 13.3658
51.9 24.6882 29.6342 -4.946
51.95 36.5921 29.6311 6.961
52 42.7987 29.628 13.1707
52.05 36.6625 29.625 7.0375
52.1 22.8346 29.6219 -6.7873
52.15 37.7661 29.6189 8.1472
52.2 30.7516 29.6158 1.1358
52.25 28.778 29.6128 -0.8348
52.3 31.726 29.6097 2.1163
52.35 20.6266 29.6067 -8.9801
52.4 25.799 29.6037 -3.8047
52.45 43.6777 29.6007 14.077
52.5 43.4859 29.5976 13.8883
52.55 34.1817 29.5946 4.5871
52.6 37.5789 29.5916 7.9873
52.65 35.0811 29.5886 5.4925
52.7 38.4695 29.5856 8.8839
52.75 20.2841 29.5826 -9.2985
52.8 35.0666 29.5796 5.487
52.85 24.8053 29.5767 -4.7714
52.9 31.8759 29.5737 2.3022
52.95 25.667 29.5707 -3.9037
53 34.5043 29.5677 4.9366
53.05 34.9032 29.5648 5.3384
53.1 37.3951 29.5618 7.8333
53.15 35.1639 29.5589 5.605
53.2 31.9651 29.5559 2.4092
53.25 31.2972 29.553 1.7442
53.3 33.042 29.55 3.492
53.35 34.7414 29.5471 5.1943
53.4 24.6301 29.5441 -4.914
53.45 27.0601 29.5412 -2.4811
53.5 30.7586 29.5383 1.2203
53.55 37.3433 29.5353 7.808
53.6 28.0284 29.5324 -1.504
53.65 33.1463 29.5295 3.6168
53.7 29.2069 29.5266 -0.3197
53.75 23.7404 29.5236 -5.7832
53.8 34.0201 29.5207 4.4994
53.85 33.3771 29.5178 3.8593
53.9 36.1714 29.5149 6.6565
53.95 32.0224 29.512 2.5104
54 18.4755 29.5091 -11.0336
54.05 24.42 29.5062 -5.0862
54.1 37.3169 29.5033 7.8136
54.15 25.0694 29.5004 -4.431
54.2 35.2842 29.4975 5.7867
54.25 30.2782 29.4946 0.7836
54.3 38.6532 29.4917 9.1615
54.35 25.1066 29.4889 -4.3823
54.4 34.3209 29.486 4.8349
54.45 27.7838 29.4831 -1.6993
54.5 26.1409 29.4802 -3.3393
54.55 22.7002 29.4774 -6.7772
54.6 22.708 29.4745 -6.7665
54.65 33.767 29.4716 4.2954
54.7 26.2835 29.4688 -3.1853
54.75 31.5617 29.4659 2.0958
54.8 25.2919 29.463 -4.1711
54.85 23.485 29.4602 -5.9752
54.9 23.3323 29.4573 -6.125
54.95 36.9836 29.4545 7.5291
55 25.9369 29.4516 -3.5147
55.05 29.9921 29.4488 0.5433
55.1 26.761 29.4459 -2.6849
55.15 30.3403 29.4431 0.8972
55.2 26.7542 29.4402 -2.686
55.25 33.2425 29.4374 3.8051
55.3 34.5835 29.4345 5.149
55.35 28.4697 29.4317 -0.962
55.4 34.6721 29.4289 5.2432
55.45 30.2887 29.426 0.8627
55.5 22.893 29.4232 -6.5302
55.55 38.4619 29.4204 9.0415
55.6 40.8176 29.4176 11.4
55.65 43.3616 29.4147 13.9469
55.7 26.9164 29.4119 -2.4955
55.75 35.8687 29.4091 6.4596
55.8 32.2162 29.4063 2.8099
55.85 31.1503 29.4035 1.7468
55.9 31.4584 29.4006 2.0578
55.95 42.7973 29.3978 13.3995
56 37.4963 29.395 8.1013
56.05 21.6725 29.3922 -7.7197
56.1 24.5465 29.3894 -4.8429
56.15 25.1287 29.3866 -4.2579
56.2 28.7921 29.3838 -0.5917
56.25 29.341 29.381 -0.04
56.3 24.4514 29.3782 -4.9268
56.35 27.4585 29.3754 -1.9169
56.4 23.1837 29.3726 -6.1889
56.45 30.5186 29.3698 1.1488
56.5 25.8238 29.367 -3.5432
56.55 33.5211 29.3642 4.1569
56.6 29.8126 29.3614 0.4512
56.65 31.7204 29.3587 2.3617
56.7 34.2582 29.3559 4.9023
56.75 27.7858 29.3531 -1.5673
56.8 30.8379 29.3503 1.4876
56.85 24.8712 29.3475 -4.4763
56.9 33.855 29.3448 4.5102
56.95 38.7087 29.342 9.3667
57 29.5111 29.3392 0.1719
57.05 27.8097 29.3364 -1.5267
57.1 25.515 29.3337 -3.8187
57.15 22.0998 29.3309 -7.2311
57.2 25.24 29.3281 -4.0881
57.25 22.3822 29.3254 -6.9432
57.3 36.5325 29.3226 7.2099
57.35 25.3825 29.3199 -3.9374
57.4 26.6448 29.3171 -2.6723
57.45 35.8143 29.3144 6.4999
57.5 30.4792 29.3116 1.1676
57.55 29.927 29.3089 0.6181
57.6 27.3088 29.3061 -1.9973
57.65 28.0774 29.3034 -1.226
57.7 34.0673 29.3006 4.7667
57.75 29.8284 29.2979 0.5305
57.8 32.2951 29.2951 3
57.85 34.2697 29.2924 4.9773
57.9 35.3855 29.2897 6.0958
57.95 33.7489 29.2869 4.462
58 21.6954 29.2842 -7.5888
58.05 23.3122 29.2815 -5.9693
58.1 27.9577 29.2788 -1.3211
58.15 35.1412 29.276 5.8652
58.2 22.1787 29.2733 -7.0946
58.25 35.9756 29.2706 6.705
58.3 32.386 29.2679 3.1181
58.35 31.4666 29.2652 2.2014
58.4 23.3722 29.2625 -5.8903
58.45 34.1707 29.2598 4.9109
58.5 39.975 29.2571 10.7179
58.55 23.6656 29.2544 -5.5888
58.6 28.7687 29.2517 -0.483
58.65 33.4637 29.249 4.2147
58.7 41.9336 29.2463 12.6873
58.75 36.2552 29.2436 7.0116
58.8 31.1296 29.2409 1.8887
58.85 31.9199 29.2382 2.6817
58.9 22.1924 29.2355 -7.0431
58.95 37.5065 29.2329 8.2736
59 29.085 29.2302 -0.1452
59.05 25.7273 29.2275 -3.5002
59.1 27.576 29.2248 -1.6488
59.15 33.2922 29.2222 4.07
59.2 31.8707 29.2195 2.6512
59.25 33.3717 29.2169 4.1548
59.3 32.7354 29.2142 3.5212
59.35 24.7674 29.2116 -4.4442
59.4 36.5382 29.2089 7.3293
59.45 34.1382 29.2063 4.9319
59.5 21.3268 29.2036 -7.8768
59.55 29.2399 29.201 0.0389
59.6 34.7249 29.1984 5.5265
59.65 32.9071 29.1957 3.7114
59.7 44.8452 29.1931 15.6521
59.75 24.0033 29.1905 -5.1872
59.8 30.1147 29.1879 0.9268
59.85 35.8813 29.1853 6.696
59.9 39.5274 29.1827 10.3447
59.95 27.2971 29.1728 -1.8757
60 36.7018 29.1628 7.539
60.05 31.1471 29.1602 1.9869
60.1 35.1135 29.1577 5.9558
60.15 37.4367 29.1551 8.2816
60.2 37.4205 29.1525 8.268
60.25 23.0375 29.1499 -6.1124
60.3 31.5996 29.1474 2.4522
60.35 27.4216 29.1448 -1.7232
60.4 32.4049 29.1423 3.2626
60.45 29.7262 29.1397 0.5865
60.5 35.6716 29.1372 6.5344
60.55 24.1489 29.1347 -4.9858
60.6 28.9037 29.1321 -0.2284
60.65 40.4236 29.1296 11.294
60.7 29.6895 29.1271 0.5624
60.75 30.2529 29.1246 1.1283
60.8 32.232 29.1221 3.1099
60.85 27.1597 29.1197 -1.96
60.9 38.3939 29.1172 9.2767
60.95 33.0472 29.1147 3.9325
61 23.7667 29.1123 -5.3456
61.05 28.8676 29.1098 -0.2422
61.1 27.743 29.1074 -1.3644
61.15 35.4575 29.105 6.3525
61.2 26.3765 29.1026 -2.7261
61.25 35.4053 29.1002 6.3051
61.3 36.0536 29.0978 6.9558
61.35 29.9339 29.0955 0.8384
61.4 31.0116 29.0931 1.9185
61.45 39.1812 29.0908 10.0904
61.5 30.4928 29.0885 1.4043
61.55 36.459 29.0862 7.3728
61.6 33.3714 29.0839 4.2875
61.65 42.5978 29.0817 13.5161
61.7 31.0029 29.0794 1.9235
61.75 26.0805 29.0772 -2.9967
61.8 24.906 29.0751 -4.1691
61.85 25.7472 29.0729 -3.3257
61.9 37.0463 29.0708 7.9755
61.95 30.5263 29.0687 1.4576
62 24.8251 29.0666 -4.2415
62.05 30.4435 29.0646 1.3789
62.1 26.0845 29.0626 -2.9781
62.15 28.7283 29.0607 -0.3324
62.2 27.6729 29.0588 -1.3859
62.25 22.0894 29.057 -6.9676
62.3 32.7696 29.0552 3.7144
62.35 32.4049 29.0534 3.3515
62.4 33.5987 29.0517 4.547
62.45 22.1656 29.0502 -6.8846
62.5 38.1069 29.0486 9.0583
62.55 38.4849 29.0472 9.4377
62.6 37.8599 29.0457 8.8142
62.65 33.3187 29.0445 4.2742
62.7 23.0955 29.0433 -5.9478
62.75 24.6775 29.0423 -4.3648
62.8 21.8114 29.0413 -7.2299
62.85 20.3481 29.0405 -8.6924
62.9 26.0246 29.0398 -3.0152
62.95 28.6771 29.0394 -0.3623
63 22.6443 29.0391 -6.3948
63.05 29.0287 29.0391 -0.0104
63.1 24.2552 29.0392 -4.784
63.15 31.5427 29.0398 2.5029
63.2 30.6828 29.0404 1.6424
63.25 28.7101 29.0418 -0.3317
63.3 19.5858 29.0432 -9.4574
63.35 32.4102 29.0456 3.3646
63.4 26.6385 29.0481 -2.4096
63.45 25.8704 29.0527 -3.1823
63.5 34.5038 29.0573 5.4465
63.55 35.8603 29.0727 6.7876
63.6 28.6724 29.088 -0.4156
63.65 38.8254 29.1239 9.7015
63.7 36.7034 29.1597 7.5437
63.75 28.6733 29.1858 -0.5125
63.8 23.307 29.2118 -5.9048
63.85 34.7415 29.2394 5.5021
63.9 27.8415 29.2669 -1.4254
63.95 40.0153 29.3052 10.7101
64 27.1203 29.3435 -2.2232
64.05 26.5404 29.4 -2.8596
64.1 39.3394 29.4564 9.883
64.15 25.3823 29.5441 -4.1618
64.2 35.2172 29.6318 5.5854
64.25 47.7414 29.7579 17.9835
64.3 20.3104 29.9244 -9.614
64.35 40.9753 30.1967 10.7786
64.4 28.6528 30.469 -1.8162
64.45 36.0457 31.0868 4.9589
64.5 35.9015 31.7046 4.1969
64.55 30.5959 33.9391 -3.3432
64.6 44.4175 36.1735 8.244
64.65 48.5983 44.5891 4.0092
64.7 62.2925 63.1351 -0.8426
64.75 99.1583 100.838 -1.6797
64.8 139.796 149.231 -9.435
64.85 178.803 175.505 3.298
64.9 152.684 150.987 1.697
64.95 98.3337 97.7845 0.5492
65 60.4175 57.9113 2.5062
65.05 35.5056 40.3894 -4.8838
65.1 28.8374 34.3013 -5.4639
65.15 32.1666 32.6349 -0.4683
65.2 31.7057 30.9685 0.7372
65.25 28.0828 30.4917 -2.4089
65.3 27.713 30.0148 -2.3018
65.35 20.0106 29.8057 -9.7951
65.4 32.1795 29.5965 2.583
65.45 26.8987 29.4844 -2.5857
65.5 43.274 29.3723 13.9017
65.55 34.8862 29.3045 5.5817
65.6 33.4176 29.2367 4.1809
65.65 22.2665 29.1921 -6.9256
65.7 35.4572 29.1475 6.3097
65.75 22.4754 29.1162 -6.6408
65.8 23.4047 29.085 -5.6803
65.85 25.6879 29.0616 -3.3737
65.9 39.4394 29.0383 10.4011
65.95 35.1183 29.017 6.1013
66 33.3038 28.9958 4.308
66.05 30.2555 28.9704 1.2851
66.1 36.2756 28.9451 7.3305
66.15 29.3837 28.9304 0.4533
66.2 35.297 28.9157 6.3813
66.25 35.5857 28.9067 6.679
66.3 19.297 28.8978 -9.6008
66.35 30.6236 28.8904 1.7332
66.4 36.6183 28.8831 7.7352
66.45 24.556 28.8766 -4.3206
66.5 32.6001 28.8702 3.7299
66.55 28.7196 28.8645 -0.1449
66.6 25.2223 28.8588 -3.6365
66.65 30.7403 28.8536 1.8867
66.7 44.3816 28.8483 15.5333
66.75 30.3827 28.8436 1.5391
66.8 31.8877 28.8388 3.0489
66.85 18.5228 28.8343 -10.3115
66.9 29.3574 28.8299 0.5275
66.95 41.0351 28.8257 12.2094
67 39.0134 28.8215 10.1919
67.05 26.5733 28.8175 -2.2442
67.1 26.9688 28.8136 -1.8448
67.15 29.9263 28.8098 1.1165
67.2 41.8321 28.806 13.0261
67.25 25.0724 28.8024 -3.73
67.3 33.2888 28.7988 4.49
67.35 43.2919 28.7953 14.4966
67.4 33.0451 28.7918 4.2533
67.45 36.8354 28.7884 8.047
67.5 35.1003 28.7851 6.3152
67.55 34.6134 28.7818 5.8316
67.6 34.1279 28.7785 5.3494
67.65 34.4796 28.7753 5.7043
67.7 28.9904 28.7721 0.2183
67.75 36.7379 28.769 7.9689
67.8 24.6282 28.7659 -4.1377
67.85 21.7961 28.7628 -6.9667
67.9 27.3482 28.7598 -1.4116
67.95 28.59 28.7568 -0.1668
68 26.2645 28.7537 -2.4892
68.05 34.2796 28.7508 5.5288
68.1 27.0176 28.7478 -1.7302
68.15 25.6028 28.7449 -3.1421
68.2 34.775 28.742 6.033
68.25 31.0468 28.7391 2.3077
68.3 28.7079 28.7363 -0.0284
68.35 30.4767 28.7334 1.7433
68.4 20.0254 28.7306 -8.7052
68.45 27.7831 28.7278 -0.9447
68.5 21.4094 28.725 -7.3156
68.55 38.9829 28.7222 10.2607
68.6 36.2588 28.7195 7.5393
68.65 25.6091 28.7167 -3.1076
68.7 31.6978 28.714 2.9838
68.75 30.0157 28.7112 1.3045
68.8 23.915 28.7085 -4.7935
68.85 24.274 28.7058 -4.4318
68.9 36.0392 28.7031 7.3361
68.95 38.8078 28.7004 10.1074
69 30.5248 28.6977 1.8271
69.05 27.4346 28.6951 -1.2605
69.1 27.9387 28.6924 -0.7537
69.15 27.9965 28.6898 -0.6933
69.2 33.6584 28.6871 4.9713
69.25 37.0995 28.6845 8.415
69.3 29.8467 28.6819 1.1648
69.35 28.0304 28.6793 -0.6489
69.4 25.7722 28.6767 -2.9045
69.45 28.7029 28.6741 0.0288
69.5 22.2671 28.6715 -6.4044
69.55 33.3033 28.6689 4.6344
69.6 33.023 28.6663 4.3567
69.65 34.5919 28.6637 5.9282
69.7 34.6437 28.6612 5.9825
69.75 25.9851 28.6586 -2.6735
69.8 19.4337 28.656 -9.2223
69.85 33.7779 28.6535 5.1244
69.9 21.6524 28.651 -6.9986
69.95 25.1543 28.6484 -3.4941
70 28.2704 28.6459 -0.3755
70.05 33.393 28.6434 4.7496
70.1 34.5659 28.6408 5.9251
70.15 32.7657 28.6383 4.1274
70.2 24.2446 28.6358 -4.3912
70.25 29.8224 28.6333 1.1891
70.3 31.2279 28.6308 2.5971
70.35 47.1028 28.6283 18.4745
70.4 30.2251 28.6258 1.5993
70.45 23.9536 28.6233 -4.6697
70.5 27.0437 28.6208 -1.5771
70.55 25.1122 28.6184 -3.5062
70.6 21.8618 28.6159 -6.7541
70.65 29.6092 28.6134 0.9958
70.7 20.9991 28.611 -7.6119
70.75 27.6371 28.6085 -0.9714
70.8 25.5704 28.606 -3.0356
70.85 22.359 28.6036 -6.2446
70.9 24.1417 28.6011 -4.4594
70.95 26.7585 28.5987 -1.8402
71 26.897 28.5963 -1.6993
71.05 23.2804 28.5938 -5.3134
71.1 30.1477 28.5914 1.5563
71.15 27.2262 28.589 -1.3628
71.2 30.597 28.5865 2.0105
71.25 26.1281 28.5841 -2.456
71.3 30.4555 28.5817 1.8738
71.35 28.9658 28.5793 0.3865
71.4 16.739 28.5769 -11.8379
71.45 27.1836 28.5745 -1.3909
71.5 26.1806 28.5721 -2.3915
71.55 26.7449 28.5697 -1.8248
71.6 24.8858 28.5673 -3.6815
71.65 30.1941 28.5649 1.6292
71.7 28.9919 28.5625 0.4294
71.75 29.0444 28.5601 0.4843
71.8 29.6369 28.5577 1.0792
71.85 32.3099 28.5554 3.7545
71.9 27.7469 28.553 -0.8061
71.95 28.2978 28.5506 -0.2528
72 32.1336 28.5483 3.5853
72.05 36.394 28.5459 7.8481
72.1 37.9104 28.5435 9.3669
72.15 30.279 28.5412 1.7378
72.2 27.814 28.5388 -0.7248
72.25 28.1876 28.5365 -0.3489
72.3 30.8002 28.5341 2.2661
72.35 19.9729 28.5318 -8.5589
72.4 24.4732 28.5295 -4.0563
72.45 34.954 28.5271 6.4269
72.5 29.1536 28.5248 0.6288
72.55 41.6115 28.5225 13.089
72.6 28.5298 28.5202 0.0096
72.65 35.0347 28.5178 6.5169
72.7 32.502 28.5155 3.9865
72.75 23.418 28.5132 -5.0952
72.8 30.5546 28.5109 2.0437
72.85 23.6432 28.5086 -4.8654
72.9 35.8646 28.5063 7.3583
72.95 29.178 28.504 0.674
73 22.5019 28.5017 -5.9998
73.05 36.7798 28.4994 8.2804
73.1 27.9084 28.4971 -0.5887
73.15 38.3437 28.4948 9.8489
73.2 35.9669 28.4926 7.4743
73.25 25.0144 28.4903 -3.4759
73.3 23.5029 28.488 -4.9851
73.35 26.8407 28.4857 -1.645
73.4 35.3133 28.4835 6.8298
73.45 34.2184 28.4812 5.7372
73.5 32.024 28.479 3.545
73.55 23.0846 28.4767 -5.3921
73.6 27.2353 28.4745 -1.2392
73.65 36.7775 28.4722 8.3053
73.7 35.2821 28.47 6.8121
73.75 31.9912 28.4677 3.5235
73.8 19.9048 28.4655 -8.5607
73.85 32.8562 28.4633 4.3929
73.9 28.143 28.461 -0.318
73.95 24.7635 28.4588 -3.6953
74 21.8935 28.4566 -6.5631
74.05 33.3007 28.4544 4.8463
74.1 26.5886 28.4522 -1.8636
74.15 25.2361 28.4499 -3.2138
74.2 27.2156 28.4477 -1.2321
74.25 33.6623 28.4455 5.2168
74.3 26.0144 28.4433 -2.4289
74.35 22.9719 28.4411 -5.4692
74.4 20.0404 28.439 -8.3986
74.45 30.4112 28.4368 1.9744
74.5 40.1764 28.4346 11.7418
74.55 31.808 28.4324 3.3756
74.6 31.5555 28.4302 3.1253
74.65 28.2875 28.4281 -0.1406
74.7 34.6524 28.4259 6.2265
74.75 39.9004 28.4238 11.4766
74.8 30.5354 28.4216 2.1138
74.85 16.726 28.4195 -11.6935
74.9 33.6182 28.4173 5.2009
74.95 33.1505 28.4152 4.7353
75 24.8758 28.413 -3.5372
75.05 19.1531 28.4109 -9.2578
75.1 21.9666 28.4088 -6.4422
75.15 30.0999 28.4066 1.6933
75.2 32.4756 28.4045 4.0711
75.25 37.6797 28.4024 9.2773
75.3 35.3967 28.4003 6.9964
75.35 18.5502 28.3981 -9.8479
75.4 34.4307 28.396 6.0347
75.45 17.0197 28.3939 -11.3742
75.5 27.6651 28.3918 -0.7267
75.55 41.9044 28.3897 13.5147
75.6 26.6126 28.3875 -1.7749
75.65 28.7621 28.3854 0.3767
75.7 31.2338 28.3833 2.8505
75.75 31.7793 28.3812 3.3981
75.8 36.47 28.3791 8.0909
75.85 37.1754 28.377 8.7984
75.9 29.2334 28.3749 0.8585
75.95 32.2885 28.3728 3.9157
76 25.5939 28.3706 -2.7767
76.05 28.1639 28.3685 -0.2046
76.1 30.9453 28.3664 2.5789
76.15 29.7972 28.3643 1.4329
76.2 35.1904 28.3622 6.8282
76.25 25.4269 28.3601 -2.9332
76.3 34.0464 28.3581 5.6883
76.35 25.1737 28.356 -3.1823
76.4 30.657 28.3539 2.3031
76.45 31.0504 28.3518 2.6986
76.5 26.4296 28.3497 -1.9201
76.55 31.1942 28.3477 2.8465
76.6 28.3525 28.3456 0.0069
76.65 30.5583 28.3435 2.2148
76.7 34.2794 28.3415 5.9379
76.75 34.0708 28.3394 5.7314
76.8 35.4531 28.3374 7.1157
76.85 24.0592 28.3353 -4.2761
76.9 18.6781 28.3333 -9.6552
76.95 30.8441 28.3312 2.5129
77 29.0393 28.3292 0.7101
77.05 26.2238 28.3272 -2.1034
77.1 29.0038 28.3252 0.6786
77.15 31.4355 28.3232 3.1123
77.2 28.9966 28.3212 0.6754
77.25 30.9643 28.3192 2.6451
77.3 31.3986 28.3172 3.0814
77.35 35.148 28.3152 6.8328
77.4 33.2193 28.3132 4.9061
77.45 26.3137 28.3113 -1.9976
77.5 27.7568 28.3093 -0.5525
77.55 27.1191 28.3074 -1.1883
77.6 35.5902 28.3055 7.2847
77.65 23.6808 28.3036 -4.6228
77.7 25.2737 28.3017 -3.028
77.75 22.319 28.2998 -5.9808
77.8 24.4156 28.2979 -3.8823
77.85 31.2513 28.296 2.9553
77.9 25.8385 28.2942 -2.4557
77.95 26.444 28.2924 -1.8484
78 25.3876 28.2905 -2.9029
78.05 30.1499 28.2887 1.8612
78.1 26.8098 28.2869 -1.4771
78.15 26.5513 28.2852 -1.7339
78.2 23.2634 28.2834 -5.02
78.25 30.1066 28.2817 1.8249
78.3 33.9448 28.28 5.6648
78.35 37.9343 28.2783 9.656
78.4 31.0733 28.2767 2.7966
78.45 26.1433 28.2751 -2.1318
78.5 29.5464 28.2734 1.273
78.55 33.9343 28.2719 5.6624
78.6 30.7746 28.2703 2.5043
78.65 28.4417 28.2688 0.1729
78.7 29.3213 28.2673 1.054
78.75 25.2871 28.2659 -2.9788
78.8 22.7669 28.2645 -5.4976
78.85 29.1394 28.2631 0.8763
78.9 24.1758 28.2618 -4.086
78.95 22.4271 28.2605 -5.8334
79 37.689 28.2593 9.4297
79.05 32.2242 28.2581 3.9661
79.1 29.8829 28.257 1.6259
79.15 26.0062 28.2559 -2.2497
79.2 25.7886 28.2549 -2.4663
79.25 27.4478 28.254 -0.8062
79.3 22.8436 28.2531 -5.4095
79.35 28.4901 28.2524 0.2377
79.4 31.6721 28.2516 3.4205
79.45 30.8592 28.2515 2.6077
79.5 27.885 28.2515 -0.3665
79.55 24.4419 28.2511 -3.8092
79.6 29.6942 28.2508 1.4434
79.65 32.9604 28.2506 4.7098
79.7 27.7984 28.2505 -0.4521
79.75 29.6453 28.2507 1.3946
79.8 29.2785 28.2509 1.0276
79.85 24.2409 28.2514 -4.0105
79.9 24.415 28.2519 -3.8369
79.95 31.6139 28.2529 3.361
80 35.1469 28.2538 6.8931
80.05 22.0593 28.2552 -6.1959
80.1 17.9208 28.2566 -10.3358
80.15 24.9229 28.2587 -3.3358
80.2 30.5035 28.2607 2.2428
80.25 36.2585 28.2635 7.995
80.3 36.4844 28.2663 8.2181
80.35 31.3539 28.27 3.0839
80.4 27.7252 28.2737 -0.5485
80.45 28.0569 28.2787 -0.2218
80.5 36.3997 28.2836 8.1161
80.55 37.7006 28.2902 9.4104
80.6 30.6094 28.2967 2.3127
80.65 27.131 28.3055 -1.1745
80.7 34.9642 28.3143 6.6499
80.75 26.1676 28.3268 -2.1592
80.8 31.7509 28.3394 3.4115
80.85 37.024 28.3674 8.6566
80.9 28.8018 28.3954 0.4064
80.95 35.8614 28.4775 7.3839
81 32.0514 28.5596 3.4918
81.05 25.5614 28.6185 -3.0571
81.1 29.3376 28.6775 0.6601
81.15 35.2838 28.7375 6.5463
81.2 44.8283 28.7975 16.0308
81.25 18.7945 28.8803 -10.0858
81.3 26.6516 28.963 -2.3114
81.35 31.0767 29.084 1.9927
81.4 23.9956 29.205 -5.2094
81.45 28.0002 29.3923 -1.3921
81.5 34.0523 29.5795 4.4728
81.55 30.449 29.8918 0.5572
81.6 26.389 30.204 -3.815
81.65 35.4042 30.7857 4.6185
81.7 45.2279 31.3673 13.8606
81.75 27.7674 32.6799 -4.9125
81.8 35.9837 33.9925 1.9912
81.85 36.5271 36.9217 -0.3946
81.9 50.9373 43.4595 7.4778
81.95 63.1771 61.9038 1.2733
82 131.947 109.213 22.734
82.05 187.009 204.671 -17.662
82.1 321.834 311.727 10.107
82.15 327.031 329.224 -2.193
82.2 215.738 229.171 -13.433
82.25 121.069 117.267 3.802
82.3 62.1586 60.8298 1.3288
82.35 41.2631 42.0601 -0.797
82.4 39.1297 35.7879 3.3418
82.45 43.42 33.0814 10.3386
82.5 51.123 31.628 19.495
82.55 35.1307 30.7414 4.3893
82.6 32.0096 30.1559 1.8537
82.65 31.9104 29.8027 2.1077
82.7 41.8185 29.4495 12.369
82.75 33.3131 29.2513 4.0618
82.8 29.4711 29.053 0.4181
82.85 39.9086 28.93 10.9786
82.9 32.4204 28.807 3.6134
82.95 21.6246 28.7251 -7.1005
83 24.7907 28.6432 -3.8525
83.05 27.9458 28.5855 -0.6397
83.1 34.242 28.5278 5.7142
83.15 22.771 28.4843 -5.7133
83.2 27.7898 28.4408 -0.651
83.25 26.5384 28.3932 -1.8548
83.3 27.0614 28.3457 -1.2843
83.35 33.7155 28.2989 5.4166
83.4 29.3849 28.2522 1.1327
83.45 28.7194 28.2321 0.4873
83.5 24.7508 28.212 -3.4612
83.55 29.6907 28.1978 1.4929
83.6 32.0864 28.1836 3.9028
83.65 29.6402 28.172 1.4682
83.7 26.8821 28.1604 -1.2783
83.75 26.2376 28.1506 -1.913
83.8 26.2971 28.1409 -1.8438
83.85 33.0337 28.1324 4.9013
83.9 34.1938 28.124 6.0698
83.95 33.6791 28.1167 5.5624
84 31.4829 28.1093 3.3736
84.05 31.244 28.1028 3.1412
84.1 32.0128 28.0963 3.9165
84.15 39.224 28.0904 11.1336
84.2 33.5611 28.0846 5.4765
84.25 25.4105 28.0793 -2.6688
84.3 24.7032 28.074 -3.3708
84.35 22.6371 28.0692 -5.4321
84.4 18.0901 28.0644 -9.9743
84.45 19.3703 28.0599 -8.6896
84.5 30.3613 28.0555 2.3058
84.55 28.7753 28.0514 0.7239
84.6 32.6681 28.0472 4.6209
84.65 41.3601 28.0434 13.3167
84.7 28.7806 28.0395 0.7411
84.75 30.8705 28.0359 2.8346
84.8 37.8951 28.0323 9.8628
84.85 26.0487 28.0289 -1.9802
84.9 39.286 28.0255 11.2605
84.95 27.3358 28.0223 -0.6865
85 28.5395 28.0191 0.5204
85.05 27.6767 28.016 -0.3393
85.1 28.0358 28.0129 0.0229
85.15 29.414 28.01 1.404
85.2 24.4936 28.007 -3.5134
85.25 24.211 28.0042 -3.7932
85.3 29.8423 28.0014 1.8409
85.35 30.6829 27.9987 2.6842
85.4 25.0123 27.996 -2.9837
85.45 27.8798 27.9934 -0.1136
85.5 28.0352 27.9908 0.0444
85.55 37.5911 27.9883 9.6028
85.6 26.3702 27.9857 -1.6155
85.65 31.9803 27.9833 3.997
85.7 30.3483 27.9809 2.3674
85.75 26.6331 27.9785 -1.3454
85.8 23.846 27.9761 -4.1301
85.85 32.6157 27.9738 4.6419
85.9 28.5491 27.9715 0.5776
85.95 22.7839 27.9693 -5.1854
86 29.1007 27.967 1.1337
86.05 31.5723 27.9649 3.6074
86.1 34.1119 27.9627 6.1492
86.15 21.213 27.9606 -6.7476
86.2 40.1076 27.9584 12.1492
86.25 26.2214 27.9563 -1.7349
86.3 27.3927 27.9543 -0.5616
86.35 34.0584 27.9522 6.1062
86.4 29.9777 27.9502 2.0275
86.45 24.9745 27.9482 -2.9737
86.5 21.7882 27.9462 -6.158
86.55 23.407 27.9443 -4.5373
86.6 31.3557 27.9423 3.4134
86.65 25.3915 27.9404 -2.5489
86.7 22.3505 27.9385 -5.588
86.75 33.9235 27.9366 5.9869
86.8 34.9803 27.9347 7.0456
86.85 30.6789 27.9329 2.746
86.9 29.9799 27.9311 2.0488
86.95 24.5132 27.9292 -3.416
87 34.8802 27.9274 6.9528
87.05 30.5989 27.9257 2.6732
87.1 22.4605 27.9239 -5.4634
87.15 22.6691 27.9222 -5.2531
87.2 19.4593 27.9204 -8.4611
87.25 23.778 27.9187 -4.1407
87.3 49.541 27.917 21.624
87.35 19.5671 27.9153 -8.3482
87.4 36.2286 27.9136 8.315
87.45 32.2411 27.912 4.3291
87.5 21.1344 27.9103 -6.7759
87.55 27.7717 27.9087 -0.137
87.6 38.9235 27.9071 11.0164
87.65 34.5467 27.9055 6.6412
87.7 24.4204 27.9039 -3.4835
87.75 28.735 27.9023 0.8327
87.8 42.7309 27.9007 14.8302
87.85 32.6047 27.8992 4.7055
87.9 25.4391 27.8976 -2.4585
87.95 25.0247 27.8961 -2.8714
88 28.9303 27.8946 1.0357
88.05 25.4222 27.8931 -2.4709
88.1 22.6076 27.8916 -5.284
88.15 27.4964 27.8902 -0.3938
88.2 19.2328 27.8887 -8.6559
88.25 27.8255 27.8872 -0.0617
88.3 39.131 27.8858 11.2452
88.35 30.9421 27.8844 3.0577
88.4 23.2413 27.883 -4.6417
88.45 28.3917 27.8816 0.5101
88.5 28.2342 27.8802 0.354
88.55 26.8647 27.8788 -1.0141
88.6 28.4936 27.8774 0.6162
88.65 24.4889 27.8761 -3.3872
88.7 34.3753 27.8747 6.5006
88.75 29.5769 27.8734 1.7035
88.8 28.4172 27.8721 0.5451
88.85 26.3466 27.8708 -1.5242
88.9 25.3073 27.8695 -2.5622
88.95 27.4965 27.8682 -0.3717
89 41.5162 27.8669 13.6493
89.05 33.0265 27.8657 5.1608
89.1 29.5572 27.8644 1.6928
89.15 28.7183 27.8632 0.8551
89.2 26.2359 27.862 -1.6261
89.25 33.9159 27.8608 6.0551
89.3 36.8975 27.8596 9.0379
89.35 25.8946 27.8584 -1.9638
89.4 14.027 27.8572 -13.8302
89.45 28.4077 27.856 0.5517
89.5 29.2799 27.8549 1.425
89.55 31.3816 27.8538 3.5278
89.6 33.4733 27.8526 5.6207
89.65 24.0369 27.8515 -3.8146
89.7 26.7872 27.8504 -1.0632
89.75 27.4091 27.8493 -0.4402
89.8 32.1378 27.8482 4.2896
89.85 28.5099 27.8472 0.6627
89.9 25.4387 27.8461 -2.4074
89.95 31.075 27.845 3.23
90 24.9685 27.844 -2.8755
90.05 24.473 27.843 -3.37
90.1 27.4742 27.842 -0.3678
90.15 25.2741 27.841 -2.5669
90.2 24.7715 27.84 -3.0685
90.25 28.0145 27.839 0.1755
90.3 32.6709 27.838 4.8329
90.35 35.0353 27.8371 7.1982
90.4 18.9217 27.8361 -8.9144
90.45 27.0552 27.8352 -0.78
90.5 29.1496 27.8343 1.3153
90.55 37.9074 27.8334 10.074
90.6 30.3397 27.8325 2.5072
90.65 28.0958 27.8316 0.2642
90.7 27.1448 27.8308 -0.686
90.75 34.8198 27.8299 6.9899
90.8 30.4384 27.8291 2.6093
90.85 39.4472 27.8282 11.619
90.9 28.6121 27.8274 0.7847
90.95 28.1046 27.8266 0.278
91 29.1162 27.8258 1.2904
91.05 30.9675 27.825 3.1425
91.1 32.9239 27.8243 5.0996
91.15 31.2827 27.8235 3.4592
91.2 35.3804 27.8228 7.5576
91.25 30.2316 27.822 2.4096
91.3 36.7595 27.8213 8.9382
91.35 18.3368 27.8206 -9.4838
91.4 25.2358 27.8199 -2.5841
91.45 36.8061 27.8192 8.9869
91.5 35.7498 27.8186 7.9312
91.55 26.359 27.8179 -1.4589
91.6 25.2117 27.8173 -2.6056
91.65 34.4666 27.8166 6.65
91.7 37.7172 27.816 9.9012
91.75 21.3617 27.8154 -6.4537
91.8 36.6418 27.8148 8.827
91.85 25.8955 27.8143 -1.9188
91.9 37.4415 27.8137 9.6278
91.95 19.6014 27.8132 -8.2118
92 23.5583 27.8126 -4.2543
92.05 18.2472 27.8121 -9.5649
92.1 39.4073 27.8116 11.5957
92.15 19.0753 27.8111 -8.7358
92.2 19.6377 27.8106 -8.1729
92.25 32.1122 27.8101 4.3021
92.3 26.8295 27.8097 -0.9802
92.35 33.0111 27.8093 5.2018
92.4 28.1668 27.8088 0.358
92.45 22.4341 27.8084 -5.3743
92.5 33.7026 27.808 5.8946
92.55 24.1355 27.8076 -3.6721
92.6 33.0389 27.8072 5.2317
92.65 24.1667 27.8068 -3.6401
92.7 24.3385 27.8064 -3.4679
92.75 30.835 27.806 3.029
92.8 25.2868 27.8056 -2.5188
92.85 29.1244 27.8052 1.3192
92.9 31.2018 27.8048 3.397
92.95 22.6405 27.8044 -5.1639
93 36.4589 27.804 8.6549
93.05 34.2499 27.8037 6.4462
93.1 29.1906 27.8033 1.3873
93.15 35.6837 27.8029 7.8808
93.2 26.6075 27.8026 -1.1951
93.25 26.1509 27.8022 -1.6513
93.3 24.1886 27.8018 -3.6132
93.35 32.7878 27.8015 4.9863
93.4 39.7836 27.8011 11.9825
93.45 29.3814 27.8013 1.5801
93.5 24.6123 27.8015 -3.1892
93.55 33.8032 27.8012 6.002
93.6 23.0171 27.8008 -4.7837
93.65 21.2983 27.8005 -6.5022
93.7 28.9659 27.8002 1.1657
93.75 28.3609 27.7999 0.561
93.8 32.8217 27.7996 5.0221
93.85 31.2419 27.7993 3.4426
93.9 21.4341 27.799 -6.3649
93.95 25.5093 27.7988 -2.2895
94 27.2661 27.7985 -0.5324
94.05 25.644 27.7983 -2.1543
94.1 24.5227 27.798 -3.2753
94.15 24.2064 27.7978 -3.5914
94.2 25.5066 27.7975 -2.2909
94.25 27.6968 27.7973 -0.1005
94.3 28.1609 27.7971 0.3638
94.35 25.5128 27.7969 -2.2841
94.4 35.67 27.7968 7.8732
94.45 36.0063 27.7966 8.2097
94.5 35.3023 27.7964 7.5059
94.55 27.0782 27.7963 -0.7181
94.6 30.9756 27.7962 3.1794
94.65 31.701 27.796 3.905
94.7 27.7685 27.7959 -0.0274
94.75 32.2516 27.7959 4.4557
94.8 35.6639 27.7958 7.8681
94.85 23.0737 27.7957 -4.722
94.9 18.0808 27.7957 -9.7149
94.95 27.779 27.7957 -0.0167
95 21.0026 27.7957 -6.7931
95.05 31.9888 27.7957 4.1931
95.1 27.6618 27.7957 -0.1339
95.15 26.853 27.7958 -0.9428
95.2 24.8979 27.7959 -2.898
95.25 16.161 27.796 -11.635
95.3 33.9919 27.7961 6.1958
95.35 36.8922 27.7963 9.0959
95.4 31.4088 27.7965 3.6123
95.45 28.5101 27.7967 0.7134
95.5 32.7952 27.797 4.9982
95.55 18.5245 27.7973 -9.2728
95.6 35.6347 27.7976 7.8371
95.65 27.9967 27.798 0.1987
95.7 19.9529 27.7983 -7.8454
95.75 27.81 27.7988 0.0112
95.8 24.2827 27.7993 -3.5166
95.85 29.1773 27.7998 1.3775
95.9 32.1551 27.8004 4.3547
95.95 24.9118 27.8011 -2.8893
96 32.0877 27.8017 4.286
96.05 26.0306 27.8025 -1.7719
96.1 29.6347 27.8033 1.8314
96.15 23.3109 27.8043 -4.4934
96.2 28.5542 27.8052 0.749
96.25 28.7983 27.8063 0.992
96.3 33.5235 27.8074 5.7161
96.35 30.1749 27.8087 2.3662
96.4 28.2248 27.8101 0.4147
96.45 28.2862 27.8116 0.4746
96.5 29.6609 27.8132 1.8477
96.55 30.3268 27.815 2.5118
96.6 23.2457 27.8168 -4.5711
96.65 30.7119 27.819 2.8929
96.7 40.6046 27.8212 12.7834
96.75 32.7472 27.8237 4.9235
96.8 30.7846 27.8263 2.9583
96.85 30.5502 27.8294 2.7208
96.9 33.5162 27.8325 5.6837
96.95 20.4403 27.8363 -7.396
97 30.1361 27.8401 2.296
97.05 22.7908 27.8447 -5.0539
97.1 26.8458 27.8493 -1.0035
97.15 32.2927 27.8551 4.4376
97.2 37.1324 27.8609 9.2715
97.25 30.2514 27.8684 2.383
97.3 27.2833 27.876 -0.5927
97.35 33.3351 27.8883 5.4468
97.4 31.1633 27.9007 3.2626
97.45 30.5316 27.928 2.6036
97.5 19.8738 27.9553 -8.0815
97.55 34.7695 27.9855 6.784
97.6 21.5433 28.0156 -6.4723
97.65 27.5536 28.0448 -0.4912
97.7 25.4991 28.074 -2.5749
97.75 31.0097 28.1127 2.897
97.8 21.6613 28.1515 -6.4902
97.85 24.6617 28.2072 -3.5455
97.9 33.8368 28.2628 5.574
97.95 29.5135 28.3477 1.1658
98 28.9524 28.4327 0.5197
98.05 19.7663 28.5723 -8.806
98.1 29.2118 28.7119 0.4999
98.15 31.4923 28.9685 2.5238
98.2 23.7192 29.225 -5.5058
98.25 27.7167 29.7954 -2.0787
98.3 31.827 30.3658 1.4612
98.35 41.5629 32.2794 9.2835
98.4 31.4551 34.1931 -2.738
98.45 38.947 40.3899 -1.4429
98.5 57.2409 55.2536 1.9873
98.55 85.4938 84.7571 0.7367
98.6 115.367 125.247 -9.88
98.65 156.856 153.833 3.023
98.7 147.729 146.329 1.4
98.75 122.76 109.386 13.374
98.8 65.673 71.6873 -6.0143
98.85 55.0961 49.6816 5.4145
98.9 35.4974 38.6428 -3.1454
98.95 28.0958 35.3452 -7.2494
99 30.908 32.0477 -1.1397
99.05 35.398 31.0777 4.3203
99.1 33.1299 30.1077 3.0222
99.15 30.9651 29.6823 1.2828
99.2 23.8135 29.257 -5.4435
99.25 26.7496 29.0306 -2.281
99.3 32.7623 28.8041 3.9582
99.35 37.59 28.669 8.921
99.4 40.1227 28.5338 11.5889
99.45 29.6705 28.4465 1.224
99.5 32.74 28.3592 4.3808
99.55 32.5025 28.2994 4.2031
99.6 31.4304 28.2395 3.1909
99.65 36.0374 28.1953 7.8421
99.7 34.2956 28.1511 6.1445
99.75 32.4053 28.107 4.2983
99.8 23.238 28.0628 -4.8248
99.85 34.1645 28.0088 6.1557
99.9 23.6311 27.9549 -4.3238
99.95 24.2543 27.9299 -3.6756
100 37.6139 27.905 9.7089
100.05 26.7318 27.8952 -1.1634
100.1 35.1886 27.8855 7.3031
100.15 45.4523 27.8786 17.5737
100.2 31.3389 27.8727 3.4662
100.25 27.9837 27.8679 0.1158
100.3 21.9888 27.8631 -5.8743
100.35 38.0708 27.8594 10.2114
100.4 37.9644 27.8557 10.1087
100.45 32.6313 27.8528 4.7785
100.5 16.2143 27.8499 -11.6356
100.55 27.6465 27.8476 -0.2011
100.6 24.2307 27.8452 -3.6145
100.65 30.5698 27.8434 2.7264
100.7 24.7999 27.8416 -3.0417
100.75 33.0479 27.8402 5.2077
100.8 31.9834 27.8388 4.1446
100.85 26.046 27.8377 -1.7917
100.9 26.7544 27.8366 -1.0822
100.95 36.5208 27.8358 8.685
101 24.1909 27.835 -3.6441
101.05 22.5301 27.8345 -5.3044
101.1 25.7035 27.8339 -2.1304
101.15 34.35 27.8335 6.5165
101.2 34.261 27.8332 6.4278
101.25 23.1959 27.833 -4.6371
101.3 34.0567 27.8328 6.2239
101.35 41.3161 27.8328 13.4833
101.4 28.0962 27.8328 0.2634
101.45 34.7219 27.8329 6.889
101.5 21.529 27.833 -6.304
101.55 26.0095 27.8332 -1.8237
101.6 29.7902 27.8335 1.9567
101.65 31.926 27.8338 4.0922
101.7 32.6851 27.8342 4.8509
101.75 28.969 27.8346 1.1344
101.8 31.0797 27.8351 3.2446
101.85 32.7413 27.8356 4.9057
101.9 31.1121 27.8361 3.276
101.95 36.8257 27.8356 8.9901
102 34.5348 27.8351 6.6997
102.05 24.5808 27.8358 -3.255
102.1 22.9499 27.8365 -4.8866
102.15 26.5279 27.8373 -1.3094
102.2 26.8283 27.8381 -1.0098
102.25 25.3264 27.839 -2.5126
102.3 23.6674 27.8399 -4.1725
102.35 32.6249 27.8408 4.7841
102.4 25.3429 27.8417 -2.4988
102.45 28.172 27.8427 0.3293
102.5 30.5665 27.8437 2.7228
102.55 34.6746 27.8448 6.8298
102.6 22.2231 27.8458 -5.6227
102.65 25.765 27.847 -2.082
102.7 22.7684 27.8481 -5.0797
102.75 32.722 27.8493 4.8727
102.8 24.3412 27.8504 -3.5092
102.85 29.661 27.8517 1.8093
102.9 27.4327 27.8529 -0.4202
102.95 24.9329 27.8542 -2.9213
103 33.1071 27.8555 5.2516
103.05 32.239 27.8569 4.3821
103.1 24.5397 27.8582 -3.3185
103.15 15.371 27.8596 -12.4886
103.2 26.5685 27.861 -1.2925
103.25 31.506 27.8625 3.6435
103.3 29.6205 27.8639 1.7566
103.35 29.5575 27.8654 1.6921
103.4 20.4643 27.8669 -7.4026
103.45 22.6017 27.8685 -5.2668
103.5 22.8468 27.8701 -5.0233
103.55 25.5034 27.8717 -2.3683
103.6 26.4417 27.8733 -1.4316
103.65 21.9004 27.8749 -5.9745
103.7 32.3386 27.8766 4.462
103.75 26.5944 27.8783 -1.2839
103.8 40.152 27.88 12.272
103.85 36.2853 27.8818 8.4035
103.9 37.978 27.8835 10.0945
103.95 27.1818 27.8853 -0.7035
104 24.5745 27.8871 -3.3126
104.05 26.0252 27.889 -1.8638
104.1 39.6331 27.8909 11.7422
104.15 31.3546 27.8928 3.4618
104.2 26.2789 27.8947 -1.6158
104.25 41.6629 27.8966 13.7663
104.3 30.573 27.8986 2.6744
104.35 31.7926 27.9006 3.892
104.4 40.0529 27.9026 12.1503
104.45 33.9471 27.9046 6.0425
104.5 33.8931 27.9067 5.9864
104.55 28.278 27.9088 0.3692
104.6 37.9661 27.9109 10.0552
104.65 31.2089 27.913 3.2959
104.7 30.4465 27.9152 2.5313
104.75 29.1021 27.9174 1.1847
104.8 28.249 27.9196 0.3294
104.85 28.717 27.9218 0.7952
104.9 30.1052 27.9241 2.1811
104.95 21.5808 27.9264 -6.3456
105 36.9656 27.9287 9.0369
105.05 29.7299 27.931 1.7989
105.1 19.9581 27.9334 -7.9753
105.15 36.5201 27.9358 8.5843
105.2 35.9961 27.9382 8.0579
105.25 25.1138 27.9406 -2.8268
105.3 26.596 27.943 -1.347
105.35 25.7844 27.9455 -2.1611
105.4 30.3284 27.948 2.3804
105.45 23.6849 27.9506 -4.2657
105.5 25.5499 27.9531 -2.4032
105.55 29.0529 27.9557 1.0972
105.6 24.4234 27.9583 -3.5349
105.65 30.4006 27.961 2.4396
105.7 23.9307 27.9636 -4.0329
105.75 22.9882 27.9663 -4.9781
105.8 29.5386 27.969 1.5696
105.85 22.6489 27.9718 -5.3229
105.9 22.0873 27.9745 -5.8872
105.95 23.2422 27.9773 -4.7351
106 30.8555 27.9801 2.8754
106.05 30.4754 27.983 2.4924
106.1 30.0409 27.9858 2.0551
106.15 23.2125 27.9887 -4.7762
106.2 26.2372 27.9916 -1.7544
106.25 38.3688 27.9946 10.3742
106.3 32.7577 27.9975 4.7602
106.35 27.4636 28.0005 -0.5369
106.4 36.0521 28.0035 8.0486
106.45 35.7979 28.0066 7.7913
106.5 35.9536 28.0097 7.9439
106.55 31.4162 28.0128 3.4034
106.6 30.7948 28.0159 2.7789
106.65 24.8639 28.0191 -3.1552
106.7 42.3778 28.0222 14.3556
106.75 25.6886 28.0255 -2.3369
106.8 17.8431 28.0287 -10.1856
106.85 35.0483 28.032 7.0163
106.9 28.7602 28.0352 0.725
106.95 25.0339 28.0386 -3.0047
107 22.3603 28.0419 -5.6816
107.05 33.4972 28.0453 5.4519
107.1 27.2077 28.0487 -0.841
107.15 23.1339 28.0521 -4.9182
107.2 28.838 28.0556 0.7824
107.25 22.6284 28.0591 -5.4307
107.3 32.0148 28.0625 3.9523
107.35 29.6601 28.0661 1.594
107.4 32.4046 28.0697 4.3349
107.45 31.1249 28.0733 3.0516
107.5 25.3883 28.0769 -2.6886
107.55 43.8498 28.0805 15.7693
107.6 27.7553 28.0842 -0.3289
107.65 32.6297 28.0879 4.5418
107.7 29.3392 28.0917 1.2475
107.75 24.0696 28.0954 -4.0258
107.8 27.5552 28.0992 -0.544
107.85 32.8388 28.1031 4.7357
107.9 30.4384 28.1069 2.3315
107.95 38.5729 28.1108 10.4621
108 26.3048 28.1147 -1.8099
108.05 35.3381 28.1187 7.2194
108.1 29.1944 28.1226 1.0718
108.15 34.0859 28.1267 5.9592
108.2 30.0735 28.1307 1.9428
108.25 32.3093 28.1348 4.1745
108.3 31.4437 28.1389 3.3048
108.35 33.4525 28.1431 5.3094
108.4 30.5434 28.1472 2.3962
108.45 35.1114 28.1515 6.9599
108.5 23.6495 28.1557 -4.5062
108.55 15.8991 28.16 -12.2609
108.6 36.3611 28.1643 8.1968
108.65 30.3142 28.1687 2.1455
108.7 28.4262 28.173 0.2532
108.75 29.0667 28.1774 0.8893
108.8 32.8716 28.1819 4.6897
108.85 39.1036 28.1864 10.9172
108.9 33.1374 28.1908 4.9466
108.95 24.7225 28.1954 -3.4729
109 29.2366 28.1999 1.0367
109.05 27.3902 28.2046 -0.8144
109.1 21.12 28.2092 -7.0892
109.15 29.2461 28.2139 1.0322
109.2 31.9625 28.2185 3.744
109.25 31.4939 28.2233 3.2706
109.3 29.8975 28.228 1.6695
109.35 32.9261 28.2328 4.6933
109.4 33.98 28.2376 5.7424
109.45 35.502 28.2425 7.2595
109.5 24.1979 28.2474 -4.0495
109.55 23.9754 28.2523 -4.2769
109.6 24.1875 28.2572 -4.0697
109.65 28.0018 28.2622 -0.2604
109.7 22.4961 28.2672 -5.7711
109.75 35.8803 28.2722 7.6081
109.8 24.6051 28.2773 -3.6722
109.85 27.8376 28.2824 -0.4448
109.9 19.595 28.2875 -8.6925
109.95 27.8451 28.2927 -0.4476
110 24.9646 28.2979 -3.3333
110.05 30.1839 28.3031 1.8808
110.1 17.2614 28.3083 -11.0469
110.15 26.3731 28.3136 -1.9405
110.2 39.9385 28.3189 11.6196
110.25 29.8491 28.3243 1.5248
110.3 28.3705 28.3297 0.0408
110.35 30.5425 28.3351 2.2074
110.4 32.0876 28.3405 3.7471
110.45 31.5844 28.346 3.2384
110.5 24.7087 28.3515 -3.6428
110.55 30.5014 28.357 2.1444
110.6 37.1717 28.3626 8.8091
110.65 31.3611 28.3682 2.9929
110.7 35.7454 28.3738 7.3716
110.75 26.1635 28.3795 -2.216
110.8 25.1402 28.3851 -3.2449
110.85 24.6652 28.3909 -3.7257
110.9 22.6999 28.3966 -5.6967
110.95 29.0987 28.4024 0.6963
111 30.3296 28.4082 1.9214
111.05 37.4775 28.4141 9.0634
111.1 25.7631 28.42 -2.6569
111.15 26.7481 28.4259 -1.6778
111.2 38.1199 28.4318 9.6881
111.25 23.2748 28.4378 -5.163
111.3 26.5836 28.4438 -1.8602
111.35 29.637 28.4499 1.1871
111.4 27.0963 28.4559 -1.3596
111.45 28.7853 28.4621 0.3232
111.5 26.5884 28.4682 -1.8798
111.55 29.4294 28.4744 0.955
111.6 26.25 28.4806 -2.2306
111.65 28.699 28.4869 0.2121
111.7 40.0544 28.4932 11.5612
111.75 20.229 28.4995 -8.2705
111.8 35.7299 28.5059 7.224
111.85 38.3736 28.5123 9.8613
111.9 33.3061 28.5187 4.7874
111.95 34.9499 28.5253 6.4246
112 38.2692 28.5318 9.7374
112.05 24.3576 28.5383 -4.1807
112.1 31.2411 28.5449 2.6962
112.15 34.2165 28.5516 5.6649
112.2 42.0011 28.5583 13.4428
112.25 23.9651 28.5651 -4.6
112.3 21.3219 28.5718 -7.2499
112.35 41.4546 28.5787 12.8759
112.4 30.4882 28.5855 1.9027
112.45 29.1701 28.5925 0.5776
112.5 30.4228 28.5995 1.8233
112.55 38.8622 28.6065 10.2557
112.6 34.3217 28.6136 5.7081
112.65 26.0683 28.6208 -2.5525
112.7 43.6789 28.628 15.0509
112.75 31.4811 28.6353 2.8458
112.8 38.9568 28.6426 10.3142
112.85 39.3646 28.65 10.7146
112.9 30.3836 28.6575 1.7261
112.95 26.4027 28.6651 -2.2624
113 36.1399 28.6727 7.4672
113.05 27.8584 28.6804 -0.822
113.1 29.2025 28.6882 0.5143
113.15 24.9994 28.6961 -3.6967
113.2 45.1126 28.704 16.4086
113.25 29.979 28.7122 1.2668
113.3 19.1401 28.7203 -9.5802
113.35 29.9937 28.7287 1.265
113.4 23.5039 28.7371 -5.2332
113.45 29.1534 28.7457 0.4077
113.5 19.2395 28.7544 -9.5149
113.55 23.0727 28.7633 -5.6906
113.6 21.7634 28.7722 -7.0088
113.65 23.8104 28.7815 -4.9711
113.7 34.0647 28.7908 5.2739
113.75 29.1323 28.8006 0.3317
113.8 27.6261 28.8103 -1.1842
113.85 30.4876 28.8205 1.6671
113.9 30.478 28.8308 1.6472
113.95 38.566 28.8416 9.7244
114 25.4732 28.8524 -3.3792
114.05 36.8623 28.864 7.9983
114.1 32.1761 28.8756 3.3005
114.15 32.8029 28.8882 3.9147
114.2 35.355 28.9007 6.4543
114.25 28.1879 28.9145 -0.7266
114.3 31.2361 28.9283 2.3078
114.35 39.5752 28.9438 10.6314
114.4 31.8727 28.9592 2.9135
114.45 24.3242 28.9772 -4.653
114.5 20.2491 28.9952 -8.7461
114.55 27.0855 29.0179 -1.9324
114.6 40.2661 29.0406 11.2255
114.65 21.8724 29.0724 -7.2
114.7 27.0359 29.1043 -2.0684
114.75 33.93 29.1493 4.7807
114.8 32.7332 29.1943 3.5389
114.85 26.9592 29.2498 -2.2906
114.9 25.9 29.3053 -3.4053
114.95 28.2055 29.3695 -1.164
115 32.0601 29.4337 2.6264
115.05 29.7483 29.5148 0.2335
115.1 21.7983 29.596 -7.7977
115.15 24.4092 29.7111 -5.3019
115.2 36.1589 29.8262 6.3327
115.25 31.2491 30.0058 1.2433
115.3 26.3334 30.1853 -3.8519
115.35 29.4396 30.4989 -1.0593
115.4 32.2019 30.8124 1.3895
115.45 34.0388 31.4578 2.581
115.5 27.1977 32.1032 -4.9055
115.55 42.3649 33.7513 8.6136
115.6 39.7019 35.3994 4.3025
115.65 39.9087 38.9579 0.9508
115.7 47.0646 45.0512 2.0134
115.75 54.8006 55.2366 -0.436
115.8 72.907 69.6293 3.2777
115.85 83.8555 88.4611 -4.6056
115.9 112.478 108.333 4.145
115.95 111.25 123.788 -12.538
116 136.003 129.645 6.358
116.05 133.925 123.507 10.418
116.1 98.7704 107.814 -9.0436
116.15 90.7063 87.9831 2.7232
116.2 65.9601 69.3408 -3.3807
116.25 49.2764 55.1657 -5.8893
116.3 48.6615 45.154 3.5075
116.35 44.8207 39.1599 5.6608
116.4 36.8093 35.6458 1.1635
116.45 37.6104 34.0064 3.604
116.5 34.1258 32.367 1.7588
116.55 33.0832 31.7225 1.3607
116.6 44.112 31.0781 13.0339
116.65 36.6207 30.7691 5.8516
116.7 26.6359 30.4601 -3.8242
116.75 37.3534 30.2885 7.0649
116.8 24.2569 30.1169 -5.86
116.85 28.8975 30.0117 -1.1142
116.9 35.514 29.9065 5.6075
116.95 26.8517 29.8359 -2.9842
117 24.2402 29.7653 -5.5251
117.05 24.0468 29.7115 -5.6647
117.1 19.9815 29.6577 -9.6762
117.15 34.1769 29.6136 4.5633
117.2 40.3365 29.5694 10.7671
117.25 27.1555 29.538 -2.3825
117.3 22.7848 29.5065 -6.7217
117.35 37.3855 29.4892 7.8963
117.4 34.6595 29.4719 5.1876
117.45 24.4966 29.4639 -4.9673
117.5 31.5796 29.4559 2.1237
117.55 35.3213 29.4526 5.8687
117.6 26.4926 29.4492 -2.9566
117.65 28.2154 29.4485 -1.2331
117.7 35.9813 29.4478 6.5335
117.75 31.0389 29.4488 1.5901
117.8 27.7677 29.4498 -1.6821
117.85 25.8417 29.452 -3.6103
117.9 34.9989 29.4542 5.5447
117.95 30.1569 29.4575 0.6994
118 29.2351 29.4607 -0.2256
118.05 29.0323 29.4646 -0.4323
118.1 18.1484 29.4686 -11.3202
118.15 26.2928 29.4732 -3.1804
118.2 30.5887 29.4778 1.1109
118.25 28.6204 29.4828 -0.8624
118.3 28.006 29.4879 -1.4819
118.35 45.6841 29.4934 16.1907
118.4 34.2812 29.4989 4.7823
118.45 29.8247 29.5047 0.32
118.5 31.7343 29.5106 2.2237
118.55 38.5642 29.5167 9.0475
118.6 20.1228 29.5229 -9.4001
118.65 29.0365 29.5292 -0.4927
118.7 33.9755 29.5356 4.4399
118.75 30.0216 29.5422 0.4794
118.8 34.9817 29.5488 5.4329
118.85 20.6243 29.5556 -8.9313
118.9 24.615 29.5624 -4.9474
118.95 25.762 29.5693 -3.8073
119 30.7953 29.5763 1.219
119.05 28.1767 29.5833 -1.4066
119.1 31.2361 29.5904 1.6457
119.15 28.527 29.5976 -1.0706
119.2 32.0013 29.6048 2.3965
119.25 25.3324 29.6122 -4.2798
119.3 27.8493 29.6195 -1.7702
119.35 28.3265 29.6269 -1.3004
119.4 33.3737 29.6343 3.7394
119.45 28.3834 29.6418 -1.2584
119.5 28.5381 29.6493 -1.1112
119.55 27.9512 29.6569 -1.7057
119.6 22.9128 29.6645 -6.7517
119.65 28.5982 29.6721 -1.0739
119.7 31.2766 29.6798 1.5968
119.75 36.5511 29.6875 6.8636
119.8 35.1619 29.6952 5.4667
119.85 24.1954 29.703 -5.5076
119.9 25.7163 29.7108 -3.9945
119.95 22.0879 29.7186 -7.6307
120 30.5845 29.7264 0.8581
120.05 20.6163 29.7343 -9.118
120.1 34.4347 29.7422 4.6925
120.15 26.3247 29.7501 -3.4254
120.2 34.8148 29.758 5.0568
120.25 33.0931 29.766 3.3271
120.3 32.1533 29.774 2.3793
120.35 33.7268 29.782 3.9448
120.4 37.2423 29.79 7.4523
120.45 28.1836 29.798 -1.6144
120.5 23.7544 29.806 -6.0516
120.55 31.1353 29.8141 1.3212
120.6 24.4788 29.8222 -5.3434
120.65 37.2855 29.8303 7.4552
120.7 26.8302 29.8384 -3.0082
120.75 27.9817 29.8465 -1.8648
120.8 23.8726 29.8546 -5.982
120.85 25.7517 29.8627 -4.111
120.9 39.0915 29.8709 9.2206
120.95 37.2983 29.8791 7.4192
121 36.2042 29.8872 6.317
121.05 27.6948 29.8954 -2.2006
121.1 36.3129 29.9036 6.4093
121.15 34.5971 29.9118 4.6853
121.2 25.5326 29.92 -4.3874
121.25 37.1643 29.9283 7.236
121.3 29.3588 29.9365 -0.5777
121.35 24.8645 29.9447 -5.0802
121.4 27.7685 29.953 -2.1845
121.45 29.82 29.9612 -0.1412
121.5 29.8764 29.9695 -0.0931
121.55 20.8052 29.9778 -9.1726
121.6 30.6477 29.986 0.6617
121.65 13.408 29.9943 -16.5863
121.7 29.5042 30.0026 -0.4984
121.75 28.2543 30.0109 -1.7566
121.8 28.4857 30.0192 -1.5335
121.85 28.9153 30.0275 -1.1122
121.9 29.2715 30.0358 -0.7643
121.95 26.652 30.0441 -3.3921
122 37.2446 30.0525 7.1921
122.05 33.8112 30.0608 3.7504
122.1 25.745 30.0691 -4.3241
122.15 29.8104 30.0774 -0.267
122.2 25.9904 30.0858 -4.0954
122.25 23.5755 30.0941 -6.5186
122.3 31.0559 30.1025 0.9534
122.35 28.568 30.1108 -1.5428
122.4 36.7669 30.1192 6.6477
122.45 30.7356 30.1275 0.6081
122.5 27.7624 30.1359 -2.3735
122.55 29.1866 30.1442 -0.9576
122.6 25.108 30.1526 -5.0446
122.65 18.7963 30.1609 -11.3646
122.7 22.803 30.1693 -7.3663
122.75 30.4884 30.1777 0.3107
122.8 39.5634 30.186 9.3774
122.85 25.0482 30.1939 -5.1457
122.9 24.4196 30.2018 -5.7822
122.95 35.5477 30.2101 5.3376
123 22.2327 30.2185 -7.9858
123.05 28.0845 30.2269 -2.1424
123.1 26.1101 30.2352 -4.1251
123.15 24.7827 30.2436 -5.4609
123.2 38.8524 30.252 8.6004
123.25 33.8066 30.2603 3.5463
123.3 36.8706 30.2687 6.6019
123.35 42.45 30.2771 12.1729
123.4 32.5919 30.2854 2.3065
123.45 28.403 30.2938 -1.8908
123.5 29.6118 30.3022 -0.6904
123.55 18.0601 30.3105 -12.2504
123.6 29.3528 30.3189 -0.9661
123.65 30.6935 30.3273 0.3662
123.7 32.6095 30.3356 2.2739
123.75 26.1197 30.344 -4.2243
123.8 35.4842 30.3523 5.1319
123.85 25.8159 30.3607 -4.5448
123.9 39.4691 30.369 9.1001
123.95 39.8784 30.3774 9.501
124 42.7036 30.3857 12.3179
124.05 27.9124 30.3941 -2.4817
124.1 27.3377 30.4024 -3.0647
124.15 27.6754 30.4108 -2.7354
124.2 34.5481 30.4191 4.129
124.25 29.2779 30.4274 -1.1495
124.3 18.7385 30.4358 -11.6973
124.35 23.2404 30.4441 -7.2037
124.4 29.5191 30.4524 -0.9333
124.45 21.8672 30.4607 -8.5935
124.5 41.779 30.4691 11.3099
124.55 27.6105 30.4774 -2.8669
124.6 33.0395 30.4857 2.5538
124.65 28.1012 30.494 -2.3928
124.7 28.7689 30.5023 -1.7334
124.75 45.421 30.5106 14.9104
124.8 37.6046 30.5189 7.0857
124.85 32.6446 30.5271 2.1175
124.9 35.6473 30.5354 5.1119
124.95 27.2066 30.5437 -3.3371
125 30.286 30.552 -0.266
125.05 35.4102 30.5602 4.85
125.1 28.3597 30.5685 -2.2088
125.15 29.9926 30.5768 -0.5842
125.2 19.8284 30.585 -10.7566
125.25 24.3735 30.5932 -6.2197
125.3 39.9677 30.6015 9.3662
125.35 36.2842 30.6097 5.6745
125.4 24.2152 30.6179 -6.4027
125.45 30.1006 30.6262 -0.5256
125.5 28.387 30.6344 -2.2474
125.55 27.0411 30.6426 -3.6015
125.6 29.4434 30.6508 -1.2074
125.65 28.0901 30.659 -2.5689
125.7 26.3632 30.6672 -4.304
125.75 19.2167 30.6753 -11.4586
125.8 31.8859 30.6835 1.2024
125.85 27.3556 30.6917 -3.3361
125.9 28.1579 30.6998 -2.5419
125.95 36.4946 30.708 5.7866
126 26.8919 30.7161 -3.8242
126.05 30.3115 30.7243 -0.4128
126.1 23.088 30.7324 -7.6444
126.15 28.3689 30.7405 -2.3716
126.2 27.1638 30.7486 -3.5848
126.25 32.4528 30.7567 1.6961
126.3 33.6498 30.7648 2.885
126.35 43.4861 30.7729 12.7132
126.4 31.4632 30.781 0.6822
126.45 40.9449 30.7891 10.1558
126.5 27.6764 30.7971 -3.1207
126.55 22.9838 30.8052 -7.8214
126.6 27.4613 30.8132 -3.3519
126.65 29.3562 30.8212 -1.465
126.7 36.0495 30.8293 5.2202
126.75 28.9125 30.8373 -1.9248
126.8 16.0398 30.8453 -14.8055
126.85 35.8765 30.8533 5.0232
126.9 29.4331 30.8613 -1.4282
126.95 24.403 30.8693 -6.4663
127 34.1376 30.8772 3.2604
127.05 25.6167 30.8852 -5.2685
127.1 34.3029 30.8931 3.4098
127.15 36.7644 30.9011 5.8633
127.2 28.1333 30.909 -2.7757
127.25 21.0447 30.9169 -9.8722
127.3 24.8546 30.9248 -6.0702
127.35 31.5802 30.9327 0.6475
127.4 33.9457 30.9406 3.0051
127.45 23.5705 30.9485 -7.378
127.5 36.3034 30.9563 5.3471
127.55 17.9101 30.9642 -13.0541
127.6 33.7853 30.972 2.8133
127.65 27.6084 30.9798 -3.3714
127.7 24.3039 30.9877 -6.6838
127.75 33.141 30.9955 2.1455
127.8 37.4342 31.0033 6.4309
127.85 32.0057 31.011 0.9947
127.9 25.0741 31.0188 -5.9447
127.95 25.6432 31.0266 -5.3834
128 32.331 31.0343 1.2967
128.05 32.8212 31.042 1.7792
128.1 32.7388 31.0498 1.689
128.15 26.0449 31.0575 -5.0126
128.2 23.4091 31.0652 -7.6561
128.25 32.4518 31.0728 1.379
128.3 30.1929 31.0805 -0.8876
128.35 27.4722 31.0882 -3.616
128.4 28.2924 31.0958 -2.8034
128.45 23.3468 31.1034 -7.7566
128.5 22.1619 31.1111 -8.9492
128.55 30.7195 31.1187 -0.3992
128.6 26.4798 31.1263 -4.6465
128.65 26.0079 31.1338 -5.1259
128.7 30.4827 31.1414 -0.6587
128.75 25.3449 31.1489 -5.804
128.8 23.1399 31.1565 -8.0166
128.85 28.3942 31.164 -2.7698
128.9 32.5802 31.1715 1.4087
128.95 33.5426 31.179 2.3636
129 33.672 31.1865 2.4855
129.05 45.8752 31.1939 14.6813
129.1 34.5386 31.2014 3.3372
129.15 36.9918 31.2088 5.783
129.2 38.7519 31.2162 7.5357
129.25 29.0157 31.2236 -2.2079
129.3 28.8557 31.231 -2.3753
129.35 22.8247 31.2384 -8.4137
129.4 28.3111 31.2457 -2.9346
129.45 29.7146 31.2531 -1.5385
129.5 35.59 31.2604 4.3296
129.55 23.6041 31.2677 -7.6636
129.6 26.3904 31.275 -4.8846
129.65 26.9477 31.2823 -4.3346
129.7 29.6519 31.2896 -1.6377
129.75 31.1914 31.2968 -0.1054
129.8 25.8217 31.304 -5.4823
129.85 30.3402 31.3112 -0.971
129.9 34.8032 31.3184 3.4848
129.95 37.118 31.3305 5.7875
130 23.4052 31.3425 -7.9373
