40 37.7376 6.14309368315346
40.05 32.8109 5.72807995754249
40.1 35.5877 5.96554272468147
40.15 29.9465 5.47233953624956
40.2 38.4941 6.20436136923052
40.25 35.9873 5.99894157331108
40.3 36.8878 6.07353274462236
40.35 34.8807 5.90598848627391
40.4 31.6898 5.62936941406407
40.45 35.5314 5.96082209095356
40.5 27.9957 5.29109629472003
40.55 37.2041 6.099516374271
40.6 37.929 6.15865245000885
40.65 41.7227 6.45931110877933
40.7 43.4007 6.58792076455083
40.75 35.0683 5.92184937329547
40.8 30.4813 5.5209872305594
40.85 31.3025 5.59486371594519
40.9 33.0748 5.75106946576026
40.95 33.1474 5.75737787538737
41 44.2541 6.65237551555833
41.05 27.4895 5.24304300955085
41.1 31.4599 5.6089125505752
41.15 37.6539 6.13627737313104
41.2 45.3231 6.73224331111109
41.25 42.1368 6.49128646725747
41.3 35.8502 5.98750365344356
41.35 41.1699 6.41637748266107
41.4 32.5669 5.70674162723353
41.45 37.8588 6.15295051174638
41.5 45.4811 6.74396767489287
41.55 43.6928 6.61005294986356
41.6 47.4073 6.88529592682842
41.65 42.6426 6.53013016715594
41.7 28.5613 5.34427731316405
41.75 34.6055 5.88264396338925
41.8 43.2384 6.57559122817105
41.85 40.2252 6.34233395525654
41.9 34.6421 5.88575398738343
41.95 36.5026 6.04173816049653
42 34.1863 5.84690516427281
42.05 41.4847 6.4408617435868
42.1 40.4098 6.35687029913306
42.15 34.8477 5.90319405068138
42.2 36.5292 6.0439391128634
42.25 50.1853 7.08415838332261
42.3 25.2395 5.02389291287145
42.35 32.9072 5.73647975678464
42.4 44.385 6.66220684158035
42.45 45.113 6.71662117437034
42.5 40.3258 6.35025983720351
42.55 39.1332 6.2556534430865
42.6 39.3882 6.2760019120456
42.65 42.2193 6.497638032393
42.7 46.4961 6.81880488062241
42.75 40.9596 6.39996874992371
42.8 26.8247 5.17925670342763
42.85 42.589 6.52602482373458
42.9 28.0782 5.29888667551968
42.95 34.1091 5.84029964984674
43 39.5615 6.28979331933888
43.05 44.0683 6.63839589057477
43.1 39.0578 6.24962398868924
43.15 36.9177 6.07599374588223
43.2 36.4638 6.03852631028465
43.25 33.6822 5.80363679084072
43.3 37.422 6.11735236846791
43.35 45.4698 6.74312983710087
43.4 55.6737 7.46148108621874
43.45 35.4328 5.95254567391129
43.5 36.0097 6.00080827889044
43.55 36.9111 6.07545060057277
43.6 35.0404 5.91949322155199
43.65 35.3699 5.94725987325256
43.7 39.0572 6.24957598561694
43.75 31.6294 5.62400213371226
43.8 34.5958 5.88181944639582
43.85 37.903 6.15654123676598
43.9 29.7097 5.45066051043358
43.95 35.2241 5.93498946924087
44 40.4618 6.36095904718777
44.05 32.1102 5.66658627393954
44.1 49.8994 7.06395073595506
44.15 39.0702 6.25061596964651
44.2 56.2997 7.50331260177796
44.25 56.6419 7.52608131765795
44.3 77.8788 8.82489659996082
44.35 85.3703 9.23960496991078
44.4 139.0708 11.792828329116
44.45 363.9657 19.0778851029143
44.5 1207.0532 34.742671169615
44.55 1802.4318 42.4550562359774
44.6 1844.6155 42.9489871824703
44.65 1022.6456 31.9788304976902
44.7 251.6035 15.862014373969
44.75 88.874 9.42730078018093
44.8 70.0504 8.36961169947567
44.85 57.6528 7.59294409303796
44.9 44.2237 6.65009022495184
44.95 50.8111 7.12819051372787
45 32.7903 5.7262815159578
45.05 38.9166 6.23831708075183
45.1 45.0589 6.71259264368098
45.15 51.2416 7.15832382614813
45.2 35.0201 5.91777829932822
45.25 28.263 5.3162957028367
45.3 27.0194 5.19801885337097
45.35 32.2172 5.67601973217148
45.4 32.1268 5.668050811346
45.45 32.4014 5.69222276443921
45.5 37.9811 6.16288081987637
45.55 33.8329 5.81660553931586
45.6 30.8753 5.55655468793388
45.65 36.1251 6.0104159589832
45.7 35.369 5.94718420767341
45.75 26.4417 5.14214935605725
45.8 25.2048 5.0204382278841
45.85 39.2651 6.26618703838307
45.9 39.9357 6.31946991447859
45.95 37.7356 6.14293089656721
46 35.9118 5.99264549260174
46.05 40.8132 6.38852095558902
46.1 38.423 6.19862888064772
46.15 34.851 5.90347355376477
46.2 31.2257 5.58799606299074
46.25 25.683 5.06783977647281
46.3 19.7874 4.44830304723048
46.35 44.8191 6.69470686438174
46.4 34.625 5.88430114796991
46.45 50.4642 7.10381587599228
46.5 24.5853 4.95835658257855
46.55 32.3108 5.6842589666552
46.6 30.2986 5.50441640866677
46.65 42.3736 6.5095007489054
46.7 32.8152 5.72845528916828
46.75 40.5812 6.37033751068183
46.8 44.0965 6.64051955798641
46.85 33.7078 5.80584188554942
46.9 49.2605 7.01858247796519
46.95 27.4622 5.2404389129156
47 39.4329 6.27956208664267
47.05 32.8084 5.72786173017471
47.1 31.3788 5.60167831993234
47.15 31.0158 5.56918306396908
47.2 36.8521 6.07059305175367
47.25 35.4231 5.95173084068828
47.3 41.293 6.42596296285623
47.35 27.6444 5.25779421430698
47.4 27.6751 5.26071287944894
47.45 30.5445 5.52670788082743
47.5 38.0393 6.16760083014457
47.55 33.8807 5.82071301474312
47.6 21.6314 4.6509568907914
47.65 35.0161 5.9174403250054
47.7 29.838 5.46241704742507
47.75 38.1761 6.1786810890351
47.8 32.3377 5.68662465791439
47.85 44.7662 6.69075481541507
47.9 20.4439 4.52149311621725
47.95 24.0516 4.90424306086067
48 41.5349 6.44475755944318
48.05 34.606 5.88268646113321
48.1 42.5298 6.52148756036535
48.15 44.299 6.65574939432067
48.2 33.1329 5.75611848383961
48.25 35.8055 5.98376971482025
48.3 37.3676 6.11290438335167
48.35 35.0923 5.92387542070223
48.4 46.3954 6.8114168863754
48.45 34.1682 5.84535713194669
48.5 37.6426 6.1353565503563
48.55 22.5027 4.74370108670435
48.6 35.7727 5.98102833967538
48.65 36.7579 6.06282937249598
48.7 40.5003 6.36398460086132
48.75 30.0663 5.48327456908734
48.8 26.9404 5.1904142416574
48.85 32.1592 5.67090821650289
48.9 34.092 5.83883550033737
48.95 23.9242 4.89123706233914
49 37.7292 6.14240995049988
49.05 27.615 5.2549976213125
49.1 35.2827 5.93992424194114
49.15 35.6353 5.96953096985014
49.2 25.4112 5.0409522909863
49.25 31.4784 5.61056146922926
49.3 36.5529 6.04589943680839
49.35 31.1698 5.5829920293692
49.4 37.531 6.12625497347278
49.45 29.3331 5.41600406203688
49.5 33.46 5.78446194559183
49.55 32.4249 5.69428661027876
49.6 33.9736 5.82868767391083
49.65 28.5264 5.34101114022429
49.7 37.1278 6.09325856992792
49.75 29.7649 5.4557217670992
49.8 32.4365 5.69530508401438
49.85 31.9243 5.65015928978998
49.9 23.5287 4.85063913314524
49.95 37.6173 6.1332943839343
50 35.3171 5.94281919630742
50.05 36.0773 6.0064382124517
50.1 26.7853 5.17545167111046
50.15 35.9585 5.99654066941933
50.2 25.3886 5.03871015241004
50.25 36.0658 6.00548083004184
50.3 25.6119 5.06082009164523
50.35 32.4784 5.69898236529997
50.4 30.41 5.5145262715849
50.45 23.9724 4.8961617620336
50.5 36.9127 6.07558227662172
50.55 31.0935 5.57615458896182
50.6 32.8801 5.73411719447728
50.65 32.5259 5.70314825337725
50.7 27.277 5.22273874514129
50.75 36.5218 6.04332689832347
50.8 31.2371 5.5890160135752
50.85 40.7306 6.38205296123434
50.9 23.1427 4.81068602176446
50.95 26.7945 5.17634040611705
51 41.2221 6.4204439098866
51.05 27.6125 5.25475974712451
51.1 35.0118 5.91707698107774
51.15 27.1553 5.21107474519412
51.2 25.6464 5.06422748304221
51.25 41.7218 6.45924144153166
51.3 26.5883 5.156384392188
51.35 33.1464 5.75729102964233
51.4 40.8406 6.39066506711156
51.45 42.1806 6.49465934441522
51.5 21.7511 4.66380745743218
51.55 25.2994 5.02985089242216
51.6 37.2137 6.10030327114972
51.65 35.8849 5.99040065438031
51.7 32.3595 5.68854111350177
51.75 33.5686 5.79384155806836
51.8 29.126 5.3968509336464
51.85 43.0031 6.55767489282596
51.9 24.6882 4.96872216973338
51.95 36.5921 6.04914043480559
52 42.7987 6.5420715373649
52.05 36.6625 6.05495664724365
52.1 22.8346 4.77855626732594
52.15 37.7661 6.1454129234739
52.2 30.7516 5.54541251846966
52.25 28.778 5.36451302542924
52.3 31.726 5.63258377656294
52.35 20.6266 4.54165168193247
52.4 25.799 5.07927160132238
52.45 43.6777 6.60891065153706
52.5 43.4859 6.59438397426174
52.55 34.1817 5.8465117805406
52.6 37.5789 6.13016312996644
52.65 35.0811 5.92293001815824
52.7 38.4695 6.20237857599808
52.75 20.2841 4.50378729515505
52.8 35.0666 5.92170583531469
52.85 24.8053 4.98049194357345
52.9 31.8759 5.64587460009519
52.95 25.667 5.06626094866816
53 34.5043 5.8740360911387
53.05 34.9032 5.90789302543639
53.1 37.3951 6.11515330960721
53.15 35.1639 5.92991568236851
53.2 31.9651 5.65376865462321
53.25 31.2972 5.59439004718119
53.3 33.042 5.74821711489745
53.35 34.7414 5.89418357365971
53.4 24.6301 4.96287215229246
53.45 27.0601 5.2019323332777
53.5 30.7586 5.54604363488063
53.55 37.3433 6.1109164615465
53.6 28.0284 5.29418548976139
53.65 33.1463 5.75728234499577
53.7 29.2069 5.40434084787405
53.75 23.7404 4.87241213363566
53.8 34.0201 5.83267520096911
53.85 33.3771 5.77729175306216
53.9 36.1714 6.01426637255119
53.95 32.0224 5.6588338021186
54 18.4755 4.29831362280604
54.05 24.42 4.94165964024234
54.1 37.3169 6.10875601084214
54.15 25.0694 5.00693519031353
54.2 35.2842 5.9400505048358
54.25 30.2782 5.50256303916638
54.3 38.6532 6.2171697741014
54.35 25.1066 5.01064866060274
54.4 34.3209 5.85840421958062
54.45 27.7838 5.27103405414915
54.5 26.1409 5.11281722732194
54.55 22.7002 4.76447268855642
54.6 22.708 4.76529117683274
54.65 33.767 5.81093796215379
54.7 26.2835 5.12674360583792
54.75 31.5617 5.61798006404437
54.8 25.2919 5.02910528821976
54.85 23.485 4.84613247858537
54.9 23.3323 4.83035195405055
54.95 36.9836 6.08141430918828
55 25.9369 5.09282829084194
55.05 29.9921 5.47650435953446
55.1 26.761 5.17310351723218
55.15 30.3403 5.50820297374743
55.2 26.7542 5.17244622978335
55.25 33.2425 5.76563092818123
55.3 34.5835 5.88077375861374
55.35 28.4697 5.33570051633335
55.4 34.6721 5.88830196236572
55.45 30.2887 5.50351705730072
55.5 22.893 4.78466299753703
55.55 38.4619 6.20176587755455
55.6 40.8176 6.38886531396617
55.65 43.3616 6.58495254348883
55.7 26.9164 5.18810177232483
55.75 35.8687 5.98904833842573
55.8 32.2162 5.67593164158978
55.85 31.1503 5.58124538073717
55.9 31.4584 5.60877883322208
55.95 42.7973 6.54196453674277
56 37.4963 6.12342224577074
56.05 21.6725 4.65537323960174
56.1 24.5465 4.95444245097266
56.15 25.1287 5.01285347880825
56.2 28.7921 5.36582705647508
56.25 29.341 5.41673333292308
56.3 24.4514 4.944835689889
56.35 27.4585 5.24008587715888
56.4 23.1837 4.81494548255741
56.45 30.5186 5.52436421681265
56.5 25.8238 5.08171230984203
56.55 33.5211 5.78974092684638
56.6 29.8126 5.46009157432364
56.65 31.7204 5.63208664706075
56.7 34.2582 5.85305048671204
56.75 27.7858 5.27122376683062
56.8 30.8379 5.55318827341555
56.85 24.8712 4.9871033676875
56.9 33.855 5.81850496261711
56.95 38.7087 6.22163161879583
57 29.5111 5.43241198732202
57.05 27.8097 5.27349030529117
57.1 25.515 5.05123747214482
57.15 22.0998 4.70104243758765
57.2 25.24 5.02394267483219
57.25 22.3822 4.73098298453926
57.3 36.5325 6.04421210746281
57.35 25.3825 5.03810480240338
57.4 26.6448 5.16186012983692
57.45 35.8143 5.98450499206075
57.5 30.4792 5.52079704390589
57.55 29.927 5.47055755842126
57.6 27.3088 5.22578223809604
57.65 28.0774 5.29881118742686
57.7 34.0673 5.83671996929782
57.75 29.8284 5.46153824485373
57.8 32.2951 5.68287779210498
57.85 34.2697 5.8540327979949
57.9 35.3855 5.94857125703307
57.95 33.7489 5.80938034561346
58 21.6954 4.6578321137628
58.05 23.3122 4.82827091203466
58.1 27.9577 5.28750413711422
58.15 35.1412 5.92800134952751
58.2 22.1787 4.70942671670343
58.25 35.9756 5.99796632201282
58.3 32.386 5.69086988078273
58.35 31.4666 5.60950978250328
58.4 23.3722 4.83448032367492
58.45 34.1707 5.84557097296748
58.5 39.975 6.32257858788643
58.55 23.6656 4.8647302083466
58.6 28.7687 5.36364614791095
58.65 33.4637 5.78478175906404
58.7 41.9336 6.47561580083315
58.75 36.2552 6.02122911040595
58.8 31.1296 5.57939064773206
58.85 31.9199 5.64976990681921
58.9 22.1924 4.71088102163491
58.95 37.5065 6.12425505673955
59 29.085 5.39305108449753
59.05 25.7273 5.07220859192522
59.1 27.576 5.25128555688986
59.15 33.2922 5.7699393411023
59.2 31.8707 5.64541406807331
59.25 33.3717 5.77682438715251
59.3 32.7354 5.72148582100839
59.35 24.7674 4.97668564408081
59.4 36.5382 6.04468361454923
59.45 34.1382 5.84279042923841
59.5 21.3268 4.61809484527982
59.55 29.2399 5.40739308724639
59.6 34.7249 5.89278372248634
59.65 32.9071 5.73647104063116
59.7 44.8452 6.69665588185626
59.75 24.0033 4.89931627882912
59.8 30.1147 5.48768621551925
59.85 35.8813 5.99010016610741
59.9 39.5274 6.28708199405734
59.95 27.2971 5.2246626685366
60 36.7018 6.058201053118
60.05 31.1471 5.58095869900504
60.1 35.1135 5.92566451969735
60.15 37.4367 6.11855375068324
60.2 37.4205 6.11722976517966
60.25 23.0375 4.7997395762687
60.3 31.5996 5.62135215050614
60.35 27.4216 5.23656375880214
60.4 32.4049 5.69253019315664
60.45 29.7262 5.45217387837182
60.5 35.6716 5.97257063583178
60.55 24.1489 4.91415302977024
60.6 28.9037 5.37621614148836
60.65 40.4236 6.35795564627499
60.7 29.6895 5.44880720892197
60.75 30.2529 5.50026363004538
60.8 32.232 5.67732331297065
60.85 27.1597 5.21149690588031
60.9 38.3939 6.19628114275006
60.95 33.0472 5.74866941126379
61 23.7667 4.87511025516347
61.05 28.8676 5.3728577126144
61.1 27.743 5.26716242392429
61.15 35.4575 5.95462005504969
61.2 26.3765 5.13580568168228
61.25 35.4053 5.95023528946545
61.3 36.0536 6.00446500531063
61.35 29.9339 5.47118817077241
61.4 31.0116 5.56880597614964
61.45 39.1812 6.25948879701849
61.5 30.4928 5.52202861274731
61.55 36.459 6.03812884923798
61.6 33.3714 5.77679842127108
61.65 42.5978 6.52669901251774
61.7 31.0029 5.5680247844276
61.75 26.0805 5.10690708746498
61.8 24.906 4.99059114734918
61.85 25.7472 5.07416988284783
61.9 37.0463 6.08656717698901
61.95 30.5263 5.52506108563516
62 24.8251 4.98247930251597
62.05 30.4435 5.51756286778864
62.1 26.0845 5.10729869892099
62.15 28.7283 5.35987872997142
62.2 27.6729 5.26050377815661
62.25 22.0894 4.69993616977933
62.3 32.7696 5.72447377494211
62.35 32.4049 5.69253019315664
62.4 33.5987 5.79643856173772
62.45 22.1656 4.708035683807
62.5 38.1069 6.17307864845411
62.55 38.4849 6.20361991098746
62.6 37.8599 6.15303989910678
62.65 33.3187 5.77223526894045
62.7 23.0955 4.80577777263993
62.75 24.6775 4.96764531745172
62.8 21.8114 4.67026765828255
62.85 20.3481 4.51088683076842
62.9 26.0246 5.10143117173995
62.95 28.6771 5.35510037254205
63 22.6443 4.75860273609807
63.05 29.0287 5.38782887627289
63.1 24.2552 4.92495685260287
63.15 31.5427 5.61628881023759
63.2 30.6828 5.53920571923448
63.25 28.7101 5.35818066138125
63.3 19.5858 4.42558470713193
63.35 32.4102 5.69299569646772
63.4 26.6385 5.16124984863163
63.45 25.8704 5.08629531191416
63.5 34.5038 5.87399353081019
63.55 35.8603 5.98834701733291
63.6 28.6724 5.35466152058186
63.65 38.8254 6.23100312951294
63.7 36.7034 6.05833310408069
63.75 28.6733 5.35474555884778
63.8 23.307 4.82773238694938
63.85 34.7415 5.89419205659266
63.9 27.8415 5.27650452477774
63.95 40.0153 6.32576477589864
64 27.1203 5.20771543001343
64.05 26.5404 5.15173757095604
64.1 39.3394 6.27211288163726
64.15 25.3823 5.03808495363069
64.2 35.2172 5.93440814235084
64.25 47.7414 6.90951517836092
64.3 20.3104 4.50670611422578
64.35 40.9753 6.40119520089803
64.4 28.6528 5.35283102666243
64.45 36.0457 6.00380712548296
64.5 35.9015 5.99178604424424
64.55 30.5959 5.53135607242926
64.6 44.4175 6.6646455269579
64.65 48.5983 6.9712480948536
64.7 62.2925 7.89255978754675
64.75 99.1583 9.95782606797287
64.8 139.796 11.8235358501592
64.85 178.8026 13.3717089408946
64.9 152.6839 12.3565326851832
64.95 98.3337 9.91633500845953
65 60.4175 7.77286948301591
65.05 35.5056 5.95865756693569
65.1 28.8374 5.37004655473302
65.15 32.1666 5.67156063178381
65.2 31.7057 5.6307814732948
65.25 28.0828 5.29932071118554
65.3 27.713 5.26431382043282
65.35 20.0106 4.47332091404138
65.4 32.1795 5.67269777090231
65.45 26.8987 5.18639566558511
65.5 43.274 6.57829765212855
65.55 34.8862 5.9064540970027
65.6 33.4176 5.7807957929683
65.65 22.2665 4.71873923839832
65.7 35.4572 5.95459486447231
65.75 22.4754 4.74082271341167
65.8 23.4047 4.83784042729811
65.85 25.6879 5.0683231941146
65.9 39.4394 6.2800796173297
65.95 35.1183 5.92606952372312
66 33.3038 5.77094446343057
66.05 30.2555 5.50049997727479
66.1 36.2756 6.02292287847022
66.15 29.3837 5.42067338990277
66.2 35.297 5.94112783905548
66.25 35.5857 5.96537509298451
66.3 19.297 4.39283507543818
66.35 30.6236 5.53385941274261
66.4 36.6183 6.0513056442391
66.45 24.556 4.95540109375619
66.5 32.6001 5.70964972655941
66.55 28.7196 5.35906708299122
66.6 25.2223 5.02218080120579
66.65 30.7403 5.54439356467414
66.7 44.3816 6.66195166599098
66.75 30.3827 5.5120504351829
66.8 31.8877 5.64691951421304
66.85 18.5228 4.30381226356355
66.9 29.3574 5.4182469489679
66.95 41.0351 6.40586450059631
67 39.0134 6.24607076488892
67.05 26.5733 5.15492967944278
67.1 26.9688 5.19314933349697
67.15 29.9263 5.47049357919375
67.2 41.8321 6.46777396018135
67.25 25.0724 5.00723476581636
67.3 33.2888 5.76964470309914
67.35 43.2919 6.57965804582579
67.4 33.0451 5.74848675739972
67.45 36.8354 6.06921741248408
67.5 35.1003 5.92455061586953
67.55 34.6134 5.88331539185177
67.6 34.1279 5.84190893458636
67.65 34.4796 5.87193324212733
67.7 28.9904 5.38427339573317
67.75 36.7379 6.06117975315037
67.8 24.6282 4.96268072718768
67.85 21.7961 4.66862934917734
67.9 27.3482 5.22955064991248
67.95 28.59 5.34696175411794
68 26.2645 5.12489024272716
68.05 34.2796 5.85487830787285
68.1 27.0176 5.19784570759849
68.15 25.6028 5.05992094799909
68.2 34.775 5.89703315235721
68.25 31.0468 5.57196554188915
68.3 28.7079 5.35797536388513
68.35 30.4767 5.52057062268023
68.4 20.0254 4.47497486026458
68.45 27.7831 5.27096765309748
68.5 21.4094 4.627029284541
68.55 38.9829 6.2436287525765
68.6 36.2588 6.02152804527223
68.65 25.6091 5.06054344907738
68.7 31.6978 5.63007992838468
68.75 30.0157 5.47865859494822
68.8 23.915 4.89029651452752
68.85 24.274 4.92686512906534
68.9 36.0392 6.00326577789123
68.95 38.8078 6.229590676762
69 30.5248 5.52492533886206
69.05 27.4346 5.23780488372753
69.1 27.9387 5.28570714285232
69.15 27.9965 5.29117189287969
69.2 33.6584 5.80158599005479
69.25 37.0995 6.09093588867918
69.3 29.8467 5.46321334015065
69.35 28.0304 5.29437437286031
69.4 25.7722 5.07663274228105
69.45 28.7029 5.35750874940956
69.5 22.2671 4.71880281427398
69.55 33.3033 5.77090114280257
69.6 33.023 5.74656419088833
69.65 34.5919 5.88148790698408
69.7 34.6437 5.88588990722728
69.75 25.9851 5.09755823900032
69.8 19.4337 4.4083670446096
69.85 33.7779 5.81187577293252
69.9 21.6524 4.65321394307204
69.95 25.1543 5.0154062647008
70 28.2704 5.31699163061218
70.05 33.393 5.77866766651276
70.1 34.5659 5.87927716645507
70.15 32.7657 5.72413312214173
70.2 24.2446 4.92388058344229
70.25 29.8224 5.46098892143172
70.3 31.2279 5.58819291005599
70.35 47.1028 6.86314796576615
70.4 30.2251 5.49773589762186
70.45 23.9536 4.8942415142696
70.5 27.0437 5.20035575706124
70.55 25.1122 5.01120743933037
70.6 21.8618 4.67566038116542
70.65 29.6092 5.44143363462241
70.7 20.9991 4.58247749585309
70.75 27.6371 5.25709996100512
70.8 25.5704 5.05671830340588
70.85 22.359 4.72853042709889
70.9 24.1417 4.91342039723857
70.95 26.7585 5.17286187714306
71 26.897 5.18623177268429
71.05 23.2804 4.82497668388149
71.1 30.1477 5.4906921239494
71.15 27.2262 5.21787312992564
71.2 30.597 5.53145550465698
71.25 26.1281 5.11156531798235
71.3 30.4555 5.51865019728556
71.35 28.9658 5.38198848010659
71.4 16.739 4.09133230134146
71.45 27.1836 5.21378940886569
71.5 26.1806 5.11669815408335
71.55 26.7449 5.17154715728282
71.6 24.8858 4.98856692848758
71.65 30.1941 5.49491583193046
71.7 28.9919 5.38441268849259
71.75 29.0444 5.38928566695068
71.8 29.6369 5.44397832471805
71.85 32.3099 5.68417980011189
71.9 27.7469 5.26753262922974
71.95 28.2978 5.31956765160478
72 32.1336 5.66865063308721
72.05 36.394 6.03274398594868
72.1 37.9104 6.15714219423265
72.15 30.279 5.50263573208331
72.2 27.814 5.27389798915375
72.25 28.1876 5.30919956302266
72.3 30.8002 5.54979278892465
72.35 19.9729 4.46910505582494
72.4 24.4732 4.9470395187425
72.45 34.954 5.91219079529746
72.5 29.1536 5.39940737488847
72.55 41.6115 6.45069763669016
72.6 28.5298 5.34132942253144
72.65 35.0347 5.91901174183664
72.7 32.502 5.70105253440099
72.75 23.418 4.83921481234301
72.8 30.5546 5.52762154999779
72.85 23.6432 4.86242737734971
72.9 35.8646 5.98870603720036
72.95 29.178 5.40166640954437
73 22.5019 4.74361676360981
73.05 36.7798 6.06463519100696
73.1 27.9084 5.28284014522491
73.15 38.3437 6.19222900093335
73.2 35.9669 5.99724103234146
73.25 25.0144 5.0014397926997
73.3 23.5029 4.84797896035039
73.35 26.8407 5.18080109635566
73.4 35.3133 5.94249947412703
73.45 34.2184 5.84964956215328
73.5 32.024 5.65897517223746
73.55 23.0846 4.8046435871977
73.6 27.2353 5.2187450598779
73.65 36.7775 6.06444556410559
73.7 35.2821 5.93987373603177
73.75 31.9912 5.65607637855077
73.8 19.9048 4.46147957520821
73.85 32.8562 5.73203279823136
73.9 28.143 5.3049976437318
73.95 24.7635 4.97629380161582
74 21.8935 4.679049048685
74.05 33.3007 5.77067587029457
74.1 26.5886 5.15641348225683
74.15 25.2361 5.02355451846598
74.2 27.2156 5.21685729151182
74.25 33.6623 5.801922095306
74.3 26.0144 5.1004313543072
74.35 22.9719 4.79290100043804
74.4 20.0404 4.4766505336021
74.45 30.4112 5.51463507405522
74.5 40.1764 6.33848562355394
74.55 31.808 5.63985815424466
74.6 31.5555 5.61742823719182
74.65 28.2875 5.31859943970215
74.7 34.6524 5.88662891645125
74.75 39.9004 6.31667634124149
74.8 30.5354 5.52588454457746
74.85 16.726 4.08974326822601
74.9 33.6182 5.79812038509033
74.95 33.1505 5.75764708887233
75 24.8758 4.98756453592332
75.05 19.1531 4.37642548205725
75.1 21.9666 4.68685395548016
75.15 30.0999 5.4863375761978
75.2 32.4756 5.69873670211214
75.25 37.6797 6.13837926492002
75.3 35.3967 5.94951258507787
75.35 18.5502 4.30699431158203
75.4 34.4307 5.86776788906991
75.45 17.0197 4.12549390982462
75.5 27.6651 5.25976235204596
75.55 41.9044 6.47336079637154
75.6 26.6126 5.15874015627847
75.65 28.7621 5.36303085950473
75.7 31.2338 5.58872078386459
75.75 31.7793 5.63731318980949
75.8 36.47 6.0390396587537
75.85 37.1754 6.09716327483527
75.9 29.2334 5.4067920248517
75.95 32.2885 5.68229707072765
76 25.5939 5.05904141117663
76.05 28.1639 5.3069671187977
76.1 30.9453 5.56284998898946
76.15 29.7972 5.45868115940105
76.2 35.1904 5.93214969467224
76.25 25.4269 5.04250929597557
76.3 34.0464 5.83492930548434
76.35 25.1737 5.01733993267349
76.4 30.657 5.53687637571944
76.45 31.0504 5.57228857831322
76.5 26.4296 5.140972670614
76.55 31.1942 5.58517681009294
76.6 28.3525 5.32470656468504
76.65 30.5583 5.52795622269207
76.7 34.2794 5.85486122807364
76.75 34.0708 5.83701978752856
76.8 35.4531 5.95425058256705
76.85 24.0592 4.90501783890742
76.9 18.6781 4.32181674761899
76.95 30.8441 5.55374648323094
77 29.0393 5.38881248513993
77.05 26.2238 5.12091788647309
77.1 29.0038 5.38551761671986
77.15 31.4355 5.60673701897993
77.2 28.9966 5.38484911580631
77.25 30.9643 5.56455748465231
77.3 31.3986 5.60344536869951
77.35 35.148 5.92857487091122
77.4 33.2193 5.7636186549771
77.45 26.3137 5.12968809968014
77.5 27.7568 5.26847226432863
77.55 27.1191 5.20760021507028
77.6 35.5902 5.96575225767883
77.65 23.6808 4.86629222303799
77.7 25.2737 5.02729549559204
77.75 22.319 4.72429888978248
77.8 24.4156 4.94121442562454
77.85 31.2513 5.59028621807506
77.9 25.8385 5.08315846693766
77.95 26.444 5.14237299308403
78 25.3876 5.03861091968808
78.05 30.1499 5.49089245933664
78.1 26.8098 5.17781807328145
78.15 26.5513 5.15279535786159
78.2 23.2634 4.82321469561536
78.25 30.1066 5.48694814992816
78.3 33.9448 5.82621661114655
78.35 37.9343 6.15908272391271
78.4 31.0733 5.57434301061569
78.45 26.1433 5.11305192619829
78.5 29.5464 5.43566003351939
78.55 33.9343 5.82531544210268
78.6 30.7746 5.54748591706189
78.65 28.4417 5.33307603546021
78.7 29.3213 5.41491458843074
78.75 25.2871 5.02862804351247
78.8 22.7669 4.77146727956925
78.85 29.1394 5.3980922556029
78.9 24.1758 4.91688926049794
78.95 22.4271 4.73572592112339
79 37.689 6.1391367471331
79.05 32.2242 5.67663632796747
79.1 29.8829 5.46652540467892
79.15 26.0062 5.09962743737226
79.2 25.7886 5.07824772928616
79.25 27.4478 5.23906480204244
79.3 22.8436 4.7794978815771
79.35 28.4901 5.33761182552647
79.4 31.6721 5.62779708234048
79.45 30.8592 5.5551057595693
79.5 27.885 5.28062496301337
79.55 24.4419 4.94387499841976
79.6 29.6942 5.44923847890694
79.65 32.9604 5.74111487430795
79.7 27.7984 5.27241879975406
79.75 29.6453 5.44474976468157
79.8 29.2785 5.41096109762397
79.85 24.2409 4.92350484919026
79.9 24.415 4.94115371143218
79.95 31.6139 5.622623942609
80 35.1469 5.92848209915489
80.05 22.0593 4.69673290703229
80.1 17.9208 4.23329658776703
80.15 24.9229 4.99228404640601
80.2 30.5035 5.52299737461462
80.25 36.2585 6.0215031346002
80.3 36.4844 6.04023178363215
80.35 31.3539 5.59945533065494
80.4 27.7252 5.26547243844273
80.45 28.0569 5.2968764380529
80.5 36.3997 6.03321638929021
80.55 37.7006 6.14008143268475
80.6 30.6094 5.53257625342842
80.65 27.131 5.20874265058277
80.7 34.9642 5.91305335676924
80.75 26.1676 5.11542764585719
80.8 31.7509 5.63479369631223
80.85 37.024 6.08473499833805
80.9 28.8018 5.3667308484775
80.95 35.8614 5.98843886167338
81 32.0514 5.66139558766211
81.05 25.5614 5.05582831987005
81.1 29.3376 5.41641948153944
81.15 35.2838 5.94001683499298
81.2 44.8283 6.69539393911964
81.25 18.7945 4.3352623911362
81.3 26.6516 5.16251876509907
81.35 31.0767 5.57464797094848
81.4 23.9956 4.89853039186244
81.45 28.0002 5.29152152031909
81.5 34.0523 5.8354348595456
81.55 30.449 5.51806125373758
81.6 26.389 5.13702248389084
81.65 35.4042 5.95014285542793
81.7 45.2279 6.72516914285433
81.75 27.7674 5.26947815253086
81.8 35.9837 5.99864151287606
81.85 36.5271 6.0437653826071
81.9 50.9373 7.13703720040746
81.95 63.1771 7.94840235519063
82 131.9472 11.486827238189
82.05 187.0092 13.6751307123552
82.1 321.8337 17.9397240781457
82.15 327.0312 18.0840039814196
82.2 215.738 14.6880223311377
82.25 121.0694 11.0031540932589
82.3 62.1586 7.88407255167023
82.35 41.2631 6.42363604199366
82.4 39.1297 6.25537368987657
82.45 43.42 6.58938540381423
82.5 51.123 7.15003496494947
82.55 35.1307 5.92711565603372
82.6 32.0096 5.65770271399974
82.65 31.9104 5.64892910205111
82.7 41.8185 6.46672250834996
82.75 33.3131 5.77175016784337
82.8 29.4711 5.42872913304762
82.85 39.9086 6.31732538341979
82.9 32.4204 5.69389146366525
82.95 21.6246 4.65022580096924
83 24.7907 4.97902600917087
83.05 27.9458 5.28637872271747
83.1 34.242 5.85166642931738
83.15 22.771 4.77189689746122
83.2 27.7898 5.27160317171162
83.25 26.5384 5.15154345803275
83.3 27.0614 5.20205728534394
83.35 33.7155 5.8065049728731
83.4 29.3849 5.42078407612773
83.45 28.7194 5.35904842299452
83.5 24.7508 4.97501758790861
83.55 29.6907 5.44891732365247
83.6 32.0864 5.66448585486803
83.65 29.6402 5.44428140345445
83.7 26.8821 5.18479507791774
83.75 26.2376 5.12226512394663
83.8 26.2971 5.1280698123173
83.85 33.0337 5.74749510656599
83.9 34.1938 5.84754649404346
83.95 33.6791 5.80336971078011
84 31.4829 5.61096248428021
84.05 31.244 5.5896332616729
84.1 32.0128 5.65798550722782
84.15 39.224 6.26290667342249
84.2 33.5611 5.79319428294961
84.25 25.4105 5.04088285918251
84.3 24.7032 4.97023138294386
84.35 22.6371 4.75784615135883
84.4 18.0901 4.25324581937137
84.45 19.3703 4.40117029890914
84.5 30.3613 5.51010889184597
84.55 28.7753 5.36426136574272
84.6 32.6681 5.71560145566501
84.65 41.3601 6.43118185095088
84.7 28.7806 5.36475535322907
84.75 30.8705 5.55612274882404
84.8 37.8951 6.15589960931788
84.85 26.0487 5.10379270738928
84.9 39.286 6.26785449735394
84.95 27.3358 5.22836494518124
85 28.5395 5.3422373590098
85.05 27.6767 5.26086494789593
85.1 28.0358 5.2948843235712
85.15 29.414 5.42346752548589
85.2 24.4936 4.94910092845155
85.25 24.211 4.92046745746784
85.3 29.8423 5.46281063190003
85.35 30.6829 5.53921474579204
85.4 25.0123 5.00122984874721
85.45 27.8798 5.28013257409319
85.5 28.0352 5.29482766480648
85.55 37.5911 6.13115812877143
85.6 26.3702 5.13519230409144
85.65 31.9803 5.65511273097186
85.7 30.3483 5.50892911553598
85.75 26.6331 5.16072669301524
85.8 23.846 4.88323663157951
85.85 32.6157 5.71101567148962
85.9 28.5491 5.34313578341408
85.95 22.7839 4.77324836982112
86 29.1007 5.3945064649141
86.05 31.5723 5.61892338442161
86.1 34.1119 5.84053935865516
86.15 21.213 4.60575726672607
86.2 40.1076 6.33305613428462
86.25 26.2214 5.12068354812129
86.3 27.3927 5.23380358821383
86.35 34.0584 5.83595750498579
86.4 29.9777 5.47518949443761
86.45 24.9745 4.99744934941816
86.5 21.7882 4.6677831997641
86.55 23.407 4.8380781308284
86.6 31.3557 5.59961605826685
86.65 25.3915 5.03899791625279
86.7 22.3505 4.72763154232645
86.75 33.9235 5.82438837990737
86.8 34.9803 5.91441459486905
86.85 30.6789 5.53885367201554
86.9 29.9799 5.4753903970402
86.95 24.5132 4.95108069011201
87 34.8802 5.90594615620563
87.05 30.5989 5.53162724702234
87.1 22.4605 4.73925099567432
87.15 22.6691 4.7612078299524
87.2 19.4593 4.41126965849969
87.25 23.778 4.87626906558693
87.3 49.541 7.03853677975756
87.35 19.5671 4.423471487418
87.4 36.2286 6.01901985376357
87.45 32.2411 5.67812469042377
87.5 21.1344 4.59721654917408
87.55 27.7717 5.26988614677775
87.6 38.9235 6.23887009000829
87.65 34.5467 5.87764408585617
87.7 24.4204 4.94170011230953
87.75 28.735 5.36050370767524
87.8 42.7309 6.53688763862436
87.85 32.6047 5.71005253916284
87.9 25.4391 5.04371886607491
87.95 25.0247 5.0024693902112
88 28.9303 5.37868943145075
88.05 25.4222 5.04204323662541
88.1 22.6076 4.75474499842
88.15 27.4964 5.24370098308437
88.2 19.2328 4.38552163373982
88.25 27.8255 5.27498815164546
88.3 39.131 6.25547759967215
88.35 30.9421 5.56256235920102
88.4 23.2413 4.82092314811178
88.45 28.3917 5.32838624726099
88.5 28.2342 5.31358635951275
88.55 26.8647 5.1831168229165
88.6 28.4936 5.3379396774411
88.65 24.4889 4.94862607195169
88.7 34.3753 5.86304528380943
88.75 29.5769 5.43846485692424
88.8 28.4172 5.3307785547704
88.85 26.3466 5.1328939205871
88.9 25.3073 5.03063614267619
88.95 27.4965 5.24371051832574
89 41.5162 6.44330660453156
89.05 33.0265 5.74686871261211
89.1 29.5572 5.43665338236677
89.15 28.7183 5.35894579185123
89.2 26.2359 5.12209917904759
89.25 33.9159 5.82373591434227
89.3 36.8975 6.07433123891017
89.35 25.8946 5.08867369753652
89.4 14.027 3.74526367563086
89.45 28.4077 5.32988742845475
89.5 29.2799 5.4110904631137
89.55 31.3816 5.6019282394547
89.6 33.4733 5.78561146293112
89.65 24.0369 4.90274412956662
89.7 26.7872 5.17563522671372
89.75 27.4091 5.23537009198013
89.8 32.1378 5.66902107951629
89.85 28.5099 5.33946626546137
89.9 25.4387 5.04367921263833
89.95 31.075 5.57449549286749
90 24.9685 4.99684900712439
90.05 24.473 4.9470193045914
90.1 27.4742 5.24158373013348
90.15 25.2741 5.02733527825627
90.2 24.7715 4.97709754776818
90.25 28.0145 5.29287256600799
90.3 32.6709 5.71584639401725
90.35 35.0353 5.9190624257563
90.4 18.9217 4.34990804500509
90.45 27.0552 5.20146133312553
90.5 29.1496 5.39903695116083
90.55 37.9074 6.15689856989702
90.6 30.3397 5.50814850925427
90.65 28.0958 5.30054714156944
90.7 27.1448 5.21006717806978
90.75 34.8198 5.90083045002989
90.8 30.4384 5.51710068786133
90.85 39.4472 6.28070059786327
90.9 28.6121 5.34902794907636
90.95 28.1046 5.30137717956382
91 29.1162 5.39594292038009
91.05 30.9675 5.56484501131882
91.1 32.9239 5.7379351686822
91.15 31.2827 5.59309395594245
91.2 35.3804 5.94814256722214
91.25 30.2316 5.49832701828474
91.3 36.7595 6.06296132265414
91.35 18.3368 4.28214899320423
91.4 25.2358 5.0235246590417
91.45 36.8061 6.06680311201872
91.5 35.7498 5.97911364668711
91.55 26.359 5.13410167410035
91.6 25.2117 5.02112537186635
91.65 34.4666 5.87082617695329
91.7 37.7172 6.14143305752004
91.75 21.3617 4.62187191514434
91.8 36.6418 6.05324706252768
91.85 25.8955 5.08876212845521
91.9 37.4415 6.11894598766814
91.95 19.6014 4.42734683529538
92 23.5583 4.85368931844633
92.05 18.2472 4.27167414487575
92.1 39.4073 6.27752339700937
92.15 19.0753 4.36752790489082
92.2 19.6377 4.43144445976704
92.25 32.1122 5.66676274428355
92.3 26.8295 5.17972006965627
92.35 33.0111 5.74552869629941
92.4 28.1668 5.30724033750121
92.45 22.4341 4.73646492650373
92.5 33.7026 5.80539404347371
92.55 24.1355 4.91278943167728
92.6 33.0389 5.74794745974596
92.65 24.1667 4.91596379156722
92.7 24.3385 4.9334065309885
92.75 30.835 5.5529271560142
92.8 25.2868 5.02859821421437
92.85 29.1244 5.39670269701787
92.9 31.2018 5.58585714103037
92.95 22.6405 4.758203442477
93 36.4589 6.0381205685213
93.05 34.2499 5.852341411777
93.1 29.1906 5.40283259041033
93.15 35.6837 5.97358351410608
93.2 26.6075 5.1582458258598
93.25 26.1509 5.11379506824433
93.3 24.1886 4.91819072423996
93.35 32.7878 5.72606322004918
93.4 39.7836 6.30742419692857
93.45 29.3814 5.4204612349873
93.5 24.6123 4.96107851177544
93.55 33.8032 5.81405194335241
93.6 23.0171 4.7976139903081
93.65 21.2983 4.61500812566999
93.7 28.9659 5.38199777034513
93.75 28.3609 5.32549528213104
93.8 32.8217 5.72902260424935
93.85 31.2419 5.58944541077198
93.9 21.4341 4.62969761431565
93.95 25.5093 5.05067322245263
94 27.2661 5.22169512706362
94.05 25.644 5.06399052131814
94.1 24.5227 4.95203998368349
94.15 24.2064 4.92
94.2 25.5066 5.05040592427975
94.25 27.6968 5.26277493343578
94.3 28.1609 5.30668446395676
94.35 25.5128 5.05101969903108
94.4 35.67 5.97243668865564
94.45 36.0063 6.00052497703326
94.5 35.3023 5.94157386556794
94.55 27.0782 5.20367178057956
94.6 30.9756 5.56557274680693
94.65 31.701 5.63036410900752
94.7 27.7685 5.26958252615897
94.75 32.2516 5.67904921619808
94.8 35.6639 5.97192598748511
94.85 23.0737 4.80350913395613
94.9 18.0808 4.2521523961401
94.95 27.779 5.27057871585275
95 21.0026 4.58285936943302
95.05 31.9888 5.65586421336298
95.1 27.6618 5.25944864030442
95.15 26.853 5.18198803549371
95.2 24.8979 4.98977955424886
95.25 16.161 4.020074626173
95.3 33.9919 5.83025728420282
95.35 36.8922 6.07389496122546
95.4 31.4088 5.60435544911277
95.45 28.5101 5.3394849938922
95.5 32.7952 5.72670935180056
95.55 18.5245 4.30400975835325
95.6 35.6347 5.96948071443405
95.65 27.9967 5.29119079225083
95.7 19.9529 4.46686691093433
95.75 27.81 5.27351874937408
95.8 24.2827 4.92774796433422
95.85 29.1773 5.40160161433625
95.9 32.1551 5.67054671085602
95.95 24.9118 4.99117220700709
96 32.0877 5.66460060374957
96.05 26.0306 5.10201920811751
96.1 29.6347 5.44377626285284
96.15 23.3109 4.82813628639458
96.2 28.5542 5.34361300994
96.25 28.7983 5.3664047555137
96.3 33.5235 5.78994818629666
96.35 30.1749 5.49316848458155
96.4 28.2248 5.31270176087459
96.45 28.2862 5.31847722567278
96.5 29.6609 5.44618214899208
96.55 30.3268 5.50697739236326
96.6 23.2457 4.82137947064945
96.65 30.7119 5.54183182711276
96.7 40.6046 6.37217388337763
96.75 32.7472 5.72251692876482
96.8 30.7846 5.54838715303826
96.85 30.5502 5.52722353447009
96.9 33.5162 5.78931774909617
96.95 20.4403 4.52109500010783
97 30.1361 5.4896356891874
97.05 22.7908 4.77397109333519
97.1 26.8458 5.18129327484944
97.15 32.2927 5.6826666275614
97.2 37.1324 6.09363602457515
97.25 30.2514 5.50012727125473
97.3 27.2833 5.22334184215431
97.35 33.3351 5.77365568769043
97.4 31.1633 5.58240987388063
97.45 30.5316 5.52554069752454
97.5 19.8738 4.45800403768323
97.55 34.7695 5.89656679772221
97.6 21.5433 4.64147605832455
97.65 27.5536 5.24915231251676
97.7 25.4991 5.04966335511586
97.75 31.0097 5.56863538041413
97.8 21.6613 4.65417017308134
97.85 24.6617 4.96605477215062
97.9 33.8368 5.81694077673136
97.95 29.5135 5.43263287918483
98 28.9524 5.38074344305692
98.05 19.7663 4.44593072370679
98.1 29.2118 5.40479416814369
98.15 31.4923 5.61180006771446
98.2 23.7192 4.87023613390562
98.25 27.7167 5.26466523152232
98.3 31.827 5.64154234230321
98.35 41.5629 6.44692950170855
98.4 31.4551 5.60848464382314
98.45 38.947 6.24075315967552
98.5 57.2409 7.56577160638623
98.55 85.4938 9.24628574077181
98.6 115.3667 10.7408891624483
98.65 156.8556 12.5242005732901
98.7 147.7289 12.1543778121301
98.75 122.7598 11.0797021620619
98.8 65.673 8.10388795579011
98.85 55.0961 7.42267472007227
98.9 35.4974 5.95796945275821
98.95 28.0958 5.30054714156944
99 30.908 5.55949638006897
99.05 35.398 5.94962183672206
99.1 33.1299 5.75585788566744
99.15 30.9651 5.56462936771174
99.2 23.8135 4.87990778601399
99.25 26.7496 5.17200154679018
99.3 32.7623 5.72383612623562
99.35 37.59 6.13106842238773
99.4 40.1227 6.33424817953954
99.45 29.6705 5.44706342904138
99.5 32.74 5.72188780036799
99.55 32.5025 5.70109638578405
99.6 31.4304 5.60628219054303
99.65 36.0374 6.00311585761927
99.7 34.2956 5.85624453041367
99.75 32.4053 5.69256532681005
99.8 23.238 4.82058087786109
99.85 34.1645 5.84504063287844
99.9 23.6311 4.86118298359566
99.95 24.2543 4.92486548039639
100 37.6139 6.13301720199772
100.05 26.7318 5.17028045660968
100.1 35.1886 5.93199797707315
100.15 45.4523 6.74183209520973
100.2 31.3389 5.59811575443023
100.25 27.9837 5.28996219268153
100.3 21.9888 4.68922168381918
100.35 38.0708 6.17015396890548
100.4 37.9644 6.16152578506331
100.45 32.6313 5.712381289795
100.5 16.2143 4.02669839943346
100.55 27.6465 5.25799391403223
100.6 24.2307 4.92246889274071
100.65 30.5698 5.52899629227584
100.7 24.7999 4.97994979894376
100.75 33.0479 5.74873029459549
100.8 31.9834 5.65538681258851
100.85 26.046 5.10352819135939
100.9 26.7544 5.17246556295931
100.95 36.5208 6.043244161872
101 24.1909 4.9184245445061
101.05 22.5301 4.74658824841591
101.1 25.7035 5.06986193105887
101.15 34.35 5.86088730483704
101.2 34.261 5.85328967333755
101.25 23.1959 4.8162122046272
101.3 34.0567 5.83581185440381
101.35 41.3161 6.42776010753357
101.4 28.0962 5.30058487338897
101.45 34.7219 5.89252916836226
101.5 21.529 4.63993534437712
101.55 26.0095 5.09995098015657
101.6 29.7902 5.45803994122432
101.65 31.926 5.65030972602387
101.7 32.6851 5.71708841981651
101.75 28.969 5.38228575978645
101.8 31.0797 5.57491703974149
101.85 32.7413 5.72200139811238
101.9 31.1121 5.57782215564462
101.95 36.8257 6.06841824530907
102 34.5348 5.87663168830581
102.05 24.5808 4.95790278242726
102.1 22.9499 4.79060538971851
102.15 26.5279 5.15052424516185
102.2 26.8283 5.1796042319853
102.25 25.3264 5.03253415288958
102.3 23.6674 4.86491520994971
102.35 32.6249 5.71182107562903
102.4 25.3429 5.03417321910957
102.45 28.172 5.30773021168183
102.5 30.5665 5.52869785754295
102.55 34.6746 5.88851424384793
102.6 22.2231 4.7141383093838
102.65 25.765 5.07592356128419
102.7 22.7684 4.7716244613339
102.75 32.722 5.72031467665897
102.8 24.3412 4.93368016798819
102.85 29.661 5.44619132972759
102.9 27.4327 5.237623506897
102.95 24.9329 4.99328549153761
103 33.1071 5.75387695384599
103.05 32.239 5.6779397672043
103.1 24.5397 4.95375615063963
103.15 15.371 3.92058669079004
103.2 26.5685 5.15446408465516
103.25 31.506 5.61302057719371
103.3 29.6205 5.44247186487905
103.35 29.5575 5.43668097279949
103.4 20.4643 4.52374844570297
103.45 22.6017 4.75412452508346
103.5 22.8468 4.77983263305317
103.55 25.5034 5.05008910812473
103.6 26.4417 5.14214935605725
103.65 21.9004 4.67978631990821
103.7 32.3386 5.686703790422
103.75 26.5944 5.1569758580005
103.8 40.152 6.33656058126173
103.85 36.2853 6.02372808151231
103.9 37.978 6.16262930898817
103.95 27.1818 5.2136167868381
104 24.5745 4.95726739242498
104.05 26.0252 5.10148997842787
104.1 39.6331 6.29548250732221
104.15 31.3546 5.59951783638556
104.2 26.2789 5.12629495834955
104.25 41.6629 6.45468047233943
104.3 30.573 5.52928566814919
104.35 31.7926 5.63849270638883
104.4 40.0529 6.32873605074505
104.45 33.9471 5.82641399147022
104.5 33.8931 5.82177807890339
104.55 28.278 5.31770627244492
104.6 37.9661 6.16166373636212
104.65 31.2089 5.58649263849868
104.7 30.4465 5.51783472025033
104.75 29.1021 5.39463622499238
104.8 28.249 5.31497883344798
104.85 28.717 5.35882449796595
104.9 30.1052 5.48682057297302
104.95 21.5808 4.64551396510655
105 36.9656 6.07993421017037
105.05 29.7299 5.45251318201066
105.1 19.9581 4.4674489364737
105.15 36.5201 6.04318624568199
105.2 35.9961 5.99967499119744
105.25 25.1138 5.01136707895161
105.3 26.596 5.15713098534447
105.35 25.7844 5.07783418398041
105.4 30.3284 5.50712266070041
105.45 23.6849 4.86671347009458
105.5 25.5499 5.05469089064801
105.55 29.0529 5.3900742109919
105.6 24.4234 4.94200364224876
105.65 30.4006 5.51367391128638
105.7 23.9307 4.89190147079845
105.75 22.9882 4.79460113043828
105.8 29.5386 5.43494250199577
105.85 22.6489 4.75908604671107
105.9 22.0873 4.69971275717995
105.95 23.2422 4.8210164903265
106 30.8555 5.55477272262331
106.05 30.4754 5.5204528799728
106.1 30.0409 5.48095794546902
106.15 23.2125 4.81793524240416
106.2 26.2372 5.1222260785717
106.25 38.3688 6.19425540319416
106.3 32.7577 5.72343428371463
106.35 27.4636 5.24057248781085
106.4 36.0521 6.0043400969632
106.45 35.7979 5.98313462994106
106.5 35.9536 5.99613208660383
106.55 31.4162 5.60501561103981
106.6 30.7948 5.54930626294855
106.65 24.8639 4.98637142619761
106.7 42.3778 6.5098233462975
106.75 25.6886 5.06839225001381
106.8 17.8431 4.22410937358397
106.85 35.0483 5.92016047079807
106.9 28.7602 5.36285371793787
106.95 25.0339 5.0033888515685
107 22.3603 4.72866788852844
107.05 33.4972 5.78767656318146
107.1 27.2077 5.21610007572708
107.15 23.1339 4.80977130433454
107.2 28.838 5.3701024198799
107.25 22.6284 4.75693178424917
107.3 32.0148 5.65816224581798
107.35 29.6601 5.44610870255084
107.4 32.4046 5.69250384277429
107.45 31.1249 5.57896943888385
107.5 25.3883 5.03868038279866
107.55 43.8498 6.62191815110999
107.6 27.7553 5.26832990614673
107.65 32.6297 5.71224124140429
107.7 29.3392 5.41656717857353
107.75 24.0696 4.90607786322231
107.8 27.5552 5.24930471586476
107.85 32.8388 5.73051481107937
107.9 30.4384 5.51710068786133
107.95 38.5729 6.21070849420579
108 26.3048 5.12882052717776
108.05 35.3381 5.94458577194408
108.1 29.1944 5.40318424634955
108.15 34.0859 5.83831311253516
108.2 30.0735 5.48393107177689
108.25 32.3093 5.68412702180379
108.3 31.4437 5.60746823441738
108.35 33.4525 5.78381362078689
108.4 30.5434 5.52660836318261
108.45 35.1114 5.92548732173144
108.5 23.6495 4.86307515878585
108.55 15.8991 3.98736755265927
108.6 36.3611 6.03001658372512
108.65 30.3142 5.50583327026891
108.7 28.4262 5.33162264231069
108.75 29.0667 5.39135418981168
108.8 32.8716 5.73337596883372
108.85 39.1036 6.25328713557917
108.9 33.1374 5.75650935897789
108.95 24.7225 4.9721725633771
109 29.2366 5.40708794084209
109.05 27.3902 5.23356475072202
109.1 21.12 4.59565011723042
109.15 29.2461 5.40796634604913
109.2 31.9625 5.65353871482278
109.25 31.4939 5.61194262265751
109.3 29.8975 5.46786064196958
109.35 32.9261 5.73812687207245
109.4 33.98 5.82923665671587
109.45 35.502 5.95835547781433
109.5 24.1979 4.91913610301646
109.55 23.9754 4.89646811487627
109.6 24.1875 4.9180788932265
109.65 28.0018 5.29167270340863
109.7 22.4961 4.74300537634104
109.75 35.8803 5.99001669446755
109.8 24.6051 4.96035281003277
109.85 27.8376 5.27613494899439
109.9 19.595 4.42662399577827
109.95 27.8451 5.27684564868066
110 24.9646 4.99645874595198
110.05 30.1839 5.49398762284736
110.1 17.2614 4.15468410351497
110.15 26.3731 5.13547466160627
110.2 39.9385 6.31969144816422
110.25 29.8491 5.4634329866852
110.3 28.3705 5.32639653048851
110.35 30.5425 5.52652693832211
110.4 32.0876 5.66459177699506
110.45 31.5844 5.62
110.5 24.7087 4.97078464631088
110.55 30.5014 5.52280725718361
110.6 37.1717 6.09685984749527
110.65 31.3611 5.60009821342448
110.7 35.7454 5.97874568785126
110.75 26.1635 5.11502688164979
110.8 25.1402 5.01400039888311
110.85 24.6652 4.96640715205671
110.9 22.6999 4.76444120543008
110.95 29.0987 5.39432108795908
111 30.3296 5.50723160943863
111.05 37.4775 6.12188696400056
111.1 25.7631 5.07573639977491
111.15 26.7481 5.17185653319966
111.2 38.1199 6.17413151787359
111.25 23.2748 4.82439633529419
111.3 26.5836 5.15592862634851
111.35 29.637 5.44398750917009
111.4 27.0963 5.2054106466253
111.45 28.7853 5.36519337955306
111.5 26.5884 5.15639408889584
111.55 29.4294 5.42488709559932
111.6 26.25 5.1234753829798
111.65 28.699 5.35714476190442
111.7 40.0544 6.32885455671087
111.75 20.229 4.49766606141452
111.8 35.7299 5.97744928878531
111.85 38.3736 6.19464284684759
111.9 33.3061 5.77114373413104
111.95 34.9499 5.91184404395109
112 38.2692 6.1862104716862
112.05 24.3576 4.93534193344291
112.1 31.2411 5.58937384686335
112.15 34.2165 5.84948715700787
112.2 42.0011 6.48082556469467
112.25 23.9651 4.89541622336651
112.3 21.3219 4.61756429300124
112.35 41.4546 6.43852467573123
112.4 30.4882 5.52161208344085
112.45 29.1701 5.40093510422038
112.5 30.4228 5.51568672061784
112.55 38.8622 6.23395540567945
112.6 34.3217 5.8584724971617
112.65 26.0683 5.10571248700904
112.7 43.6789 6.60900143743365
112.75 31.4811 5.61080208169919
112.8 38.9568 6.24153827193265
112.85 39.3646 6.27412145244257
112.9 30.3836 5.51213207388938
112.95 26.4027 5.13835576814218
113 36.1399 6.01164702889316
113.05 27.8584 5.27810572080552
113.1 29.2025 5.40393375236966
113.15 24.9994 4.99993999964
113.2 45.1126 6.71659139742772
113.25 29.979 5.47530821050286
113.3 19.1401 4.37493999958857
113.35 29.9937 5.4766504361699
113.4 23.5039 4.84808209501448
113.45 29.1534 5.39938885430564
113.5 19.2395 4.38628544442789
113.55 23.0727 4.80340504225908
113.6 21.7634 4.66512593613506
113.65 23.8104 4.87959014672339
113.7 34.0647 5.83649723721343
113.75 29.1323 5.39743457579617
113.8 27.6261 5.2560536526942
113.85 30.4876 5.52155775121478
113.9 30.478 5.5206883628765
113.95 38.566 6.2101529771818
114 25.4732 5.04709817618005
114.05 36.8623 6.071433109242
114.1 32.1761 5.6723980819403
114.15 32.8029 5.72738160069678
114.2 35.355 5.94600706356795
114.25 28.1879 5.30922781579393
114.3 31.2361 5.58892655167341
114.35 39.5752 6.2908822910622
114.4 31.8727 5.64559120021987
114.45 24.3242 4.93195701522225
114.5 20.2491 4.49989999888886
114.55 27.0855 5.20437316110211
114.6 40.2661 6.3455575011184
114.65 21.8724 4.67679377351621
114.7 27.0359 5.19960575428561
114.75 33.93 5.82494635168428
114.8 32.7332 5.72129356002644
114.85 26.9592 5.19222495660579
114.9 25.9 5.08920425999979
114.95 28.2055 5.31088504865244
115 32.0601 5.66216389730993
115.05 29.7483 5.45420021634703
115.1 21.7983 4.66886495842405
115.15 24.4092 4.94056676910656
115.2 36.1589 6.01322708701409
115.25 31.2491 5.59008944472269
115.3 26.3334 5.1316079351408
115.35 29.4396 5.42582712588597
115.4 32.2019 5.67467179667688
115.45 34.0388 5.83427801874405
115.5 27.1977 5.21514141706627
115.55 42.3649 6.50883246058769
115.6 39.7019 6.30094437366336
115.65 39.9087 6.31733329815675
115.7 47.0646 6.86036442180734
115.75 54.8006 7.40274273495979
115.8 72.907 8.53855959749652
115.85 83.8555 9.1572648754964
115.9 112.4776 10.6055457191038
115.95 111.2498 10.547502073951
116 136.0033 11.6620452751651
116.05 133.9253 11.5726099044252
116.1 98.7704 9.9383298395656
116.15 90.7063 9.52398551027877
116.2 65.9601 8.12158235813687
116.25 49.2764 7.01971509393366
116.3 48.6615 6.97577952633252
116.35 44.8207 6.69482636070571
116.4 36.8093 6.06706683661883
116.45 37.6104 6.1327318545653
116.5 34.1258 5.84172919605146
116.55 33.0832 5.75179971834903
116.6 44.112 6.64168653280174
116.65 36.6207 6.05150394530153
116.7 26.6359 5.16099796551016
116.75 37.3534 6.1117427956353
116.8 24.2569 4.92512943992338
116.85 28.8975 5.37563949684128
116.9 35.514 5.95936238200028
116.95 26.8517 5.18186259949065
117 24.2402 4.92343376110617
117.05 24.0468 4.90375366428617
117.1 19.9815 4.47006711359013
117.15 34.1769 5.84610126494572
117.2 40.3365 6.3511022665361
117.25 27.1555 5.21109393505817
117.3 22.7848 4.77334264431122
117.35 37.3855 6.11436832387451
117.4 34.6595 5.88723194718876
117.45 24.4966 4.94940400452418
117.5 31.5796 5.61957293751047
117.55 35.3213 5.94317255344315
117.6 26.4926 5.14709626877135
117.65 28.2154 5.3118170149206
117.7 35.9813 5.99844146424719
117.75 31.0389 5.57125659075222
117.8 27.7677 5.26950661827082
117.85 25.8417 5.08347322211891
117.9 34.9989 5.91598681540113
117.95 30.1569 5.49152984149226
118 29.2351 5.40694923223808
118.05 29.0323 5.38816295225005
118.1 18.1484 4.26009389567883
118.15 26.2928 5.12765053411404
118.2 30.5887 5.5307051991586
118.25 28.6204 5.34980373471775
118.3 28.006 5.2920695384698
118.35 45.6841 6.75900140553322
118.4 34.2812 5.85501494447281
118.45 29.8247 5.46119950194094
118.5 31.7343 5.63332051280592
118.55 38.5642 6.21000805152457
118.6 20.1228 4.48584440211651
118.65 29.0365 5.3885526813793
118.7 33.9755 5.82885065857756
118.75 30.0216 5.47919702146218
118.8 34.9817 5.91453294859366
118.85 20.6243 4.54139846302876
118.9 24.615 4.96135062256237
118.95 25.762 5.07562803995722
119 30.7953 5.54935131344196
119.05 28.1767 5.30817294367846
119.1 31.2361 5.58892655167341
119.15 28.527 5.34106730906848
119.2 32.0013 5.65696915317734
119.25 25.3324 5.03313023872818
119.3 27.8493 5.27724359869809
119.35 28.3265 5.32226455561916
119.4 33.3737 5.77699749004619
119.45 28.3834 5.32760734288855
119.5 28.5381 5.34210632616012
119.55 27.9512 5.28688944465458
119.6 22.9128 4.78673166158288
119.65 28.5982 5.34772848974216
119.7 31.2766 5.59254861400417
119.75 36.5511 6.04575057375013
119.8 35.1619 5.92974704350869
119.85 24.1954 4.91888198679334
119.9 25.7163 5.07112413573164
119.95 22.0879 4.69977659043491
120 30.5845 5.53032548770866
120.05 20.6163 4.54051759164085
120.1 34.4347 5.86810872428247
120.15 26.3247 5.13076017759552
120.2 34.8148 5.90040676563913
120.25 33.0931 5.75266025417806
120.3 32.1533 5.67038799377961
120.35 33.7268 5.80747793796929
120.4 37.2423 6.10264696668585
120.45 28.1836 5.30882284503825
120.5 23.7544 4.87384858197298
120.55 31.1353 5.57990143282119
120.6 24.4788 4.94760548144251
120.65 37.2855 6.10618538860392
120.7 26.8302 5.17978764043469
120.75 27.9817 5.28977315203592
120.8 23.8726 4.88595947588598
120.85 25.7517 5.07461328575883
120.9 39.0915 6.25231956956776
120.95 37.2983 6.1072334162041
121 36.2042 6.01699260428331
121.05 27.6948 5.2625849161795
121.1 36.3129 6.02601858609812
121.15 34.5971 5.88192995538029
121.2 25.5326 5.05297931917399
121.25 37.1643 6.096252947508
121.3 29.3588 5.41837614050557
121.35 24.8645 4.98643158982453
121.4 27.7685 5.26958252615897
121.45 29.82 5.46076917659042
121.5 29.8764 5.46593084478756
121.55 20.8052 4.56127175248307
121.6 30.6477 5.53603648831906
121.65 13.408 3.66169359723066
121.7 29.5042 5.43177687317879
121.75 28.2543 5.31547740094904
121.8 28.4857 5.3371996402608
121.85 28.9153 5.37729485894162
121.9 29.2715 5.41031422377666
121.95 26.652 5.16255750573299
122 37.2446 6.10283540659586
122.05 33.8112 5.81473989100114
122.1 25.745 5.07395309398895
122.15 29.8104 5.45989010878424
122.2 25.9904 5.09807806923354
122.25 23.5755 4.85546084321561
122.3 31.0559 5.57278207002571
122.35 28.568 5.34490411513621
122.4 36.7669 6.06357155478518
122.45 30.7356 5.54396969688688
122.5 27.7624 5.26900370089071
122.55 29.1866 5.40246240153506
122.6 25.108 5.01078836112642
122.65 18.7963 4.33546998605688
122.7 22.803 4.77524868462366
122.75 30.4884 5.52163019406407
122.8 39.5634 6.2899443558747
122.85 25.0482 5.00481767899691
122.9 24.4196 4.94161916784367
122.95 35.5477 5.9621891952537
123 22.2327 4.71515641310021
123.05 28.0845 5.2994811066745
123.1 26.1101 5.10980430153641
123.15 24.7827 4.97822257437331
123.2 38.8524 6.23316933830616
123.25 33.8066 5.81434433104886
123.3 36.8706 6.07211659967099
123.35 42.45 6.51536645170477
123.4 32.5919 5.70893159881952
123.45 28.403 5.32944650034129
123.5 29.6118 5.44167253700551
123.55 18.0601 4.249717637679
123.6 29.3528 5.41782244079667
123.65 30.6935 5.54017147749057
123.7 32.6095 5.71047283506366
123.75 26.1197 5.11074358581997
123.8 35.4842 5.9568615897971
123.85 25.8159 5.0809349533329
123.9 39.4691 6.2824437920287
123.95 39.8784 6.31493467899708
124 42.7036 6.53479915529161
124.05 27.9124 5.28321871589659
124.1 27.3377 5.22854664318872
124.15 27.6754 5.26074139261758
124.2 34.5481 5.87776317998607
124.25 29.2779 5.41090565432442
124.3 18.7385 4.3287989096284
124.35 23.2404 4.82082980408975
124.4 29.5191 5.43314825860661
124.45 21.8672 4.67623780404718
124.5 41.779 6.46366768947786
124.55 27.6105 5.25456944002075
124.6 33.0395 5.74799965205288
124.65 28.1012 5.30105649847273
124.7 28.7689 5.36366479191234
124.75 45.421 6.73951036797185
124.8 37.6046 6.13225896387294
124.85 32.6446 5.71354530917538
124.9 35.6473 5.97053598933965
124.95 27.2066 5.21599463189908
125 30.286 5.50327175414771
125.05 35.4102 5.95064702364373
125.1 28.3597 5.32538261536202
125.15 29.9926 5.47655000890159
125.2 19.8284 4.45290916143593
125.25 24.3735 4.93695250129065
125.3 39.9677 6.32200126542221
125.35 36.2842 6.02363677523803
125.4 24.2152 4.92089422767854
125.45 30.1006 5.48640137066183
125.5 28.387 5.32794519491333
125.55 27.0411 5.20010576815511
125.6 29.4434 5.42617729161147
125.65 28.0901 5.30000943395387
125.7 26.3632 5.13451068749496
125.75 19.2167 4.38368566391341
125.8 31.8859 5.64676013303204
125.85 27.3556 5.23025811982544
125.9 28.1579 5.3064017940597
125.95 36.4946 6.04107606308677
126 26.8919 5.18574006290327
126.05 30.3115 5.50558807031547
126.1 23.088 4.80499739854248
126.15 28.3689 5.32624633301916
126.2 27.1638 5.21189025210624
126.25 32.4528 5.69673590751757
126.3 33.6498 5.8008447660664
126.35 43.4861 6.59439913866305
126.4 31.4632 5.60920671753146
126.45 40.9449 6.39882020375631
126.5 27.6764 5.26083643539694
126.55 22.9838 4.79414225904906
126.6 27.4613 5.24035304154214
126.65 29.3562 5.41813621091238
126.7 36.0495 6.00412358300527
126.75 28.9125 5.37703449868048
126.8 16.0398 4.00497191001385
126.85 35.8765 5.98969949162727
126.9 29.4331 5.42522810580348
126.95 24.403 4.93993927088178
127 34.1376 5.84273908368327
127.05 25.6167 5.06129430086811
127.1 34.3029 5.85686776357466
127.15 36.7644 6.06336540215085
127.2 28.1333 5.3040833326787
127.25 21.0447 4.58745027221004
127.3 24.8546 4.98543879713712
127.35 31.5802 5.61962632209652
127.4 33.9457 5.82629384772172
127.45 23.5705 4.85494593172777
127.5 36.3034 6.02523028605546
127.55 17.9101 4.23203260857002
127.6 33.7853 5.81251236557824
127.65 27.6084 5.25436961014354
127.7 24.3039 4.92989857907848
127.75 33.141 5.75682203998004
127.8 37.4342 6.118349450628
127.85 32.0057 5.65735804064053
127.9 25.0741 5.00740451731234
127.95 25.6432 5.06391153161269
128 32.331 5.68603552574199
128.05 32.8212 5.72897896662224
128.1 32.7388 5.72178293890986
128.15 26.0449 5.1034204216388
128.2 23.4091 4.8382951542873
128.25 32.4518 5.69664813728213
128.3 30.1929 5.49480663900014
128.35 27.4722 5.24139294462837
128.4 28.2924 5.31906006734273
128.45 23.3468 4.83185264675983
128.5 22.1619 4.70764272221247
128.55 30.7195 5.54251747854709
128.6 26.4798 5.14585269901889
128.65 26.0079 5.09979411349125
128.7 30.4827 5.52111401802209
128.75 25.3449 5.03437185754092
128.8 23.1399 4.81039499417667
128.85 28.3942 5.3286208347001
128.9 32.5802 5.70790679671629
128.95 33.5426 5.79159736169565
129 33.672 5.80275796496804
129.05 45.8752 6.77312335632535
129.1 34.5386 5.87695499387225
129.15 36.9918 6.0820884571009
129.2 38.7519 6.22510240879618
129.25 29.0157 5.38662231829929
129.3 28.8557 5.3717501803416
129.35 22.8247 4.77752027729867
129.4 28.3111 5.32081760634585
129.45 29.7146 5.45110997871076
129.5 35.59 5.96573549530986
129.55 23.6041 4.85840508809218
129.6 26.3904 5.13715874779046
129.65 26.9477 5.19111741342844
129.7 29.6519 5.44535581941162
129.75 31.1914 5.58492614096194
129.8 25.8217 5.08150568237407
129.85 30.3402 5.5081938963693
129.9 34.8032 5.89942370066772
129.95 37.118 6.09245434943915
130 23.4052 4.83789210297212
130 23.4052 4.83789210297212
