
#Surface 0 of 1 surfaces

#IsoCurve 0, 1801 points
#x y z type
 40  37.7376  0 i
 40.05  32.8109  0 i
 40.1  35.5877  0 i
 40.15  29.9465  0 i
 40.2  38.4941  0 i
 40.25  35.9873  0 i
 40.3  36.8878  0 i
 40.35  34.8807  0 i
 40.4  31.6898  0 i
 40.45  35.5314  0 i
 40.5  27.9957  0 i
 40.55  37.2041  0 i
 40.6  37.929  0 i
 40.65  41.7227  0 i
 40.7  43.4007  0 i
 40.75  35.0683  0 i
 40.8  30.4813  0 i
 40.85  31.3025  0 i
 40.9  33.0748  0 i
 40.95  33.1474  0 i
 41  44.2541  0 i
 41.05  27.4895  0 i
 41.1  31.4599  0 i
 41.15  37.6539  0 i
 41.2  45.3231  0 i
 41.25  42.1368  0 i
 41.3  35.8502  0 i
 41.35  41.1699  0 i
 41.4  32.5669  0 i
 41.45  37.8588  0 i
 41.5  45.4811  0 i
 41.55  43.6928  0 i
 41.6  47.4073  0 i
 41.65  42.6426  0 i
 41.7  28.5613  0 i
 41.75  34.6055  0 i
 41.8  43.2384  0 i
 41.85  40.2252  0 i
 41.9  34.6421  0 i
 41.95  36.5026  0 i
 42  34.1863  0 i
 42.05  41.4847  0 i
 42.1  40.4098  0 i
 42.15  34.8477  0 i
 42.2  36.5292  0 i
 42.25  50.1853  0 i
 42.3  25.2395  0 i
 42.35  32.9072  0 i
 42.4  44.385  0 i
 42.45  45.113  0 i
 42.5  40.3258  0 i
 42.55  39.1332  0 i
 42.6  39.3882  0 i
 42.65  42.2193  0 i
 42.7  46.4961  0 i
 42.75  40.9596  0 i
 42.8  26.8247  0 i
 42.85  42.589  0 i
 42.9  28.0782  0 i
 42.95  34.1091  0 i
 43  39.5615  0 i
 43.05  44.0683  0 i
 43.1  39.0578  0 i
 43.15  36.9177  0 i
 43.2  36.4638  0 i
 43.25  33.6822  0 i
 43.3  37.422  0 i
 43.35  45.4698  0 i
 43.4  55.6737  0 i
 43.45  35.4328  0 i
 43.5  36.0097  0 i
 43.55  36.9111  0 i
 43.6  35.0404  0 i
 43.65  35.3699  0 i
 43.7  39.0572  0 i
 43.75  31.6294  0 i
 43.8  34.5958  0 i
 43.85  37.903  0 i
 43.9  29.7097  0 i
 43.95  35.2241  0 i
 44  40.4618  0 i
 44.05  32.1102  0 i
 44.1  49.8994  0 i
 44.15  39.0702  0 i
 44.2  56.2997  0 i
 44.25  56.6419  0 i
 44.3  77.8788  0 i
 44.35  85.3703  0 i
 44.4  139.071  0 i
 44.45  363.966  0 i
 44.5  1207.05  0 i
 44.55  1802.43  0 i
 44.6  1844.62  0 i
 44.65  1022.65  0 i
 44.7  251.603  0 i
 44.75  88.874  0 i
 44.8  70.0504  0 i
 44.85  57.6528  0 i
 44.9  44.2237  0 i
 44.95  50.8111  0 i
 45  32.7903  0 i
 45.05  38.9166  0 i
 45.1  45.0589  0 i
 45.15  51.2416  0 i
 45.2  35.0201  0 i
 45.25  28.263  0 i
 45.3  27.0194  0 i
 45.35  32.2172  0 i
 45.4  32.1268  0 i
 45.45  32.4014  0 i
 45.5  37.9811  0 i
 45.55  33.8329  0 i
 45.6  30.8753  0 i
 45.65  36.1251  0 i
 45.7  35.369  0 i
 45.75  26.4417  0 i
 45.8  25.2048  0 i
 45.85  39.2651  0 i
 45.9  39.9357  0 i
 45.95  37.7356  0 i
 46  35.9118  0 i
 46.05  40.8132  0 i
 46.1  38.423  0 i
 46.15  34.851  0 i
 46.2  31.2257  0 i
 46.25  25.683  0 i
 46.3  19.7874  0 i
 46.35  44.8191  0 i
 46.4  34.625  0 i
 46.45  50.4642  0 i
 46.5  24.5853  0 i
 46.55  32.3108  0 i
 46.6  30.2986  0 i
 46.65  42.3736  0 i
 46.7  32.8152  0 i
 46.75  40.5812  0 i
 46.8  44.0965  0 i
 46.85  33.7078  0 i
 46.9  49.2605  0 i
 46.95  27.4622  0 i
 47  39.4329  0 i
 47.05  32.8084  0 i
 47.1  31.3788  0 i
 47.15  31.0158  0 i
 47.2  36.8521  0 i
 47.25  35.4231  0 i
 47.3  41.293  0 i
 47.35  27.6444  0 i
 47.4  27.6751  0 i
 47.45  30.5445  0 i
 47.5  38.0393  0 i
 47.55  33.8807  0 i
 47.6  21.6314  0 i
 47.65  35.0161  0 i
 47.7  29.838  0 i
 47.75  38.1761  0 i
 47.8  32.3377  0 i
 47.85  44.7662  0 i
 47.9  20.4439  0 i
 47.95  24.0516  0 i
 48  41.5349  0 i
 48.05  34.606  0 i
 48.1  42.5298  0 i
 48.15  44.299  0 i
 48.2  33.1329  0 i
 48.25  35.8055  0 i
 48.3  37.3676  0 i
 48.35  35.0923  0 i
 48.4  46.3954  0 i
 48.45  34.1682  0 i
 48.5  37.6426  0 i
 48.55  22.5027  0 i
 48.6  35.7727  0 i
 48.65  36.7579  0 i
 48.7  40.5003  0 i
 48.75  30.0663  0 i
 48.8  26.9404  0 i
 48.85  32.1592  0 i
 48.9  34.092  0 i
 48.95  23.9242  0 i
 49  37.7292  0 i
 49.05  27.615  0 i
 49.1  35.2827  0 i
 49.15  35.6353  0 i
 49.2  25.4112  0 i
 49.25  31.4784  0 i
 49.3  36.5529  0 i
 49.35  31.1698  0 i
 49.4  37.531  0 i
 49.45  29.3331  0 i
 49.5  33.46  0 i
 49.55  32.4249  0 i
 49.6  33.9736  0 i
 49.65  28.5264  0 i
 49.7  37.1278  0 i
 49.75  29.7649  0 i
 49.8  32.4365  0 i
 49.85  31.9243  0 i
 49.9  23.5287  0 i
 49.95  37.6173  0 i
 50  35.3171  0 i
 50.05  36.0773  0 i
 50.1  26.7853  0 i
 50.15  35.9585  0 i
 50.2  25.3886  0 i
 50.25  36.0658  0 i
 50.3  25.6119  0 i
 50.35  32.4784  0 i
 50.4  30.41  0 i
 50.45  23.9724  0 i
 50.5  36.9127  0 i
 50.55  31.0935  0 i
 50.6  32.8801  0 i
 50.65  32.5259  0 i
 50.7  27.277  0 i
 50.75  36.5218  0 i
 50.8  31.2371  0 i
 50.85  40.7306  0 i
 50.9  23.1427  0 i
 50.95  26.7945  0 i
 51  41.2221  0 i
 51.05  27.6125  0 i
 51.1  35.0118  0 i
 51.15  27.1553  0 i
 51.2  25.6464  0 i
 51.25  41.7218  0 i
 51.3  26.5883  0 i
 51.35  33.1464  0 i
 51.4  40.8406  0 i
 51.45  42.1806  0 i
 51.5  21.7511  0 i
 51.55  25.2994  0 i
 51.6  37.2137  0 i
 51.65  35.8849  0 i
 51.7  32.3595  0 i
 51.75  33.5686  0 i
 51.8  29.126  0 i
 51.85  43.0031  0 i
 51.9  24.6882  0 i
 51.95  36.5921  0 i
 52  42.7987  0 i
 52.05  36.6625  0 i
 52.1  22.8346  0 i
 52.15  37.7661  0 i
 52.2  30.7516  0 i
 52.25  28.778  0 i
 52.3  31.726  0 i
 52.35  20.6266  0 i
 52.4  25.799  0 i
 52.45  43.6777  0 i
 52.5  43.4859  0 i
 52.55  34.1817  0 i
 52.6  37.5789  0 i
 52.65  35.0811  0 i
 52.7  38.4695  0 i
 52.75  20.2841  0 i
 52.8  35.0666  0 i
 52.85  24.8053  0 i
 52.9  31.8759  0 i
 52.95  25.667  0 i
 53  34.5043  0 i
 53.05  34.9032  0 i
 53.1  37.3951  0 i
 53.15  35.1639  0 i
 53.2  31.9651  0 i
 53.25  31.2972  0 i
 53.3  33.042  0 i
 53.35  34.7414  0 i
 53.4  24.6301  0 i
 53.45  27.0601  0 i
 53.5  30.7586  0 i
 53.55  37.3433  0 i
 53.6  28.0284  0 i
 53.65  33.1463  0 i
 53.7  29.2069  0 i
 53.75  23.7404  0 i
 53.8  34.0201  0 i
 53.85  33.3771  0 i
 53.9  36.1714  0 i
 53.95  32.0224  0 i
 54  18.4755  0 i
 54.05  24.42  0 i
 54.1  37.3169  0 i
 54.15  25.0694  0 i
 54.2  35.2842  0 i
 54.25  30.2782  0 i
 54.3  38.6532  0 i
 54.35  25.1066  0 i
 54.4  34.3209  0 i
 54.45  27.7838  0 i
 54.5  26.1409  0 i
 54.55  22.7002  0 i
 54.6  22.708  0 i
 54.65  33.767  0 i
 54.7  26.2835  0 i
 54.75  31.5617  0 i
 54.8  25.2919  0 i
 54.85  23.485  0 i
 54.9  23.3323  0 i
 54.95  36.9836  0 i
 55  25.9369  0 i
 55.05  29.9921  0 i
 55.1  26.761  0 i
 55.15  30.3403  0 i
 55.2  26.7542  0 i
 55.25  33.2425  0 i
 55.3  34.5835  0 i
 55.35  28.4697  0 i
 55.4  34.6721  0 i
 55.45  30.2887  0 i
 55.5  22.893  0 i
 55.55  38.4619  0 i
 55.6  40.8176  0 i
 55.65  43.3616  0 i
 55.7  26.9164  0 i
 55.75  35.8687  0 i
 55.8  32.2162  0 i
 55.85  31.1503  0 i
 55.9  31.4584  0 i
 55.95  42.7973  0 i
 56  37.4963  0 i
 56.05  21.6725  0 i
 56.1  24.5465  0 i
 56.15  25.1287  0 i
 56.2  28.7921  0 i
 56.25  29.341  0 i
 56.3  24.4514  0 i
 56.35  27.4585  0 i
 56.4  23.1837  0 i
 56.45  30.5186  0 i
 56.5  25.8238  0 i
 56.55  33.5211  0 i
 56.6  29.8126  0 i
 56.65  31.7204  0 i
 56.7  34.2582  0 i
 56.75  27.7858  0 i
 56.8  30.8379  0 i
 56.85  24.8712  0 i
 56.9  33.855  0 i
 56.95  38.7087  0 i
 57  29.5111  0 i
 57.05  27.8097  0 i
 57.1  25.515  0 i
 57.15  22.0998  0 i
 57.2  25.24  0 i
 57.25  22.3822  0 i
 57.3  36.5325  0 i
 57.35  25.3825  0 i
 57.4  26.6448  0 i
 57.45  35.8143  0 i
 57.5  30.4792  0 i
 57.55  29.927  0 i
 57.6  27.3088  0 i
 57.65  28.0774  0 i
 57.7  34.0673  0 i
 57.75  29.8284  0 i
 57.8  32.2951  0 i
 57.85  34.2697  0 i
 57.9  35.3855  0 i
 57.95  33.7489  0 i
 58  21.6954  0 i
 58.05  23.3122  0 i
 58.1  27.9577  0 i
 58.15  35.1412  0 i
 58.2  22.1787  0 i
 58.25  35.9756  0 i
 58.3  32.386  0 i
 58.35  31.4666  0 i
 58.4  23.3722  0 i
 58.45  34.1707  0 i
 58.5  39.975  0 i
 58.55  23.6656  0 i
 58.6  28.7687  0 i
 58.65  33.4637  0 i
 58.7  41.9336  0 i
 58.75  36.2552  0 i
 58.8  31.1296  0 i
 58.85  31.9199  0 i
 58.9  22.1924  0 i
 58.95  37.5065  0 i
 59  29.085  0 i
 59.05  25.7273  0 i
 59.1  27.576  0 i
 59.15  33.2922  0 i
 59.2  31.8707  0 i
 59.25  33.3717  0 i
 59.3  32.7354  0 i
 59.35  24.7674  0 i
 59.4  36.5382  0 i
 59.45  34.1382  0 i
 59.5  21.3268  0 i
 59.55  29.2399  0 i
 59.6  34.7249  0 i
 59.65  32.9071  0 i
 59.7  44.8452  0 i
 59.75  24.0033  0 i
 59.8  30.1147  0 i
 59.85  35.8813  0 i
 59.9  39.5274  0 i
 59.95  27.2971  0 i
 60  36.7018  0 i
 60.05  31.1471  0 i
 60.1  35.1135  0 i
 60.15  37.4367  0 i
 60.2  37.4205  0 i
 60.25  23.0375  0 i
 60.3  31.5996  0 i
 60.35  27.4216  0 i
 60.4  32.4049  0 i
 60.45  29.7262  0 i
 60.5  35.6716  0 i
 60.55  24.1489  0 i
 60.6  28.9037  0 i
 60.65  40.4236  0 i
 60.7  29.6895  0 i
 60.75  30.2529  0 i
 60.8  32.232  0 i
 60.85  27.1597  0 i
 60.9  38.3939  0 i
 60.95  33.0472  0 i
 61  23.7667  0 i
 61.05  28.8676  0 i
 61.1  27.743  0 i
 61.15  35.4575  0 i
 61.2  26.3765  0 i
 61.25  35.4053  0 i
 61.3  36.0536  0 i
 61.35  29.9339  0 i
 61.4  31.0116  0 i
 61.45  39.1812  0 i
 61.5  30.4928  0 i
 61.55  36.459  0 i
 61.6  33.3714  0 i
 61.65  42.5978  0 i
 61.7  31.0029  0 i
 61.75  26.0805  0 i
 61.8  24.906  0 i
 61.85  25.7472  0 i
 61.9  37.0463  0 i
 61.95  30.5263  0 i
 62  24.8251  0 i
 62.05  30.4435  0 i
 62.1  26.0845  0 i
 62.15  28.7283  0 i
 62.2  27.6729  0 i
 62.25  22.0894  0 i
 62.3  32.7696  0 i
 62.35  32.4049  0 i
 62.4  33.5987  0 i
 62.45  22.1656  0 i
 62.5  38.1069  0 i
 62.55  38.4849  0 i
 62.6  37.8599  0 i
 62.65  33.3187  0 i
 62.7  23.0955  0 i
 62.75  24.6775  0 i
 62.8  21.8114  0 i
 62.85  20.3481  0 i
 62.9  26.0246  0 i
 62.95  28.6771  0 i
 63  22.6443  0 i
 63.05  29.0287  0 i
 63.1  24.2552  0 i
 63.15  31.5427  0 i
 63.2  30.6828  0 i
 63.25  28.7101  0 i
 63.3  19.5858  0 i
 63.35  32.4102  0 i
 63.4  26.6385  0 i
 63.45  25.8704  0 i
 63.5  34.5038  0 i
 63.55  35.8603  0 i
 63.6  28.6724  0 i
 63.65  38.8254  0 i
 63.7  36.7034  0 i
 63.75  28.6733  0 i
 63.8  23.307  0 i
 63.85  34.7415  0 i
 63.9  27.8415  0 i
 63.95  40.0153  0 i
 64  27.1203  0 i
 64.05  26.5404  0 i
 64.1  39.3394  0 i
 64.15  25.3823  0 i
 64.2  35.2172  0 i
 64.25  47.7414  0 i
 64.3  20.3104  0 i
 64.35  40.9753  0 i
 64.4  28.6528  0 i
 64.45  36.0457  0 i
 64.5  35.9015  0 i
 64.55  30.5959  0 i
 64.6  44.4175  0 i
 64.65  48.5983  0 i
 64.7  62.2925  0 i
 64.75  99.1583  0 i
 64.8  139.796  0 i
 64.85  178.803  0 i
 64.9  152.684  0 i
 64.95  98.3337  0 i
 65  60.4175  0 i
 65.05  35.5056  0 i
 65.1  28.8374  0 i
 65.15  32.1666  0 i
 65.2  31.7057  0 i
 65.25  28.0828  0 i
 65.3  27.713  0 i
 65.35  20.0106  0 i
 65.4  32.1795  0 i
 65.45  26.8987  0 i
 65.5  43.274  0 i
 65.55  34.8862  0 i
 65.6  33.4176  0 i
 65.65  22.2665  0 i
 65.7  35.4572  0 i
 65.75  22.4754  0 i
 65.8  23.4047  0 i
 65.85  25.6879  0 i
 65.9  39.4394  0 i
 65.95  35.1183  0 i
 66  33.3038  0 i
 66.05  30.2555  0 i
 66.1  36.2756  0 i
 66.15  29.3837  0 i
 66.2  35.297  0 i
 66.25  35.5857  0 i
 66.3  19.297  0 i
 66.35  30.6236  0 i
 66.4  36.6183  0 i
 66.45  24.556  0 i
 66.5  32.6001  0 i
 66.55  28.7196  0 i
 66.6  25.2223  0 i
 66.65  30.7403  0 i
 66.7  44.3816  0 i
 66.75  30.3827  0 i
 66.8  31.8877  0 i
 66.85  18.5228  0 i
 66.9  29.3574  0 i
 66.95  41.0351  0 i
 67  39.0134  0 i
 67.05  26.5733  0 i
 67.1  26.9688  0 i
 67.15  29.9263  0 i
 67.2  41.8321  0 i
 67.25  25.0724  0 i
 67.3  33.2888  0 i
 67.35  43.2919  0 i
 67.4  33.0451  0 i
 67.45  36.8354  0 i
 67.5  35.1003  0 i
 67.55  34.6134  0 i
 67.6  34.1279  0 i
 67.65  34.4796  0 i
 67.7  28.9904  0 i
 67.75  36.7379  0 i
 67.8  24.6282  0 i
 67.85  21.7961  0 i
 67.9  27.3482  0 i
 67.95  28.59  0 i
 68  26.2645  0 i
 68.05  34.2796  0 i
 68.1  27.0176  0 i
 68.15  25.6028  0 i
 68.2  34.775  0 i
 68.25  31.0468  0 i
 68.3  28.7079  0 i
 68.35  30.4767  0 i
 68.4  20.0254  0 i
 68.45  27.7831  0 i
 68.5  21.4094  0 i
 68.55  38.9829  0 i
 68.6  36.2588  0 i
 68.65  25.6091  0 i
 68.7  31.6978  0 i
 68.75  30.0157  0 i
 68.8  23.915  0 i
 68.85  24.274  0 i
 68.9  36.0392  0 i
 68.95  38.8078  0 i
 69  30.5248  0 i
 69.05  27.4346  0 i
 69.1  27.9387  0 i
 69.15  27.9965  0 i
 69.2  33.6584  0 i
 69.25  37.0995  0 i
 69.3  29.8467  0 i
 69.35  28.0304  0 i
 69.4  25.7722  0 i
 69.45  28.7029  0 i
 69.5  22.2671  0 i
 69.55  33.3033  0 i
 69.6  33.023  0 i
 69.65  34.5919  0 i
 69.7  34.6437  0 i
 69.75  25.9851  0 i
 69.8  19.4337  0 i
 69.85  33.7779  0 i
 69.9  21.6524  0 i
 69.95  25.1543  0 i
 70  28.2704  0 i
 70.05  33.393  0 i
 70.1  34.5659  0 i
 70.15  32.7657  0 i
 70.2  24.2446  0 i
 70.25  29.8224  0 i
 70.3  31.2279  0 i
 70.35  47.1028  0 i
 70.4  30.2251  0 i
 70.45  23.9536  0 i
 70.5  27.0437  0 i
 70.55  25.1122  0 i
 70.6  21.8618  0 i
 70.65  29.6092  0 i
 70.7  20.9991  0 i
 70.75  27.6371  0 i
 70.8  25.5704  0 i
 70.85  22.359  0 i
 70.9  24.1417  0 i
 70.95  26.7585  0 i
 71  26.897  0 i
 71.05  23.2804  0 i
 71.1  30.1477  0 i
 71.15  27.2262  0 i
 71.2  30.597  0 i
 71.25  26.1281  0 i
 71.3  30.4555  0 i
 71.35  28.9658  0 i
 71.4  16.739  0 i
 71.45  27.1836  0 i
 71.5  26.1806  0 i
 71.55  26.7449  0 i
 71.6  24.8858  0 i
 71.65  30.1941  0 i
 71.7  28.9919  0 i
 71.75  29.0444  0 i
 71.8  29.6369  0 i
 71.85  32.3099  0 i
 71.9  27.7469  0 i
 71.95  28.2978  0 i
 72  32.1336  0 i
 72.05  36.394  0 i
 72.1  37.9104  0 i
 72.15  30.279  0 i
 72.2  27.814  0 i
 72.25  28.1876  0 i
 72.3  30.8002  0 i
 72.35  19.9729  0 i
 72.4  24.4732  0 i
 72.45  34.954  0 i
 72.5  29.1536  0 i
 72.55  41.6115  0 i
 72.6  28.5298  0 i
 72.65  35.0347  0 i
 72.7  32.502  0 i
 72.75  23.418  0 i
 72.8  30.5546  0 i
 72.85  23.6432  0 i
 72.9  35.8646  0 i
 72.95  29.178  0 i
 73  22.5019  0 i
 73.05  36.7798  0 i
 73.1  27.9084  0 i
 73.15  38.3437  0 i
 73.2  35.9669  0 i
 73.25  25.0144  0 i
 73.3  23.5029  0 i
 73.35  26.8407  0 i
 73.4  35.3133  0 i
 73.45  34.2184  0 i
 73.5  32.024  0 i
 73.55  23.0846  0 i
 73.6  27.2353  0 i
 73.65  36.7775  0 i
 73.7  35.2821  0 i
 73.75  31.9912  0 i
 73.8  19.9048  0 i
 73.85  32.8562  0 i
 73.9  28.143  0 i
 73.95  24.7635  0 i
 74  21.8935  0 i
 74.05  33.3007  0 i
 74.1  26.5886  0 i
 74.15  25.2361  0 i
 74.2  27.2156  0 i
 74.25  33.6623  0 i
 74.3  26.0144  0 i
 74.35  22.9719  0 i
 74.4  20.0404  0 i
 74.45  30.4112  0 i
 74.5  40.1764  0 i
 74.55  31.808  0 i
 74.6  31.5555  0 i
 74.65  28.2875  0 i
 74.7  34.6524  0 i
 74.75  39.9004  0 i
 74.8  30.5354  0 i
 74.85  16.726  0 i
 74.9  33.6182  0 i
 74.95  33.1505  0 i
 75  24.8758  0 i
 75.05  19.1531  0 i
 75.1  21.9666  0 i
 75.15  30.0999  0 i
 75.2  32.4756  0 i
 75.25  37.6797  0 i
 75.3  35.3967  0 i
 75.35  18.5502  0 i
 75.4  34.4307  0 i
 75.45  17.0197  0 i
 75.5  27.6651  0 i
 75.55  41.9044  0 i
 75.6  26.6126  0 i
 75.65  28.7621  0 i
 75.7  31.2338  0 i
 75.75  31.7793  0 i
 75.8  36.47  0 i
 75.85  37.1754  0 i
 75.9  29.2334  0 i
 75.95  32.2885  0 i
 76  25.5939  0 i
 76.05  28.1639  0 i
 76.1  30.9453  0 i
 76.15  29.7972  0 i
 76.2  35.1904  0 i
 76.25  25.4269  0 i
 76.3  34.0464  0 i
 76.35  25.1737  0 i
 76.4  30.657  0 i
 76.45  31.0504  0 i
 76.5  26.4296  0 i
 76.55  31.1942  0 i
 76.6  28.3525  0 i
 76.65  30.5583  0 i
 76.7  34.2794  0 i
 76.75  34.0708  0 i
 76.8  35.4531  0 i
 76.85  24.0592  0 i
 76.9  18.6781  0 i
 76.95  30.8441  0 i
 77  29.0393  0 i
 77.05  26.2238  0 i
 77.1  29.0038  0 i
 77.15  31.4355  0 i
 77.2  28.9966  0 i
 77.25  30.9643  0 i
 77.3  31.3986  0 i
 77.35  35.148  0 i
 77.4  33.2193  0 i
 77.45  26.3137  0 i
 77.5  27.7568  0 i
 77.55  27.1191  0 i
 77.6  35.5902  0 i
 77.65  23.6808  0 i
 77.7  25.2737  0 i
 77.75  22.319  0 i
 77.8  24.4156  0 i
 77.85  31.2513  0 i
 77.9  25.8385  0 i
 77.95  26.444  0 i
 78  25.3876  0 i
 78.05  30.1499  0 i
 78.1  26.8098  0 i
 78.15  26.5513  0 i
 78.2  23.2634  0 i
 78.25  30.1066  0 i
 78.3  33.9448  0 i
 78.35  37.9343  0 i
 78.4  31.0733  0 i
 78.45  26.1433  0 i
 78.5  29.5464  0 i
 78.55  33.9343  0 i
 78.6  30.7746  0 i
 78.65  28.4417  0 i
 78.7  29.3213  0 i
 78.75  25.2871  0 i
 78.8  22.7669  0 i
 78.85  29.1394  0 i
 78.9  24.1758  0 i
 78.95  22.4271  0 i
 79  37.689  0 i
 79.05  32.2242  0 i
 79.1  29.8829  0 i
 79.15  26.0062  0 i
 79.2  25.7886  0 i
 79.25  27.4478  0 i
 79.3  22.8436  0 i
 79.35  28.4901  0 i
 79.4  31.6721  0 i
 79.45  30.8592  0 i
 79.5  27.885  0 i
 79.55  24.4419  0 i
 79.6  29.6942  0 i
 79.65  32.9604  0 i
 79.7  27.7984  0 i
 79.75  29.6453  0 i
 79.8  29.2785  0 i
 79.85  24.2409  0 i
 79.9  24.415  0 i
 79.95  31.6139  0 i
 80  35.1469  0 i
 80.05  22.0593  0 i
 80.1  17.9208  0 i
 80.15  24.9229  0 i
 80.2  30.5035  0 i
 80.25  36.2585  0 i
 80.3  36.4844  0 i
 80.35  31.3539  0 i
 80.4  27.7252  0 i
 80.45  28.0569  0 i
 80.5  36.3997  0 i
 80.55  37.7006  0 i
 80.6  30.6094  0 i
 80.65  27.131  0 i
 80.7  34.9642  0 i
 80.75  26.1676  0 i
 80.8  31.7509  0 i
 80.85  37.024  0 i
 80.9  28.8018  0 i
 80.95  35.8614  0 i
 81  32.0514  0 i
 81.05  25.5614  0 i
 81.1  29.3376  0 i
 81.15  35.2838  0 i
 81.2  44.8283  0 i
 81.25  18.7945  0 i
 81.3  26.6516  0 i
 81.35  31.0767  0 i
 81.4  23.9956  0 i
 81.45  28.0002  0 i
 81.5  34.0523  0 i
 81.55  30.449  0 i
 81.6  26.389  0 i
 81.65  35.4042  0 i
 81.7  45.2279  0 i
 81.75  27.7674  0 i
 81.8  35.9837  0 i
 81.85  36.5271  0 i
 81.9  50.9373  0 i
 81.95  63.1771  0 i
 82  131.947  0 i
 82.05  187.009  0 i
 82.1  321.834  0 i
 82.15  327.031  0 i
 82.2  215.738  0 i
 82.25  121.069  0 i
 82.3  62.1586  0 i
 82.35  41.2631  0 i
 82.4  39.1297  0 i
 82.45  43.42  0 i
 82.5  51.123  0 i
 82.55  35.1307  0 i
 82.6  32.0096  0 i
 82.65  31.9104  0 i
 82.7  41.8185  0 i
 82.75  33.3131  0 i
 82.8  29.4711  0 i
 82.85  39.9086  0 i
 82.9  32.4204  0 i
 82.95  21.6246  0 i
 83  24.7907  0 i
 83.05  27.9458  0 i
 83.1  34.242  0 i
 83.15  22.771  0 i
 83.2  27.7898  0 i
 83.25  26.5384  0 i
 83.3  27.0614  0 i
 83.35  33.7155  0 i
 83.4  29.3849  0 i
 83.45  28.7194  0 i
 83.5  24.7508  0 i
 83.55  29.6907  0 i
 83.6  32.0864  0 i
 83.65  29.6402  0 i
 83.7  26.8821  0 i
 83.75  26.2376  0 i
 83.8  26.2971  0 i
 83.85  33.0337  0 i
 83.9  34.1938  0 i
 83.95  33.6791  0 i
 84  31.4829  0 i
 84.05  31.244  0 i
 84.1  32.0128  0 i
 84.15  39.224  0 i
 84.2  33.5611  0 i
 84.25  25.4105  0 i
 84.3  24.7032  0 i
 84.35  22.6371  0 i
 84.4  18.0901  0 i
 84.45  19.3703  0 i
 84.5  30.3613  0 i
 84.55  28.7753  0 i
 84.6  32.6681  0 i
 84.65  41.3601  0 i
 84.7  28.7806  0 i
 84.75  30.8705  0 i
 84.8  37.8951  0 i
 84.85  26.0487  0 i
 84.9  39.286  0 i
 84.95  27.3358  0 i
 85  28.5395  0 i
 85.05  27.6767  0 i
 85.1  28.0358  0 i
 85.15  29.414  0 i
 85.2  24.4936  0 i
 85.25  24.211  0 i
 85.3  29.8423  0 i
 85.35  30.6829  0 i
 85.4  25.0123  0 i
 85.45  27.8798  0 i
 85.5  28.0352  0 i
 85.55  37.5911  0 i
 85.6  26.3702  0 i
 85.65  31.9803  0 i
 85.7  30.3483  0 i
 85.75  26.6331  0 i
 85.8  23.846  0 i
 85.85  32.6157  0 i
 85.9  28.5491  0 i
 85.95  22.7839  0 i
 86  29.1007  0 i
 86.05  31.5723  0 i
 86.1  34.1119  0 i
 86.15  21.213  0 i
 86.2  40.1076  0 i
 86.25  26.2214  0 i
 86.3  27.3927  0 i
 86.35  34.0584  0 i
 86.4  29.9777  0 i
 86.45  24.9745  0 i
 86.5  21.7882  0 i
 86.55  23.407  0 i
 86.6  31.3557  0 i
 86.65  25.3915  0 i
 86.7  22.3505  0 i
 86.75  33.9235  0 i
 86.8  34.9803  0 i
 86.85  30.6789  0 i
 86.9  29.9799  0 i
 86.95  24.5132  0 i
 87  34.8802  0 i
 87.05  30.5989  0 i
 87.1  22.4605  0 i
 87.15  22.6691  0 i
 87.2  19.4593  0 i
 87.25  23.778  0 i
 87.3  49.541  0 i
 87.35  19.5671  0 i
 87.4  36.2286  0 i
 87.45  32.2411  0 i
 87.5  21.1344  0 i
 87.55  27.7717  0 i
 87.6  38.9235  0 i
 87.65  34.5467  0 i
 87.7  24.4204  0 i
 87.75  28.735  0 i
 87.8  42.7309  0 i
 87.85  32.6047  0 i
 87.9  25.4391  0 i
 87.95  25.0247  0 i
 88  28.9303  0 i
 88.05  25.4222  0 i
 88.1  22.6076  0 i
 88.15  27.4964  0 i
 88.2  19.2328  0 i
 88.25  27.8255  0 i
 88.3  39.131  0 i
 88.35  30.9421  0 i
 88.4  23.2413  0 i
 88.45  28.3917  0 i
 88.5  28.2342  0 i
 88.55  26.8647  0 i
 88.6  28.4936  0 i
 88.65  24.4889  0 i
 88.7  34.3753  0 i
 88.75  29.5769  0 i
 88.8  28.4172  0 i
 88.85  26.3466  0 i
 88.9  25.3073  0 i
 88.95  27.4965  0 i
 89  41.5162  0 i
 89.05  33.0265  0 i
 89.1  29.5572  0 i
 89.15  28.7183  0 i
 89.2  26.2359  0 i
 89.25  33.9159  0 i
 89.3  36.8975  0 i
 89.35  25.8946  0 i
 89.4  14.027  0 i
 89.45  28.4077  0 i
 89.5  29.2799  0 i
 89.55  31.3816  0 i
 89.6  33.4733  0 i
 89.65  24.0369  0 i
 89.7  26.7872  0 i
 89.75  27.4091  0 i
 89.8  32.1378  0 i
 89.85  28.5099  0 i
 89.9  25.4387  0 i
 89.95  31.075  0 i
 90  24.9685  0 i
 90.05  24.473  0 i
 90.1  27.4742  0 i
 90.15  25.2741  0 i
 90.2  24.7715  0 i
 90.25  28.0145  0 i
 90.3  32.6709  0 i
 90.35  35.0353  0 i
 90.4  18.9217  0 i
 90.45  27.0552  0 i
 90.5  29.1496  0 i
 90.55  37.9074  0 i
 90.6  30.3397  0 i
 90.65  28.0958  0 i
 90.7  27.1448  0 i
 90.75  34.8198  0 i
 90.8  30.4384  0 i
 90.85  39.4472  0 i
 90.9  28.6121  0 i
 90.95  28.1046  0 i
 91  29.1162  0 i
 91.05  30.9675  0 i
 91.1  32.9239  0 i
 91.15  31.2827  0 i
 91.2  35.3804  0 i
 91.25  30.2316  0 i
 91.3  36.7595  0 i
 91.35  18.3368  0 i
 91.4  25.2358  0 i
 91.45  36.8061  0 i
 91.5  35.7498  0 i
 91.55  26.359  0 i
 91.6  25.2117  0 i
 91.65  34.4666  0 i
 91.7  37.7172  0 i
 91.75  21.3617  0 i
 91.8  36.6418  0 i
 91.85  25.8955  0 i
 91.9  37.4415  0 i
 91.95  19.6014  0 i
 92  23.5583  0 i
 92.05  18.2472  0 i
 92.1  39.4073  0 i
 92.15  19.0753  0 i
 92.2  19.6377  0 i
 92.25  32.1122  0 i
 92.3  26.8295  0 i
 92.35  33.0111  0 i
 92.4  28.1668  0 i
 92.45  22.4341  0 i
 92.5  33.7026  0 i
 92.55  24.1355  0 i
 92.6  33.0389  0 i
 92.65  24.1667  0 i
 92.7  24.3385  0 i
 92.75  30.835  0 i
 92.8  25.2868  0 i
 92.85  29.1244  0 i
 92.9  31.2018  0 i
 92.95  22.6405  0 i
 93  36.4589  0 i
 93.05  34.2499  0 i
 93.1  29.1906  0 i
 93.15  35.6837  0 i
 93.2  26.6075  0 i
 93.25  26.1509  0 i
 93.3  24.1886  0 i
 93.35  32.7878  0 i
 93.4  39.7836  0 i
 93.45  29.3814  0 i
 93.5  24.6123  0 i
 93.55  33.8032  0 i
 93.6  23.0171  0 i
 93.65  21.2983  0 i
 93.7  28.9659  0 i
 93.75  28.3609  0 i
 93.8  32.8217  0 i
 93.85  31.2419  0 i
 93.9  21.4341  0 i
 93.95  25.5093  0 i
 94  27.2661  0 i
 94.05  25.644  0 i
 94.1  24.5227  0 i
 94.15  24.2064  0 i
 94.2  25.5066  0 i
 94.25  27.6968  0 i
 94.3  28.1609  0 i
 94.35  25.5128  0 i
 94.4  35.67  0 i
 94.45  36.0063  0 i
 94.5  35.3023  0 i
 94.55  27.0782  0 i
 94.6  30.9756  0 i
 94.65  31.701  0 i
 94.7  27.7685  0 i
 94.75  32.2516  0 i
 94.8  35.6639  0 i
 94.85  23.0737  0 i
 94.9  18.0808  0 i
 94.95  27.779  0 i
 95  21.0026  0 i
 95.05  31.9888  0 i
 95.1  27.6618  0 i
 95.15  26.853  0 i
 95.2  24.8979  0 i
 95.25  16.161  0 i
 95.3  33.9919  0 i
 95.35  36.8922  0 i
 95.4  31.4088  0 i
 95.45  28.5101  0 i
 95.5  32.7952  0 i
 95.55  18.5245  0 i
 95.6  35.6347  0 i
 95.65  27.9967  0 i
 95.7  19.9529  0 i
 95.75  27.81  0 i
 95.8  24.2827  0 i
 95.85  29.1773  0 i
 95.9  32.1551  0 i
 95.95  24.9118  0 i
 96  32.0877  0 i
 96.05  26.0306  0 i
 96.1  29.6347  0 i
 96.15  23.3109  0 i
 96.2  28.5542  0 i
 96.25  28.7983  0 i
 96.3  33.5235  0 i
 96.35  30.1749  0 i
 96.4  28.2248  0 i
 96.45  28.2862  0 i
 96.5  29.6609  0 i
 96.55  30.3268  0 i
 96.6  23.2457  0 i
 96.65  30.7119  0 i
 96.7  40.6046  0 i
 96.75  32.7472  0 i
 96.8  30.7846  0 i
 96.85  30.5502  0 i
 96.9  33.5162  0 i
 96.95  20.4403  0 i
 97  30.1361  0 i
 97.05  22.7908  0 i
 97.1  26.8458  0 i
 97.15  32.2927  0 i
 97.2  37.1324  0 i
 97.25  30.2514  0 i
 97.3  27.2833  0 i
 97.35  33.3351  0 i
 97.4  31.1633  0 i
 97.45  30.5316  0 i
 97.5  19.8738  0 i
 97.55  34.7695  0 i
 97.6  21.5433  0 i
 97.65  27.5536  0 i
 97.7  25.4991  0 i
 97.75  31.0097  0 i
 97.8  21.6613  0 i
 97.85  24.6617  0 i
 97.9  33.8368  0 i
 97.95  29.5135  0 i
 98  28.9524  0 i
 98.05  19.7663  0 i
 98.1  29.2118  0 i
 98.15  31.4923  0 i
 98.2  23.7192  0 i
 98.25  27.7167  0 i
 98.3  31.827  0 i
 98.35  41.5629  0 i
 98.4  31.4551  0 i
 98.45  38.947  0 i
 98.5  57.2409  0 i
 98.55  85.4938  0 i
 98.6  115.367  0 i
 98.65  156.856  0 i
 98.7  147.729  0 i
 98.75  122.76  0 i
 98.8  65.673  0 i
 98.85  55.0961  0 i
 98.9  35.4974  0 i
 98.95  28.0958  0 i
 99  30.908  0 i
 99.05  35.398  0 i
 99.1  33.1299  0 i
 99.15  30.9651  0 i
 99.2  23.8135  0 i
 99.25  26.7496  0 i
 99.3  32.7623  0 i
 99.35  37.59  0 i
 99.4  40.1227  0 i
 99.45  29.6705  0 i
 99.5  32.74  0 i
 99.55  32.5025  0 i
 99.6  31.4304  0 i
 99.65  36.0374  0 i
 99.7  34.2956  0 i
 99.75  32.4053  0 i
 99.8  23.238  0 i
 99.85  34.1645  0 i
 99.9  23.6311  0 i
 99.95  24.2543  0 i
 100  37.6139  0 i
 100.05  26.7318  0 i
 100.1  35.1886  0 i
 100.15  45.4523  0 i
 100.2  31.3389  0 i
 100.25  27.9837  0 i
 100.3  21.9888  0 i
 100.35  38.0708  0 i
 100.4  37.9644  0 i
 100.45  32.6313  0 i
 100.5  16.2143  0 i
 100.55  27.6465  0 i
 100.6  24.2307  0 i
 100.65  30.5698  0 i
 100.7  24.7999  0 i
 100.75  33.0479  0 i
 100.8  31.9834  0 i
 100.85  26.046  0 i
 100.9  26.7544  0 i
 100.95  36.5208  0 i
 101  24.1909  0 i
 101.05  22.5301  0 i
 101.1  25.7035  0 i
 101.15  34.35  0 i
 101.2  34.261  0 i
 101.25  23.1959  0 i
 101.3  34.0567  0 i
 101.35  41.3161  0 i
 101.4  28.0962  0 i
 101.45  34.7219  0 i
 101.5  21.529  0 i
 101.55  26.0095  0 i
 101.6  29.7902  0 i
 101.65  31.926  0 i
 101.7  32.6851  0 i
 101.75  28.969  0 i
 101.8  31.0797  0 i
 101.85  32.7413  0 i
 101.9  31.1121  0 i
 101.95  36.8257  0 i
 102  34.5348  0 i
 102.05  24.5808  0 i
 102.1  22.9499  0 i
 102.15  26.5279  0 i
 102.2  26.8283  0 i
 102.25  25.3264  0 i
 102.3  23.6674  0 i
 102.35  32.6249  0 i
 102.4  25.3429  0 i
 102.45  28.172  0 i
 102.5  30.5665  0 i
 102.55  34.6746  0 i
 102.6  22.2231  0 i
 102.65  25.765  0 i
 102.7  22.7684  0 i
 102.75  32.722  0 i
 102.8  24.3412  0 i
 102.85  29.661  0 i
 102.9  27.4327  0 i
 102.95  24.9329  0 i
 103  33.1071  0 i
 103.05  32.239  0 i
 103.1  24.5397  0 i
 103.15  15.371  0 i
 103.2  26.5685  0 i
 103.25  31.506  0 i
 103.3  29.6205  0 i
 103.35  29.5575  0 i
 103.4  20.4643  0 i
 103.45  22.6017  0 i
 103.5  22.8468  0 i
 103.55  25.5034  0 i
 103.6  26.4417  0 i
 103.65  21.9004  0 i
 103.7  32.3386  0 i
 103.75  26.5944  0 i
 103.8  40.152  0 i
 103.85  36.2853  0 i
 103.9  37.978  0 i
 103.95  27.1818  0 i
 104  24.5745  0 i
 104.05  26.0252  0 i
 104.1  39.6331  0 i
 104.15  31.3546  0 i
 104.2  26.2789  0 i
 104.25  41.6629  0 i
 104.3  30.573  0 i
 104.35  31.7926  0 i
 104.4  40.0529  0 i
 104.45  33.9471  0 i
 104.5  33.8931  0 i
 104.55  28.278  0 i
 104.6  37.9661  0 i
 104.65  31.2089  0 i
 104.7  30.4465  0 i
 104.75  29.1021  0 i
 104.8  28.249  0 i
 104.85  28.717  0 i
 104.9  30.1052  0 i
 104.95  21.5808  0 i
 105  36.9656  0 i
 105.05  29.7299  0 i
 105.1  19.9581  0 i
 105.15  36.5201  0 i
 105.2  35.9961  0 i
 105.25  25.1138  0 i
 105.3  26.596  0 i
 105.35  25.7844  0 i
 105.4  30.3284  0 i
 105.45  23.6849  0 i
 105.5  25.5499  0 i
 105.55  29.0529  0 i
 105.6  24.4234  0 i
 105.65  30.4006  0 i
 105.7  23.9307  0 i
 105.75  22.9882  0 i
 105.8  29.5386  0 i
 105.85  22.6489  0 i
 105.9  22.0873  0 i
 105.95  23.2422  0 i
 106  30.8555  0 i
 106.05  30.4754  0 i
 106.1  30.0409  0 i
 106.15  23.2125  0 i
 106.2  26.2372  0 i
 106.25  38.3688  0 i
 106.3  32.7577  0 i
 106.35  27.4636  0 i
 106.4  36.0521  0 i
 106.45  35.7979  0 i
 106.5  35.9536  0 i
 106.55  31.4162  0 i
 106.6  30.7948  0 i
 106.65  24.8639  0 i
 106.7  42.3778  0 i
 106.75  25.6886  0 i
 106.8  17.8431  0 i
 106.85  35.0483  0 i
 106.9  28.7602  0 i
 106.95  25.0339  0 i
 107  22.3603  0 i
 107.05  33.4972  0 i
 107.1  27.2077  0 i
 107.15  23.1339  0 i
 107.2  28.838  0 i
 107.25  22.6284  0 i
 107.3  32.0148  0 i
 107.35  29.6601  0 i
 107.4  32.4046  0 i
 107.45  31.1249  0 i
 107.5  25.3883  0 i
 107.55  43.8498  0 i
 107.6  27.7553  0 i
 107.65  32.6297  0 i
 107.7  29.3392  0 i
 107.75  24.0696  0 i
 107.8  27.5552  0 i
 107.85  32.8388  0 i
 107.9  30.4384  0 i
 107.95  38.5729  0 i
 108  26.3048  0 i
 108.05  35.3381  0 i
 108.1  29.1944  0 i
 108.15  34.0859  0 i
 108.2  30.0735  0 i
 108.25  32.3093  0 i
 108.3  31.4437  0 i
 108.35  33.4525  0 i
 108.4  30.5434  0 i
 108.45  35.1114  0 i
 108.5  23.6495  0 i
 108.55  15.8991  0 i
 108.6  36.3611  0 i
 108.65  30.3142  0 i
 108.7  28.4262  0 i
 108.75  29.0667  0 i
 108.8  32.8716  0 i
 108.85  39.1036  0 i
 108.9  33.1374  0 i
 108.95  24.7225  0 i
 109  29.2366  0 i
 109.05  27.3902  0 i
 109.1  21.12  0 i
 109.15  29.2461  0 i
 109.2  31.9625  0 i
 109.25  31.4939  0 i
 109.3  29.8975  0 i
 109.35  32.9261  0 i
 109.4  33.98  0 i
 109.45  35.502  0 i
 109.5  24.1979  0 i
 109.55  23.9754  0 i
 109.6  24.1875  0 i
 109.65  28.0018  0 i
 109.7  22.4961  0 i
 109.75  35.8803  0 i
 109.8  24.6051  0 i
 109.85  27.8376  0 i
 109.9  19.595  0 i
 109.95  27.8451  0 i
 110  24.9646  0 i
 110.05  30.1839  0 i
 110.1  17.2614  0 i
 110.15  26.3731  0 i
 110.2  39.9385  0 i
 110.25  29.8491  0 i
 110.3  28.3705  0 i
 110.35  30.5425  0 i
 110.4  32.0876  0 i
 110.45  31.5844  0 i
 110.5  24.7087  0 i
 110.55  30.5014  0 i
 110.6  37.1717  0 i
 110.65  31.3611  0 i
 110.7  35.7454  0 i
 110.75  26.1635  0 i
 110.8  25.1402  0 i
 110.85  24.6652  0 i
 110.9  22.6999  0 i
 110.95  29.0987  0 i
 111  30.3296  0 i
 111.05  37.4775  0 i
 111.1  25.7631  0 i
 111.15  26.7481  0 i
 111.2  38.1199  0 i
 111.25  23.2748  0 i
 111.3  26.5836  0 i
 111.35  29.637  0 i
 111.4  27.0963  0 i
 111.45  28.7853  0 i
 111.5  26.5884  0 i
 111.55  29.4294  0 i
 111.6  26.25  0 i
 111.65  28.699  0 i
 111.7  40.0544  0 i
 111.75  20.229  0 i
 111.8  35.7299  0 i
 111.85  38.3736  0 i
 111.9  33.3061  0 i
 111.95  34.9499  0 i
 112  38.2692  0 i
 112.05  24.3576  0 i
 112.1  31.2411  0 i
 112.15  34.2165  0 i
 112.2  42.0011  0 i
 112.25  23.9651  0 i
 112.3  21.3219  0 i
 112.35  41.4546  0 i
 112.4  30.4882  0 i
 112.45  29.1701  0 i
 112.5  30.4228  0 i
 112.55  38.8622  0 i
 112.6  34.3217  0 i
 112.65  26.0683  0 i
 112.7  43.6789  0 i
 112.75  31.4811  0 i
 112.8  38.9568  0 i
 112.85  39.3646  0 i
 112.9  30.3836  0 i
 112.95  26.4027  0 i
 113  36.1399  0 i
 113.05  27.8584  0 i
 113.1  29.2025  0 i
 113.15  24.9994  0 i
 113.2  45.1126  0 i
 113.25  29.979  0 i
 113.3  19.1401  0 i
 113.35  29.9937  0 i
 113.4  23.5039  0 i
 113.45  29.1534  0 i
 113.5  19.2395  0 i
 113.55  23.0727  0 i
 113.6  21.7634  0 i
 113.65  23.8104  0 i
 113.7  34.0647  0 i
 113.75  29.1323  0 i
 113.8  27.6261  0 i
 113.85  30.4876  0 i
 113.9  30.478  0 i
 113.95  38.566  0 i
 114  25.4732  0 i
 114.05  36.8623  0 i
 114.1  32.1761  0 i
 114.15  32.8029  0 i
 114.2  35.355  0 i
 114.25  28.1879  0 i
 114.3  31.2361  0 i
 114.35  39.5752  0 i
 114.4  31.8727  0 i
 114.45  24.3242  0 i
 114.5  20.2491  0 i
 114.55  27.0855  0 i
 114.6  40.2661  0 i
 114.65  21.8724  0 i
 114.7  27.0359  0 i
 114.75  33.93  0 i
 114.8  32.7332  0 i
 114.85  26.9592  0 i
 114.9  25.9  0 i
 114.95  28.2055  0 i
 115  32.0601  0 i
 115.05  29.7483  0 i
 115.1  21.7983  0 i
 115.15  24.4092  0 i
 115.2  36.1589  0 i
 115.25  31.2491  0 i
 115.3  26.3334  0 i
 115.35  29.4396  0 i
 115.4  32.2019  0 i
 115.45  34.0388  0 i
 115.5  27.1977  0 i
 115.55  42.3649  0 i
 115.6  39.7019  0 i
 115.65  39.9087  0 i
 115.7  47.0646  0 i
 115.75  54.8006  0 i
 115.8  72.907  0 i
 115.85  83.8555  0 i
 115.9  112.478  0 i
 115.95  111.25  0 i
 116  136.003  0 i
 116.05  133.925  0 i
 116.1  98.7704  0 i
 116.15  90.7063  0 i
 116.2  65.9601  0 i
 116.25  49.2764  0 i
 116.3  48.6615  0 i
 116.35  44.8207  0 i
 116.4  36.8093  0 i
 116.45  37.6104  0 i
 116.5  34.1258  0 i
 116.55  33.0832  0 i
 116.6  44.112  0 i
 116.65  36.6207  0 i
 116.7  26.6359  0 i
 116.75  37.3534  0 i
 116.8  24.2569  0 i
 116.85  28.8975  0 i
 116.9  35.514  0 i
 116.95  26.8517  0 i
 117  24.2402  0 i
 117.05  24.0468  0 i
 117.1  19.9815  0 i
 117.15  34.1769  0 i
 117.2  40.3365  0 i
 117.25  27.1555  0 i
 117.3  22.7848  0 i
 117.35  37.3855  0 i
 117.4  34.6595  0 i
 117.45  24.4966  0 i
 117.5  31.5796  0 i
 117.55  35.3213  0 i
 117.6  26.4926  0 i
 117.65  28.2154  0 i
 117.7  35.9813  0 i
 117.75  31.0389  0 i
 117.8  27.7677  0 i
 117.85  25.8417  0 i
 117.9  34.9989  0 i
 117.95  30.1569  0 i
 118  29.2351  0 i
 118.05  29.0323  0 i
 118.1  18.1484  0 i
 118.15  26.2928  0 i
 118.2  30.5887  0 i
 118.25  28.6204  0 i
 118.3  28.006  0 i
 118.35  45.6841  0 i
 118.4  34.2812  0 i
 118.45  29.8247  0 i
 118.5  31.7343  0 i
 118.55  38.5642  0 i
 118.6  20.1228  0 i
 118.65  29.0365  0 i
 118.7  33.9755  0 i
 118.75  30.0216  0 i
 118.8  34.9817  0 i
 118.85  20.6243  0 i
 118.9  24.615  0 i
 118.95  25.762  0 i
 119  30.7953  0 i
 119.05  28.1767  0 i
 119.1  31.2361  0 i
 119.15  28.527  0 i
 119.2  32.0013  0 i
 119.25  25.3324  0 i
 119.3  27.8493  0 i
 119.35  28.3265  0 i
 119.4  33.3737  0 i
 119.45  28.3834  0 i
 119.5  28.5381  0 i
 119.55  27.9512  0 i
 119.6  22.9128  0 i
 119.65  28.5982  0 i
 119.7  31.2766  0 i
 119.75  36.5511  0 i
 119.8  35.1619  0 i
 119.85  24.1954  0 i
 119.9  25.7163  0 i
 119.95  22.0879  0 i
 120  30.5845  0 i
 120.05  20.6163  0 i
 120.1  34.4347  0 i
 120.15  26.3247  0 i
 120.2  34.8148  0 i
 120.25  33.0931  0 i
 120.3  32.1533  0 i
 120.35  33.7268  0 i
 120.4  37.2423  0 i
 120.45  28.1836  0 i
 120.5  23.7544  0 i
 120.55  31.1353  0 i
 120.6  24.4788  0 i
 120.65  37.2855  0 i
 120.7  26.8302  0 i
 120.75  27.9817  0 i
 120.8  23.8726  0 i
 120.85  25.7517  0 i
 120.9  39.0915  0 i
 120.95  37.2983  0 i
 121  36.2042  0 i
 121.05  27.6948  0 i
 121.1  36.3129  0 i
 121.15  34.5971  0 i
 121.2  25.5326  0 i
 121.25  37.1643  0 i
 121.3  29.3588  0 i
 121.35  24.8645  0 i
 121.4  27.7685  0 i
 121.45  29.82  0 i
 121.5  29.8764  0 i
 121.55  20.8052  0 i
 121.6  30.6477  0 i
 121.65  13.408  0 i
 121.7  29.5042  0 i
 121.75  28.2543  0 i
 121.8  28.4857  0 i
 121.85  28.9153  0 i
 121.9  29.2715  0 i
 121.95  26.652  0 i
 122  37.2446  0 i
 122.05  33.8112  0 i
 122.1  25.745  0 i
 122.15  29.8104  0 i
 122.2  25.9904  0 i
 122.25  23.5755  0 i
 122.3  31.0559  0 i
 122.35  28.568  0 i
 122.4  36.7669  0 i
 122.45  30.7356  0 i
 122.5  27.7624  0 i
 122.55  29.1866  0 i
 122.6  25.108  0 i
 122.65  18.7963  0 i
 122.7  22.803  0 i
 122.75  30.4884  0 i
 122.8  39.5634  0 i
 122.85  25.0482  0 i
 122.9  24.4196  0 i
 122.95  35.5477  0 i
 123  22.2327  0 i
 123.05  28.0845  0 i
 123.1  26.1101  0 i
 123.15  24.7827  0 i
 123.2  38.8524  0 i
 123.25  33.8066  0 i
 123.3  36.8706  0 i
 123.35  42.45  0 i
 123.4  32.5919  0 i
 123.45  28.403  0 i
 123.5  29.6118  0 i
 123.55  18.0601  0 i
 123.6  29.3528  0 i
 123.65  30.6935  0 i
 123.7  32.6095  0 i
 123.75  26.1197  0 i
 123.8  35.4842  0 i
 123.85  25.8159  0 i
 123.9  39.4691  0 i
 123.95  39.8784  0 i
 124  42.7036  0 i
 124.05  27.9124  0 i
 124.1  27.3377  0 i
 124.15  27.6754  0 i
 124.2  34.5481  0 i
 124.25  29.2779  0 i
 124.3  18.7385  0 i
 124.35  23.2404  0 i
 124.4  29.5191  0 i
 124.45  21.8672  0 i
 124.5  41.779  0 i
 124.55  27.6105  0 i
 124.6  33.0395  0 i
 124.65  28.1012  0 i
 124.7  28.7689  0 i
 124.75  45.421  0 i
 124.8  37.6046  0 i
 124.85  32.6446  0 i
 124.9  35.6473  0 i
 124.95  27.2066  0 i
 125  30.286  0 i
 125.05  35.4102  0 i
 125.1  28.3597  0 i
 125.15  29.9926  0 i
 125.2  19.8284  0 i
 125.25  24.3735  0 i
 125.3  39.9677  0 i
 125.35  36.2842  0 i
 125.4  24.2152  0 i
 125.45  30.1006  0 i
 125.5  28.387  0 i
 125.55  27.0411  0 i
 125.6  29.4434  0 i
 125.65  28.0901  0 i
 125.7  26.3632  0 i
 125.75  19.2167  0 i
 125.8  31.8859  0 i
 125.85  27.3556  0 i
 125.9  28.1579  0 i
 125.95  36.4946  0 i
 126  26.8919  0 i
 126.05  30.3115  0 i
 126.1  23.088  0 i
 126.15  28.3689  0 i
 126.2  27.1638  0 i
 126.25  32.4528  0 i
 126.3  33.6498  0 i
 126.35  43.4861  0 i
 126.4  31.4632  0 i
 126.45  40.9449  0 i
 126.5  27.6764  0 i
 126.55  22.9838  0 i
 126.6  27.4613  0 i
 126.65  29.3562  0 i
 126.7  36.0495  0 i
 126.75  28.9125  0 i
 126.8  16.0398  0 i
 126.85  35.8765  0 i
 126.9  29.4331  0 i
 126.95  24.403  0 i
 127  34.1376  0 i
 127.05  25.6167  0 i
 127.1  34.3029  0 i
 127.15  36.7644  0 i
 127.2  28.1333  0 i
 127.25  21.0447  0 i
 127.3  24.8546  0 i
 127.35  31.5802  0 i
 127.4  33.9457  0 i
 127.45  23.5705  0 i
 127.5  36.3034  0 i
 127.55  17.9101  0 i
 127.6  33.7853  0 i
 127.65  27.6084  0 i
 127.7  24.3039  0 i
 127.75  33.141  0 i
 127.8  37.4342  0 i
 127.85  32.0057  0 i
 127.9  25.0741  0 i
 127.95  25.6432  0 i
 128  32.331  0 i
 128.05  32.8212  0 i
 128.1  32.7388  0 i
 128.15  26.0449  0 i
 128.2  23.4091  0 i
 128.25  32.4518  0 i
 128.3  30.1929  0 i
 128.35  27.4722  0 i
 128.4  28.2924  0 i
 128.45  23.3468  0 i
 128.5  22.1619  0 i
 128.55  30.7195  0 i
 128.6  26.4798  0 i
 128.65  26.0079  0 i
 128.7  30.4827  0 i
 128.75  25.3449  0 i
 128.8  23.1399  0 i
 128.85  28.3942  0 i
 128.9  32.5802  0 i
 128.95  33.5426  0 i
 129  33.672  0 i
 129.05  45.8752  0 i
 129.1  34.5386  0 i
 129.15  36.9918  0 i
 129.2  38.7519  0 i
 129.25  29.0157  0 i
 129.3  28.8557  0 i
 129.35  22.8247  0 i
 129.4  28.3111  0 i
 129.45  29.7146  0 i
 129.5  35.59  0 i
 129.55  23.6041  0 i
 129.6  26.3904  0 i
 129.65  26.9477  0 i
 129.7  29.6519  0 i
 129.75  31.1914  0 i
 129.8  25.8217  0 i
 129.85  30.3402  0 i
 129.9  34.8032  0 i
 129.95  37.118  0 i
 130  23.4052  0 i

