
#Surface 0 of 1 surfaces

#IsoCurve 0, 1801 points
#x y z type
 40  37.7376  30.2388 i
 40.05  32.8109  30.2363 i
 40.1  35.5877  30.2337 i
 40.15  29.9465  30.2312 i
 40.2  38.4941  30.2287 i
 40.25  35.9873  30.2261 i
 40.3  36.8878  30.2236 i
 40.35  34.8807  30.2211 i
 40.4  31.6898  30.2185 i
 40.45  35.5314  30.216 i
 40.5  27.9957  30.2134 i
 40.55  37.2041  30.2109 i
 40.6  37.929  30.2083 i
 40.65  41.7227  30.2058 i
 40.7  43.4007  30.2032 i
 40.75  35.0683  30.2007 i
 40.8  30.4813  30.1981 i
 40.85  31.3025  30.1956 i
 40.9  33.0748  30.193 i
 40.95  33.1474  30.1904 i
 41  44.2541  30.1879 i
 41.05  27.4895  30.1853 i
 41.1  31.4599  30.1827 i
 41.15  37.6539  30.1802 i
 41.2  45.3231  30.1776 i
 41.25  42.1368  30.175 i
 41.3  35.8502  30.1725 i
 41.35  41.1699  30.1699 i
 41.4  32.5669  30.1673 i
 41.45  37.8588  30.1647 i
 41.5  45.4811  30.1622 i
 41.55  43.6928  30.1596 i
 41.6  47.4073  30.157 i
 41.65  42.6426  30.1544 i
 41.7  28.5613  30.1518 i
 41.75  34.6055  30.1493 i
 41.8  43.2384  30.1467 i
 41.85  40.2252  30.1441 i
 41.9  34.6421  30.1415 i
 41.95  36.5026  30.1389 i
 42  34.1863  30.1363 i
 42.05  41.4847  30.1337 i
 42.1  40.4098  30.1311 i
 42.15  34.8477  30.1285 i
 42.2  36.5292  30.1259 i
 42.25  50.1853  30.1233 i
 42.3  25.2395  30.1207 i
 42.35  32.9072  30.1181 i
 42.4  44.385  30.1155 i
 42.45  45.113  30.1129 i
 42.5  40.3258  30.1103 i
 42.55  39.1332  30.1077 i
 42.6  39.3882  30.1051 i
 42.65  42.2193  30.1025 i
 42.7  46.4961  30.0999 i
 42.75  40.9596  30.0972 i
 42.8  26.8247  30.0946 i
 42.85  42.589  30.092 i
 42.9  28.0782  30.0894 i
 42.95  34.1091  30.0868 i
 43  39.5615  30.0842 i
 43.05  44.0683  30.0815 i
 43.1  39.0578  30.0789 i
 43.15  36.9177  30.0763 i
 43.2  36.4638  30.0737 i
 43.25  33.6822  30.071 i
 43.3  37.422  30.0684 i
 43.35  45.4698  30.0658 i
 43.4  55.6737  30.0631 i
 43.45  35.4328  30.0605 i
 43.5  36.0097  30.0579 i
 43.55  36.9111  30.0552 i
 43.6  35.0404  30.0526 i
 43.65  35.3699  30.05 i
 43.7  39.0572  30.0473 i
 43.75  31.6294  30.0447 i
 43.8  34.5958  30.042 i
 43.85  37.903  30.0394 i
 43.9  29.7097  30.0368 i
 43.95  35.2241  30.0341 i
 44  40.4618  30.0315 i
 44.05  32.1102  30.0288 i
 44.1  49.8994  30.0262 i
 44.15  39.0702  30.0235 i
 44.2  56.2997  30.0209 i
 44.25  56.6419  30.0182 i
 44.3  77.8788  30.0156 i
 44.35  85.3703  30.0129 i
 44.4  139.071  30.0103 i
 44.45  363.966  30.0076 i
 44.5  1207.05  30.0049 i
 44.55  1802.43  30.0023 i
 44.6  1844.62  29.9996 i
 44.65  1022.65  29.997 i
 44.7  251.603  29.9943 i
 44.75  88.874  29.9916 i
 44.8  70.0504  29.989 i
 44.85  57.6528  29.9863 i
 44.9  44.2237  29.9836 i
 44.95  50.8111  29.981 i
 45  32.7903  29.9783 i
 45.05  38.9166  29.9756 i
 45.1  45.0589  29.973 i
 45.15  51.2416  29.9703 i
 45.2  35.0201  29.9676 i
 45.25  28.263  29.9649 i
 45.3  27.0194  29.9623 i
 45.35  32.2172  29.9596 i
 45.4  32.1268  29.9569 i
 45.45  32.4014  29.9542 i
 45.5  37.9811  29.9515 i
 45.55  33.8329  29.9489 i
 45.6  30.8753  29.9462 i
 45.65  36.1251  29.9435 i
 45.7  35.369  29.9408 i
 45.75  26.4417  29.9381 i
 45.8  25.2048  29.9354 i
 45.85  39.2651  29.9328 i
 45.9  39.9357  29.9301 i
 45.95  37.7356  29.9274 i
 46  35.9118  29.9247 i
 46.05  40.8132  29.922 i
 46.1  38.423  29.9193 i
 46.15  34.851  29.9166 i
 46.2  31.2257  29.9139 i
 46.25  25.683  29.9112 i
 46.3  19.7874  29.9085 i
 46.35  44.8191  29.9058 i
 46.4  34.625  29.9031 i
 46.45  50.4642  29.9004 i
 46.5  24.5853  29.8977 i
 46.55  32.3108  29.895 i
 46.6  30.2986  29.8923 i
 46.65  42.3736  29.8896 i
 46.7  32.8152  29.8869 i
 46.75  40.5812  29.8842 i
 46.8  44.0965  29.8815 i
 46.85  33.7078  29.8788 i
 46.9  49.2605  29.8761 i
 46.95  27.4622  29.8734 i
 47  39.4329  29.8707 i
 47.05  32.8084  29.868 i
 47.1  31.3788  29.8653 i
 47.15  31.0158  29.8626 i
 47.2  36.8521  29.8599 i
 47.25  35.4231  29.8572 i
 47.3  41.293  29.8544 i
 47.35  27.6444  29.8517 i
 47.4  27.6751  29.849 i
 47.45  30.5445  29.8463 i
 47.5  38.0393  29.8436 i
 47.55  33.8807  29.8409 i
 47.6  21.6314  29.8381 i
 47.65  35.0161  29.8354 i
 47.7  29.838  29.8327 i
 47.75  38.1761  29.83 i
 47.8  32.3377  29.8273 i
 47.85  44.7662  29.8246 i
 47.9  20.4439  29.8218 i
 47.95  24.0516  29.8191 i
 48  41.5349  29.8164 i
 48.05  34.606  29.8137 i
 48.1  42.5298  29.8109 i
 48.15  44.299  29.8082 i
 48.2  33.1329  29.8055 i
 48.25  35.8055  29.8028 i
 48.3  37.3676  29.8 i
 48.35  35.0923  29.7973 i
 48.4  46.3954  29.7946 i
 48.45  34.1682  29.7918 i
 48.5  37.6426  29.7891 i
 48.55  22.5027  29.7864 i
 48.6  35.7727  29.7836 i
 48.65  36.7579  29.7809 i
 48.7  40.5003  29.7782 i
 48.75  30.0663  29.7754 i
 48.8  26.9404  29.7727 i
 48.85  32.1592  29.77 i
 48.9  34.092  29.7672 i
 48.95  23.9242  29.7645 i
 49  37.7292  29.7618 i
 49.05  27.615  29.759 i
 49.1  35.2827  29.7563 i
 49.15  35.6353  29.7536 i
 49.2  25.4112  29.7508 i
 49.25  31.4784  29.7481 i
 49.3  36.5529  29.7453 i
 49.35  31.1698  29.7426 i
 49.4  37.531  29.7399 i
 49.45  29.3331  29.7371 i
 49.5  33.46  29.7344 i
 49.55  32.4249  29.7316 i
 49.6  33.9736  29.7289 i
 49.65  28.5264  29.7261 i
 49.7  37.1278  29.7234 i
 49.75  29.7649  29.7207 i
 49.8  32.4365  29.7179 i
 49.85  31.9243  29.7152 i
 49.9  23.5287  29.7124 i
 49.95  37.6173  29.7097 i
 50  35.3171  29.7069 i
 50.05  36.0773  29.7042 i
 50.1  26.7853  29.7014 i
 50.15  35.9585  29.6987 i
 50.2  25.3886  29.6959 i
 50.25  36.0658  29.6932 i
 50.3  25.6119  29.6904 i
 50.35  32.4784  29.6877 i
 50.4  30.41  29.6849 i
 50.45  23.9724  29.6822 i
 50.5  36.9127  29.6794 i
 50.55  31.0935  29.6767 i
 50.6  32.8801  29.6739 i
 50.65  32.5259  29.6712 i
 50.7  27.277  29.6684 i
 50.75  36.5218  29.6657 i
 50.8  31.2371  29.6629 i
 50.85  40.7306  29.6602 i
 50.9  23.1427  29.6574 i
 50.95  26.7945  29.6546 i
 51  41.2221  29.6519 i
 51.05  27.6125  29.6491 i
 51.1  35.0118  29.6464 i
 51.15  27.1553  29.6436 i
 51.2  25.6464  29.6409 i
 51.25  41.7218  29.6381 i
 51.3  26.5883  29.6354 i
 51.35  33.1464  29.6326 i
 51.4  40.8406  29.6298 i
 51.45  42.1806  29.6271 i
 51.5  21.7511  29.6243 i
 51.55  25.2994  29.6216 i
 51.6  37.2137  29.6188 i
 51.65  35.8849  29.616 i
 51.7  32.3595  29.6133 i
 51.75  33.5686  29.6105 i
 51.8  29.126  29.6078 i
 51.85  43.0031  29.605 i
 51.9  24.6882  29.6022 i
 51.95  36.5921  29.5995 i
 52  42.7987  29.5967 i
 52.05  36.6625  29.594 i
 52.1  22.8346  29.5912 i
 52.15  37.7661  29.5884 i
 52.2  30.7516  29.5857 i
 52.25  28.778  29.5829 i
 52.3  31.726  29.5802 i
 52.35  20.6266  29.5774 i
 52.4  25.799  29.5746 i
 52.45  43.6777  29.5719 i
 52.5  43.4859  29.5691 i
 52.55  34.1817  29.5663 i
 52.6  37.5789  29.5636 i
 52.65  35.0811  29.5608 i
 52.7  38.4695  29.5581 i
 52.75  20.2841  29.5553 i
 52.8  35.0666  29.5525 i
 52.85  24.8053  29.5498 i
 52.9  31.8759  29.547 i
 52.95  25.667  29.5442 i
 53  34.5043  29.5415 i
 53.05  34.9032  29.5387 i
 53.1  37.3951  29.5359 i
 53.15  35.1639  29.5332 i
 53.2  31.9651  29.5304 i
 53.25  31.2972  29.5276 i
 53.3  33.042  29.5249 i
 53.35  34.7414  29.5221 i
 53.4  24.6301  29.5194 i
 53.45  27.0601  29.5166 i
 53.5  30.7586  29.5138 i
 53.55  37.3433  29.5111 i
 53.6  28.0284  29.5083 i
 53.65  33.1463  29.5055 i
 53.7  29.2069  29.5028 i
 53.75  23.7404  29.5 i
 53.8  34.0201  29.4972 i
 53.85  33.3771  29.4945 i
 53.9  36.1714  29.4917 i
 53.95  32.0224  29.4889 i
 54  18.4755  29.4862 i
 54.05  24.42  29.4834 i
 54.1  37.3169  29.4806 i
 54.15  25.0694  29.4779 i
 54.2  35.2842  29.4751 i
 54.25  30.2782  29.4724 i
 54.3  38.6532  29.4696 i
 54.35  25.1066  29.4668 i
 54.4  34.3209  29.4641 i
 54.45  27.7838  29.4613 i
 54.5  26.1409  29.4585 i
 54.55  22.7002  29.4558 i
 54.6  22.708  29.453 i
 54.65  33.767  29.4502 i
 54.7  26.2835  29.4475 i
 54.75  31.5617  29.4447 i
 54.8  25.2919  29.4419 i
 54.85  23.485  29.4392 i
 54.9  23.3323  29.4364 i
 54.95  36.9836  29.4337 i
 55  25.9369  29.4309 i
 55.05  29.9921  29.4281 i
 55.1  26.761  29.4254 i
 55.15  30.3403  29.4226 i
 55.2  26.7542  29.4198 i
 55.25  33.2425  29.4171 i
 55.3  34.5835  29.4143 i
 55.35  28.4697  29.4116 i
 55.4  34.6721  29.4088 i
 55.45  30.2887  29.406 i
 55.5  22.893  29.4033 i
 55.55  38.4619  29.4005 i
 55.6  40.8176  29.3978 i
 55.65  43.3616  29.395 i
 55.7  26.9164  29.3922 i
 55.75  35.8687  29.3895 i
 55.8  32.2162  29.3867 i
 55.85  31.1503  29.384 i
 55.9  31.4584  29.3812 i
 55.95  42.7973  29.3784 i
 56  37.4963  29.3757 i
 56.05  21.6725  29.3729 i
 56.1  24.5465  29.3702 i
 56.15  25.1287  29.3674 i
 56.2  28.7921  29.3646 i
 56.25  29.341  29.3619 i
 56.3  24.4514  29.3591 i
 56.35  27.4585  29.3564 i
 56.4  23.1837  29.3536 i
 56.45  30.5186  29.3509 i
 56.5  25.8238  29.3481 i
 56.55  33.5211  29.3454 i
 56.6  29.8126  29.3426 i
 56.65  31.7204  29.3398 i
 56.7  34.2582  29.3371 i
 56.75  27.7858  29.3343 i
 56.8  30.8379  29.3316 i
 56.85  24.8712  29.3288 i
 56.9  33.855  29.3261 i
 56.95  38.7087  29.3233 i
 57  29.5111  29.3206 i
 57.05  27.8097  29.3178 i
 57.1  25.515  29.3151 i
 57.15  22.0998  29.3123 i
 57.2  25.24  29.3096 i
 57.25  22.3822  29.3068 i
 57.3  36.5325  29.3041 i
 57.35  25.3825  29.3013 i
 57.4  26.6448  29.2986 i
 57.45  35.8143  29.2958 i
 57.5  30.4792  29.2931 i
 57.55  29.927  29.2903 i
 57.6  27.3088  29.2876 i
 57.65  28.0774  29.2848 i
 57.7  34.0673  29.2821 i
 57.75  29.8284  29.2793 i
 57.8  32.2951  29.2766 i
 57.85  34.2697  29.2739 i
 57.9  35.3855  29.2711 i
 57.95  33.7489  29.2684 i
 58  21.6954  29.2656 i
 58.05  23.3122  29.2629 i
 58.1  27.9577  29.2601 i
 58.15  35.1412  29.2574 i
 58.2  22.1787  29.2547 i
 58.25  35.9756  29.2519 i
 58.3  32.386  29.2492 i
 58.35  31.4666  29.2464 i
 58.4  23.3722  29.2437 i
 58.45  34.1707  29.241 i
 58.5  39.975  29.2382 i
 58.55  23.6656  29.2355 i
 58.6  28.7687  29.2328 i
 58.65  33.4637  29.23 i
 58.7  41.9336  29.2273 i
 58.75  36.2552  29.2246 i
 58.8  31.1296  29.2218 i
 58.85  31.9199  29.2191 i
 58.9  22.1924  29.2164 i
 58.95  37.5065  29.2136 i
 59  29.085  29.2109 i
 59.05  25.7273  29.2082 i
 59.1  27.576  29.2054 i
 59.15  33.2922  29.2027 i
 59.2  31.8707  29.2 i
 59.25  33.3717  29.1972 i
 59.3  32.7354  29.1945 i
 59.35  24.7674  29.1918 i
 59.4  36.5382  29.1891 i
 59.45  34.1382  29.1863 i
 59.5  21.3268  29.1836 i
 59.55  29.2399  29.1809 i
 59.6  34.7249  29.1782 i
 59.65  32.9071  29.1754 i
 59.7  44.8452  29.1727 i
 59.75  24.0033  29.17 i
 59.8  30.1147  29.1673 i
 59.85  35.8813  29.1646 i
 59.9  39.5274  29.1619 i
 59.95  27.2971  29.1591 i
 60  36.7018  29.1564 i
 60.05  31.1471  29.1537 i
 60.1  35.1135  29.151 i
 60.15  37.4367  29.1483 i
 60.2  37.4205  29.1456 i
 60.25  23.0375  29.1428 i
 60.3  31.5996  29.1401 i
 60.35  27.4216  29.1374 i
 60.4  32.4049  29.1347 i
 60.45  29.7262  29.132 i
 60.5  35.6716  29.1293 i
 60.55  24.1489  29.1266 i
 60.6  28.9037  29.1239 i
 60.65  40.4236  29.1212 i
 60.7  29.6895  29.1185 i
 60.75  30.2529  29.1158 i
 60.8  32.232  29.1131 i
 60.85  27.1597  29.1104 i
 60.9  38.3939  29.1077 i
 60.95  33.0472  29.105 i
 61  23.7667  29.1023 i
 61.05  28.8676  29.0996 i
 61.1  27.743  29.0969 i
 61.15  35.4575  29.0942 i
 61.2  26.3765  29.0915 i
 61.25  35.4053  29.0888 i
 61.3  36.0536  29.0861 i
 61.35  29.9339  29.0834 i
 61.4  31.0116  29.0807 i
 61.45  39.1812  29.078 i
 61.5  30.4928  29.0753 i
 61.55  36.459  29.0726 i
 61.6  33.3714  29.0699 i
 61.65  42.5978  29.0672 i
 61.7  31.0029  29.0646 i
 61.75  26.0805  29.0619 i
 61.8  24.906  29.0592 i
 61.85  25.7472  29.0565 i
 61.9  37.0463  29.0538 i
 61.95  30.5263  29.0511 i
 62  24.8251  29.0485 i
 62.05  30.4435  29.0458 i
 62.1  26.0845  29.0431 i
 62.15  28.7283  29.0404 i
 62.2  27.6729  29.0377 i
 62.25  22.0894  29.0351 i
 62.3  32.7696  29.0324 i
 62.35  32.4049  29.0297 i
 62.4  33.5987  29.027 i
 62.45  22.1656  29.0244 i
 62.5  38.1069  29.0217 i
 62.55  38.4849  29.019 i
 62.6  37.8599  29.0164 i
 62.65  33.3187  29.0137 i
 62.7  23.0955  29.011 i
 62.75  24.6775  29.0084 i
 62.8  21.8114  29.0057 i
 62.85  20.3481  29.003 i
 62.9  26.0246  29.0004 i
 62.95  28.6771  28.9977 i
 63  22.6443  28.9951 i
 63.05  29.0287  28.9924 i
 63.1  24.2552  28.9897 i
 63.15  31.5427  28.9871 i
 63.2  30.6828  28.9844 i
 63.25  28.7101  28.9818 i
 63.3  19.5858  28.9791 i
 63.35  32.4102  28.9765 i
 63.4  26.6385  28.9738 i
 63.45  25.8704  28.9712 i
 63.5  34.5038  28.9685 i
 63.55  35.8603  28.9659 i
 63.6  28.6724  28.9632 i
 63.65  38.8254  28.9606 i
 63.7  36.7034  28.958 i
 63.75  28.6733  28.9553 i
 63.8  23.307  28.9527 i
 63.85  34.7415  28.95 i
 63.9  27.8415  28.9474 i
 63.95  40.0153  28.9448 i
 64  27.1203  28.9421 i
 64.05  26.5404  28.9395 i
 64.1  39.3394  28.9369 i
 64.15  25.3823  28.9342 i
 64.2  35.2172  28.9316 i
 64.25  47.7414  28.929 i
 64.3  20.3104  28.9263 i
 64.35  40.9753  28.9237 i
 64.4  28.6528  28.9211 i
 64.45  36.0457  28.9185 i
 64.5  35.9015  28.9158 i
 64.55  30.5959  28.9132 i
 64.6  44.4175  28.9106 i
 64.65  48.5983  28.908 i
 64.7  62.2925  28.9054 i
 64.75  99.1583  28.9028 i
 64.8  139.796  28.9001 i
 64.85  178.803  28.8975 i
 64.9  152.684  28.8949 i
 64.95  98.3337  28.8923 i
 65  60.4175  28.8897 i
 65.05  35.5056  28.8871 i
 65.1  28.8374  28.8845 i
 65.15  32.1666  28.8819 i
 65.2  31.7057  28.8793 i
 65.25  28.0828  28.8767 i
 65.3  27.713  28.8741 i
 65.35  20.0106  28.8715 i
 65.4  32.1795  28.8689 i
 65.45  26.8987  28.8663 i
 65.5  43.274  28.8637 i
 65.55  34.8862  28.8611 i
 65.6  33.4176  28.8585 i
 65.65  22.2665  28.8559 i
 65.7  35.4572  28.8533 i
 65.75  22.4754  28.8507 i
 65.8  23.4047  28.8482 i
 65.85  25.6879  28.8456 i
 65.9  39.4394  28.843 i
 65.95  35.1183  28.8404 i
 66  33.3038  28.8378 i
 66.05  30.2555  28.8353 i
 66.1  36.2756  28.8327 i
 66.15  29.3837  28.8301 i
 66.2  35.297  28.8275 i
 66.25  35.5857  28.825 i
 66.3  19.297  28.8224 i
 66.35  30.6236  28.8198 i
 66.4  36.6183  28.8173 i
 66.45  24.556  28.8147 i
 66.5  32.6001  28.8121 i
 66.55  28.7196  28.8096 i
 66.6  25.2223  28.807 i
 66.65  30.7403  28.8044 i
 66.7  44.3816  28.8019 i
 66.75  30.3827  28.7993 i
 66.8  31.8877  28.7968 i
 66.85  18.5228  28.7942 i
 66.9  29.3574  28.7917 i
 66.95  41.0351  28.7891 i
 67  39.0134  28.7866 i
 67.05  26.5733  28.784 i
 67.1  26.9688  28.7815 i
 67.15  29.9263  28.7789 i
 67.2  41.8321  28.7764 i
 67.25  25.0724  28.7739 i
 67.3  33.2888  28.7713 i
 67.35  43.2919  28.7688 i
 67.4  33.0451  28.7663 i
 67.45  36.8354  28.7637 i
 67.5  35.1003  28.7612 i
 67.55  34.6134  28.7587 i
 67.6  34.1279  28.7561 i
 67.65  34.4796  28.7536 i
 67.7  28.9904  28.7511 i
 67.75  36.7379  28.7486 i
 67.8  24.6282  28.746 i
 67.85  21.7961  28.7435 i
 67.9  27.3482  28.741 i
 67.95  28.59  28.7385 i
 68  26.2645  28.736 i
 68.05  34.2796  28.7335 i
 68.1  27.0176  28.731 i
 68.15  25.6028  28.7285 i
 68.2  34.775  28.7259 i
 68.25  31.0468  28.7234 i
 68.3  28.7079  28.7209 i
 68.35  30.4767  28.7184 i
 68.4  20.0254  28.7159 i
 68.45  27.7831  28.7134 i
 68.5  21.4094  28.7109 i
 68.55  38.9829  28.7085 i
 68.6  36.2588  28.706 i
 68.65  25.6091  28.7035 i
 68.7  31.6978  28.701 i
 68.75  30.0157  28.6985 i
 68.8  23.915  28.696 i
 68.85  24.274  28.6935 i
 68.9  36.0392  28.691 i
 68.95  38.8078  28.6886 i
 69  30.5248  28.6861 i
 69.05  27.4346  28.6836 i
 69.1  27.9387  28.6811 i
 69.15  27.9965  28.6787 i
 69.2  33.6584  28.6762 i
 69.25  37.0995  28.6737 i
 69.3  29.8467  28.6713 i
 69.35  28.0304  28.6688 i
 69.4  25.7722  28.6663 i
 69.45  28.7029  28.6639 i
 69.5  22.2671  28.6614 i
 69.55  33.3033  28.659 i
 69.6  33.023  28.6565 i
 69.65  34.5919  28.6541 i
 69.7  34.6437  28.6516 i
 69.75  25.9851  28.6492 i
 69.8  19.4337  28.6467 i
 69.85  33.7779  28.6443 i
 69.9  21.6524  28.6418 i
 69.95  25.1543  28.6394 i
 70  28.2704  28.637 i
 70.05  33.393  28.6345 i
 70.1  34.5659  28.6321 i
 70.15  32.7657  28.6297 i
 70.2  24.2446  28.6272 i
 70.25  29.8224  28.6248 i
 70.3  31.2279  28.6224 i
 70.35  47.1028  28.62 i
 70.4  30.2251  28.6175 i
 70.45  23.9536  28.6151 i
 70.5  27.0437  28.6127 i
 70.55  25.1122  28.6103 i
 70.6  21.8618  28.6079 i
 70.65  29.6092  28.6055 i
 70.7  20.9991  28.603 i
 70.75  27.6371  28.6006 i
 70.8  25.5704  28.5982 i
 70.85  22.359  28.5958 i
 70.9  24.1417  28.5934 i
 70.95  26.7585  28.591 i
 71  26.897  28.5886 i
 71.05  23.2804  28.5862 i
 71.1  30.1477  28.5838 i
 71.15  27.2262  28.5815 i
 71.2  30.597  28.5791 i
 71.25  26.1281  28.5767 i
 71.3  30.4555  28.5743 i
 71.35  28.9658  28.5719 i
 71.4  16.739  28.5695 i
 71.45  27.1836  28.5672 i
 71.5  26.1806  28.5648 i
 71.55  26.7449  28.5624 i
 71.6  24.8858  28.56 i
 71.65  30.1941  28.5577 i
 71.7  28.9919  28.5553 i
 71.75  29.0444  28.553 i
 71.8  29.6369  28.5506 i
 71.85  32.3099  28.5482 i
 71.9  27.7469  28.5459 i
 71.95  28.2978  28.5435 i
 72  32.1336  28.5412 i
 72.05  36.394  28.5388 i
 72.1  37.9104  28.5365 i
 72.15  30.279  28.5341 i
 72.2  27.814  28.5318 i
 72.25  28.1876  28.5294 i
 72.3  30.8002  28.5271 i
 72.35  19.9729  28.5248 i
 72.4  24.4732  28.5224 i
 72.45  34.954  28.5201 i
 72.5  29.1536  28.5178 i
 72.55  41.6115  28.5154 i
 72.6  28.5298  28.5131 i
 72.65  35.0347  28.5108 i
 72.7  32.502  28.5085 i
 72.75  23.418  28.5062 i
 72.8  30.5546  28.5038 i
 72.85  23.6432  28.5015 i
 72.9  35.8646  28.4992 i
 72.95  29.178  28.4969 i
 73  22.5019  28.4946 i
 73.05  36.7798  28.4923 i
 73.1  27.9084  28.49 i
 73.15  38.3437  28.4877 i
 73.2  35.9669  28.4854 i
 73.25  25.0144  28.4831 i
 73.3  23.5029  28.4808 i
 73.35  26.8407  28.4785 i
 73.4  35.3133  28.4762 i
 73.45  34.2184  28.474 i
 73.5  32.024  28.4717 i
 73.55  23.0846  28.4694 i
 73.6  27.2353  28.4671 i
 73.65  36.7775  28.4649 i
 73.7  35.2821  28.4626 i
 73.75  31.9912  28.4603 i
 73.8  19.9048  28.458 i
 73.85  32.8562  28.4558 i
 73.9  28.143  28.4535 i
 73.95  24.7635  28.4513 i
 74  21.8935  28.449 i
 74.05  33.3007  28.4467 i
 74.1  26.5886  28.4445 i
 74.15  25.2361  28.4422 i
 74.2  27.2156  28.44 i
 74.25  33.6623  28.4378 i
 74.3  26.0144  28.4355 i
 74.35  22.9719  28.4333 i
 74.4  20.0404  28.431 i
 74.45  30.4112  28.4288 i
 74.5  40.1764  28.4266 i
 74.55  31.808  28.4243 i
 74.6  31.5555  28.4221 i
 74.65  28.2875  28.4199 i
 74.7  34.6524  28.4177 i
 74.75  39.9004  28.4155 i
 74.8  30.5354  28.4132 i
 74.85  16.726  28.411 i
 74.9  33.6182  28.4088 i
 74.95  33.1505  28.4066 i
 75  24.8758  28.4044 i
 75.05  19.1531  28.4022 i
 75.1  21.9666  28.4 i
 75.15  30.0999  28.3978 i
 75.2  32.4756  28.3956 i
 75.25  37.6797  28.3934 i
 75.3  35.3967  28.3912 i
 75.35  18.5502  28.389 i
 75.4  34.4307  28.3868 i
 75.45  17.0197  28.3846 i
 75.5  27.6651  28.3824 i
 75.55  41.9044  28.3801 i
 75.6  26.6126  28.3779 i
 75.65  28.7621  28.3757 i
 75.7  31.2338  28.3735 i
 75.75  31.7793  28.3713 i
 75.8  36.47  28.369 i
 75.85  37.1754  28.3668 i
 75.9  29.2334  28.3646 i
 75.95  32.2885  28.3624 i
 76  25.5939  28.3601 i
 76.05  28.1639  28.3579 i
 76.1  30.9453  28.3557 i
 76.15  29.7972  28.3535 i
 76.2  35.1904  28.3512 i
 76.25  25.4269  28.349 i
 76.3  34.0464  28.3468 i
 76.35  25.1737  28.3445 i
 76.4  30.657  28.3423 i
 76.45  31.0504  28.34 i
 76.5  26.4296  28.3378 i
 76.55  31.1942  28.3356 i
 76.6  28.3525  28.3333 i
 76.65  30.5583  28.3311 i
 76.7  34.2794  28.3288 i
 76.75  34.0708  28.3266 i
 76.8  35.4531  28.3244 i
 76.85  24.0592  28.3221 i
 76.9  18.6781  28.3199 i
 76.95  30.8441  28.3176 i
 77  29.0393  28.3154 i
 77.05  26.2238  28.3131 i
 77.1  29.0038  28.3109 i
 77.15  31.4355  28.3086 i
 77.2  28.9966  28.3064 i
 77.25  30.9643  28.3042 i
 77.3  31.3986  28.3019 i
 77.35  35.148  28.2997 i
 77.4  33.2193  28.2974 i
 77.45  26.3137  28.2952 i
 77.5  27.7568  28.2929 i
 77.55  27.1191  28.2907 i
 77.6  35.5902  28.2884 i
 77.65  23.6808  28.2862 i
 77.7  25.2737  28.2839 i
 77.75  22.319  28.2817 i
 77.8  24.4156  28.2794 i
 77.85  31.2513  28.2772 i
 77.9  25.8385  28.2749 i
 77.95  26.444  28.2727 i
 78  25.3876  28.2704 i
 78.05  30.1499  28.2682 i
 78.1  26.8098  28.266 i
 78.15  26.5513  28.2637 i
 78.2  23.2634  28.2615 i
 78.25  30.1066  28.2592 i
 78.3  33.9448  28.257 i
 78.35  37.9343  28.2547 i
 78.4  31.0733  28.2525 i
 78.45  26.1433  28.2503 i
 78.5  29.5464  28.248 i
 78.55  33.9343  28.2458 i
 78.6  30.7746  28.2435 i
 78.65  28.4417  28.2413 i
 78.7  29.3213  28.2391 i
 78.75  25.2871  28.2368 i
 78.8  22.7669  28.2346 i
 78.85  29.1394  28.2324 i
 78.9  24.1758  28.2301 i
 78.95  22.4271  28.2279 i
 79  37.689  28.2257 i
 79.05  32.2242  28.2234 i
 79.1  29.8829  28.2212 i
 79.15  26.0062  28.219 i
 79.2  25.7886  28.2167 i
 79.25  27.4478  28.2145 i
 79.3  22.8436  28.2123 i
 79.35  28.4901  28.2101 i
 79.4  31.6721  28.2079 i
 79.45  30.8592  28.2056 i
 79.5  27.885  28.2034 i
 79.55  24.4419  28.2012 i
 79.6  29.6942  28.199 i
 79.65  32.9604  28.1968 i
 79.7  27.7984  28.1946 i
 79.75  29.6453  28.1924 i
 79.8  29.2785  28.1901 i
 79.85  24.2409  28.1879 i
 79.9  24.415  28.1857 i
 79.95  31.6139  28.1835 i
 80  35.1469  28.1813 i
 80.05  22.0593  28.1791 i
 80.1  17.9208  28.1769 i
 80.15  24.9229  28.1747 i
 80.2  30.5035  28.1726 i
 80.25  36.2585  28.1704 i
 80.3  36.4844  28.1682 i
 80.35  31.3539  28.166 i
 80.4  27.7252  28.1638 i
 80.45  28.0569  28.1616 i
 80.5  36.3997  28.1594 i
 80.55  37.7006  28.1573 i
 80.6  30.6094  28.1551 i
 80.65  27.131  28.1529 i
 80.7  34.9642  28.1508 i
 80.75  26.1676  28.1486 i
 80.8  31.7509  28.1464 i
 80.85  37.024  28.1443 i
 80.9  28.8018  28.1421 i
 80.95  35.8614  28.14 i
 81  32.0514  28.1378 i
 81.05  25.5614  28.1357 i
 81.1  29.3376  28.1335 i
 81.15  35.2838  28.1314 i
 81.2  44.8283  28.1292 i
 81.25  18.7945  28.1271 i
 81.3  26.6516  28.1249 i
 81.35  31.0767  28.1228 i
 81.4  23.9956  28.1207 i
 81.45  28.0002  28.1186 i
 81.5  34.0523  28.1164 i
 81.55  30.449  28.1143 i
 81.6  26.389  28.1122 i
 81.65  35.4042  28.1101 i
 81.7  45.2279  28.108 i
 81.75  27.7674  28.1059 i
 81.8  35.9837  28.1038 i
 81.85  36.5271  28.1017 i
 81.9  50.9373  28.0996 i
 81.95  63.1771  28.0975 i
 82  131.947  28.0954 i
 82.05  187.009  28.0933 i
 82.1  321.834  28.0912 i
 82.15  327.031  28.0891 i
 82.2  215.738  28.0871 i
 82.25  121.069  28.085 i
 82.3  62.1586  28.0829 i
 82.35  41.2631  28.0809 i
 82.4  39.1297  28.0788 i
 82.45  43.42  28.0768 i
 82.5  51.123  28.0747 i
 82.55  35.1307  28.0727 i
 82.6  32.0096  28.0706 i
 82.65  31.9104  28.0686 i
 82.7  41.8185  28.0665 i
 82.75  33.3131  28.0645 i
 82.8  29.4711  28.0625 i
 82.85  39.9086  28.0605 i
 82.9  32.4204  28.0584 i
 82.95  21.6246  28.0564 i
 83  24.7907  28.0544 i
 83.05  27.9458  28.0524 i
 83.1  34.242  28.0504 i
 83.15  22.771  28.0484 i
 83.2  27.7898  28.0464 i
 83.25  26.5384  28.0444 i
 83.3  27.0614  28.0425 i
 83.35  33.7155  28.0405 i
 83.4  29.3849  28.0385 i
 83.45  28.7194  28.0365 i
 83.5  24.7508  28.0346 i
 83.55  29.6907  28.0326 i
 83.6  32.0864  28.0307 i
 83.65  29.6402  28.0287 i
 83.7  26.8821  28.0268 i
 83.75  26.2376  28.0248 i
 83.8  26.2971  28.0229 i
 83.85  33.0337  28.021 i
 83.9  34.1938  28.0191 i
 83.95  33.6791  28.0171 i
 84  31.4829  28.0152 i
 84.05  31.244  28.0133 i
 84.1  32.0128  28.0114 i
 84.15  39.224  28.0095 i
 84.2  33.5611  28.0076 i
 84.25  25.4105  28.0057 i
 84.3  24.7032  28.0039 i
 84.35  22.6371  28.002 i
 84.4  18.0901  28.0001 i
 84.45  19.3703  27.9982 i
 84.5  30.3613  27.9964 i
 84.55  28.7753  27.9945 i
 84.6  32.6681  27.9927 i
 84.65  41.3601  27.9908 i
 84.7  28.7806  27.989 i
 84.75  30.8705  27.9872 i
 84.8  37.8951  27.9853 i
 84.85  26.0487  27.9835 i
 84.9  39.286  27.9817 i
 84.95  27.3358  27.9799 i
 85  28.5395  27.9781 i
 85.05  27.6767  27.9763 i
 85.1  28.0358  27.9745 i
 85.15  29.414  27.9727 i
 85.2  24.4936  27.971 i
 85.25  24.211  27.9692 i
 85.3  29.8423  27.9674 i
 85.35  30.6829  27.9657 i
 85.4  25.0123  27.9639 i
 85.45  27.8798  27.9622 i
 85.5  28.0352  27.9604 i
 85.55  37.5911  27.9587 i
 85.6  26.3702  27.957 i
 85.65  31.9803  27.9553 i
 85.7  30.3483  27.9535 i
 85.75  26.6331  27.9518 i
 85.8  23.846  27.9501 i
 85.85  32.6157  27.9485 i
 85.9  28.5491  27.9468 i
 85.95  22.7839  27.9451 i
 86  29.1007  27.9434 i
 86.05  31.5723  27.9417 i
 86.1  34.1119  27.9401 i
 86.15  21.213  27.9384 i
 86.2  40.1076  27.9368 i
 86.25  26.2214  27.9352 i
 86.3  27.3927  27.9335 i
 86.35  34.0584  27.9319 i
 86.4  29.9777  27.9303 i
 86.45  24.9745  27.9287 i
 86.5  21.7882  27.9271 i
 86.55  23.407  27.9255 i
 86.6  31.3557  27.9239 i
 86.65  25.3915  27.9223 i
 86.7  22.3505  27.9207 i
 86.75  33.9235  27.9192 i
 86.8  34.9803  27.9176 i
 86.85  30.6789  27.9161 i
 86.9  29.9799  27.9145 i
 86.95  24.5132  27.913 i
 87  34.8802  27.9115 i
 87.05  30.5989  27.9099 i
 87.1  22.4605  27.9084 i
 87.15  22.6691  27.9069 i
 87.2  19.4593  27.9054 i
 87.25  23.778  27.9039 i
 87.3  49.541  27.9025 i
 87.35  19.5671  27.901 i
 87.4  36.2286  27.8995 i
 87.45  32.2411  27.8981 i
 87.5  21.1344  27.8966 i
 87.55  27.7717  27.8952 i
 87.6  38.9235  27.8937 i
 87.65  34.5467  27.8923 i
 87.7  24.4204  27.8909 i
 87.75  28.735  27.8895 i
 87.8  42.7309  27.8881 i
 87.85  32.6047  27.8867 i
 87.9  25.4391  27.8853 i
 87.95  25.0247  27.8839 i
 88  28.9303  27.8826 i
 88.05  25.4222  27.8812 i
 88.1  22.6076  27.8799 i
 88.15  27.4964  27.8785 i
 88.2  19.2328  27.8772 i
 88.25  27.8255  27.8759 i
 88.3  39.131  27.8745 i
 88.35  30.9421  27.8732 i
 88.4  23.2413  27.8719 i
 88.45  28.3917  27.8707 i
 88.5  28.2342  27.8694 i
 88.55  26.8647  27.8681 i
 88.6  28.4936  27.8668 i
 88.65  24.4889  27.8656 i
 88.7  34.3753  27.8643 i
 88.75  29.5769  27.8631 i
 88.8  28.4172  27.8619 i
 88.85  26.3466  27.8607 i
 88.9  25.3073  27.8595 i
 88.95  27.4965  27.8583 i
 89  41.5162  27.8571 i
 89.05  33.0265  27.8559 i
 89.1  29.5572  27.8547 i
 89.15  28.7183  27.8536 i
 89.2  26.2359  27.8524 i
 89.25  33.9159  27.8513 i
 89.3  36.8975  27.8501 i
 89.35  25.8946  27.849 i
 89.4  14.027  27.8479 i
 89.45  28.4077  27.8468 i
 89.5  29.2799  27.8457 i
 89.55  31.3816  27.8446 i
 89.6  33.4733  27.8435 i
 89.65  24.0369  27.8425 i
 89.7  26.7872  27.8414 i
 89.75  27.4091  27.8404 i
 89.8  32.1378  27.8393 i
 89.85  28.5099  27.8383 i
 89.9  25.4387  27.8373 i
 89.95  31.075  27.8363 i
 90  24.9685  27.8353 i
 90.05  24.473  27.8343 i
 90.1  27.4742  27.8333 i
 90.15  25.2741  27.8324 i
 90.2  24.7715  27.8314 i
 90.25  28.0145  27.8305 i
 90.3  32.6709  27.8295 i
 90.35  35.0353  27.8286 i
 90.4  18.9217  27.8277 i
 90.45  27.0552  27.8268 i
 90.5  29.1496  27.8259 i
 90.55  37.9074  27.825 i
 90.6  30.3397  27.8241 i
 90.65  28.0958  27.8233 i
 90.7  27.1448  27.8224 i
 90.75  34.8198  27.8216 i
 90.8  30.4384  27.8207 i
 90.85  39.4472  27.8199 i
 90.9  28.6121  27.8191 i
 90.95  28.1046  27.8183 i
 91  29.1162  27.8175 i
 91.05  30.9675  27.8168 i
 91.1  32.9239  27.816 i
 91.15  31.2827  27.8152 i
 91.2  35.3804  27.8145 i
 91.25  30.2316  27.8138 i
 91.3  36.7595  27.813 i
 91.35  18.3368  27.8123 i
 91.4  25.2358  27.8116 i
 91.45  36.8061  27.811 i
 91.5  35.7498  27.8103 i
 91.55  26.359  27.8096 i
 91.6  25.2117  27.809 i
 91.65  34.4666  27.8083 i
 91.7  37.7172  27.8077 i
 91.75  21.3617  27.8071 i
 91.8  36.6418  27.8065 i
 91.85  25.8955  27.8059 i
 91.9  37.4415  27.8053 i
 91.95  19.6014  27.8047 i
 92  23.5583  27.8042 i
 92.05  18.2472  27.8036 i
 92.1  39.4073  27.8031 i
 92.15  19.0753  27.8025 i
 92.2  19.6377  27.802 i
 92.25  32.1122  27.8015 i
 92.3  26.8295  27.801 i
 92.35  33.0111  27.8006 i
 92.4  28.1668  27.8001 i
 92.45  22.4341  27.7996 i
 92.5  33.7026  27.7992 i
 92.55  24.1355  27.7987 i
 92.6  33.0389  27.7983 i
 92.65  24.1667  27.7978 i
 92.7  24.3385  27.7973 i
 92.75  30.835  27.7969 i
 92.8  25.2868  27.7964 i
 92.85  29.1244  27.796 i
 92.9  31.2018  27.7955 i
 92.95  22.6405  27.7951 i
 93  36.4589  27.7946 i
 93.05  34.2499  27.7942 i
 93.1  29.1906  27.7937 i
 93.15  35.6837  27.7933 i
 93.2  26.6075  27.7928 i
 93.25  26.1509  27.7924 i
 93.3  24.1886  27.7919 i
 93.35  32.7878  27.7915 i
 93.4  39.7836  27.791 i
 93.45  29.3814  27.7906 i
 93.5  24.6123  27.7902 i
 93.55  33.8032  27.7897 i
 93.6  23.0171  27.7893 i
 93.65  21.2983  27.7888 i
 93.7  28.9659  27.7884 i
 93.75  28.3609  27.788 i
 93.8  32.8217  27.7876 i
 93.85  31.2419  27.7871 i
 93.9  21.4341  27.7867 i
 93.95  25.5093  27.7863 i
 94  27.2661  27.7859 i
 94.05  25.644  27.7855 i
 94.1  24.5227  27.785 i
 94.15  24.2064  27.7846 i
 94.2  25.5066  27.7842 i
 94.25  27.6968  27.7838 i
 94.3  28.1609  27.7834 i
 94.35  25.5128  27.783 i
 94.4  35.67  27.7826 i
 94.45  36.0063  27.7822 i
 94.5  35.3023  27.7819 i
 94.55  27.0782  27.7815 i
 94.6  30.9756  27.7811 i
 94.65  31.701  27.7807 i
 94.7  27.7685  27.7804 i
 94.75  32.2516  27.78 i
 94.8  35.6639  27.7796 i
 94.85  23.0737  27.7793 i
 94.9  18.0808  27.7789 i
 94.95  27.779  27.7786 i
 95  21.0026  27.7782 i
 95.05  31.9888  27.7779 i
 95.1  27.6618  27.7775 i
 95.15  26.853  27.7772 i
 95.2  24.8979  27.7769 i
 95.25  16.161  27.7766 i
 95.3  33.9919  27.7762 i
 95.35  36.8922  27.7759 i
 95.4  31.4088  27.7756 i
 95.45  28.5101  27.7753 i
 95.5  32.7952  27.775 i
 95.55  18.5245  27.7747 i
 95.6  35.6347  27.7744 i
 95.65  27.9967  27.7742 i
 95.7  19.9529  27.7739 i
 95.75  27.81  27.7736 i
 95.8  24.2827  27.7734 i
 95.85  29.1773  27.7731 i
 95.9  32.1551  27.7729 i
 95.95  24.9118  27.7726 i
 96  32.0877  27.7724 i
 96.05  26.0306  27.7721 i
 96.1  29.6347  27.7719 i
 96.15  23.3109  27.7717 i
 96.2  28.5542  27.7715 i
 96.25  28.7983  27.7713 i
 96.3  33.5235  27.7711 i
 96.35  30.1749  27.7709 i
 96.4  28.2248  27.7707 i
 96.45  28.2862  27.7705 i
 96.5  29.6609  27.7704 i
 96.55  30.3268  27.7702 i
 96.6  23.2457  27.77 i
 96.65  30.7119  27.7699 i
 96.7  40.6046  27.7698 i
 96.75  32.7472  27.7696 i
 96.8  30.7846  27.7695 i
 96.85  30.5502  27.7694 i
 96.9  33.5162  27.7693 i
 96.95  20.4403  27.7692 i
 97  30.1361  27.7691 i
 97.05  22.7908  27.769 i
 97.1  26.8458  27.7689 i
 97.15  32.2927  27.7688 i
 97.2  37.1324  27.7688 i
 97.25  30.2514  27.7687 i
 97.3  27.2833  27.7687 i
 97.35  33.3351  27.7687 i
 97.4  31.1633  27.7686 i
 97.45  30.5316  27.7686 i
 97.5  19.8738  27.7686 i
 97.55  34.7695  27.7686 i
 97.6  21.5433  27.7686 i
 97.65  27.5536  27.7686 i
 97.7  25.4991  27.7687 i
 97.75  31.0097  27.7687 i
 97.8  21.6613  27.7688 i
 97.85  24.6617  27.7688 i
 97.9  33.8368  27.7689 i
 97.95  29.5135  27.769 i
 98  28.9524  27.769 i
 98.05  19.7663  27.7691 i
 98.1  29.2118  27.7693 i
 98.15  31.4923  27.7694 i
 98.2  23.7192  27.7695 i
 98.25  27.7167  27.7696 i
 98.3  31.827  27.7698 i
 98.35  41.5629  27.7699 i
 98.4  31.4551  27.7701 i
 98.45  38.947  27.7703 i
 98.5  57.2409  27.7705 i
 98.55  85.4938  27.7707 i
 98.6  115.367  27.7709 i
 98.65  156.856  27.7711 i
 98.7  147.729  27.7714 i
 98.75  122.76  27.7716 i
 98.8  65.673  27.7719 i
 98.85  55.0961  27.7721 i
 98.9  35.4974  27.7724 i
 98.95  28.0958  27.7727 i
 99  30.908  27.773 i
 99.05  35.398  27.7733 i
 99.1  33.1299  27.7737 i
 99.15  30.9651  27.774 i
 99.2  23.8135  27.7743 i
 99.25  26.7496  27.7747 i
 99.3  32.7623  27.7751 i
 99.35  37.59  27.7755 i
 99.4  40.1227  27.7759 i
 99.45  29.6705  27.7763 i
 99.5  32.74  27.7767 i
 99.55  32.5025  27.7772 i
 99.6  31.4304  27.7776 i
 99.65  36.0374  27.7781 i
 99.7  34.2956  27.7785 i
 99.75  32.4053  27.779 i
 99.8  23.238  27.7795 i
 99.85  34.1645  27.7801 i
 99.9  23.6311  27.7806 i
 99.95  24.2543  27.7811 i
 100  37.6139  27.7817 i
 100.05  26.7318  27.7823 i
 100.1  35.1886  27.7828 i
 100.15  45.4523  27.7834 i
 100.2  31.3389  27.784 i
 100.25  27.9837  27.7847 i
 100.3  21.9888  27.7853 i
 100.35  38.0708  27.786 i
 100.4  37.9644  27.7866 i
 100.45  32.6313  27.7873 i
 100.5  16.2143  27.788 i
 100.55  27.6465  27.7887 i
 100.6  24.2307  27.7895 i
 100.65  30.5698  27.7902 i
 100.7  24.7999  27.791 i
 100.75  33.0479  27.7917 i
 100.8  31.9834  27.7925 i
 100.85  26.046  27.7933 i
 100.9  26.7544  27.7941 i
 100.95  36.5208  27.795 i
 101  24.1909  27.7958 i
 101.05  22.5301  27.7967 i
 101.1  25.7035  27.7975 i
 101.15  34.35  27.7984 i
 101.2  34.261  27.7993 i
 101.25  23.1959  27.8003 i
 101.3  34.0567  27.8012 i
 101.35  41.3161  27.8022 i
 101.4  28.0962  27.8031 i
 101.45  34.7219  27.8041 i
 101.5  21.529  27.8051 i
 101.55  26.0095  27.8061 i
 101.6  29.7902  27.8072 i
 101.65  31.926  27.8082 i
 101.7  32.6851  27.8093 i
 101.75  28.969  27.8104 i
 101.8  31.0797  27.8115 i
 101.85  32.7413  27.8126 i
 101.9  31.1121  27.8138 i
 101.95  36.8257  27.8149 i
 102  34.5348  27.8161 i
 102.05  24.5808  27.8173 i
 102.1  22.9499  27.8185 i
 102.15  26.5279  27.8197 i
 102.2  26.8283  27.8209 i
 102.25  25.3264  27.8222 i
 102.3  23.6674  27.8235 i
 102.35  32.6249  27.8248 i
 102.4  25.3429  27.8261 i
 102.45  28.172  27.8274 i
 102.5  30.5665  27.8288 i
 102.55  34.6746  27.8301 i
 102.6  22.2231  27.8315 i
 102.65  25.765  27.8329 i
 102.7  22.7684  27.8343 i
 102.75  32.722  27.8358 i
 102.8  24.3412  27.8372 i
 102.85  29.661  27.8387 i
 102.9  27.4327  27.8402 i
 102.95  24.9329  27.8417 i
 103  33.1071  27.8432 i
 103.05  32.239  27.8448 i
 103.1  24.5397  27.8464 i
 103.15  15.371  27.848 i
 103.2  26.5685  27.8496 i
 103.25  31.506  27.8512 i
 103.3  29.6205  27.8528 i
 103.35  29.5575  27.8545 i
 103.4  20.4643  27.8562 i
 103.45  22.6017  27.8579 i
 103.5  22.8468  27.8596 i
 103.55  25.5034  27.8614 i
 103.6  26.4417  27.8631 i
 103.65  21.9004  27.8649 i
 103.7  32.3386  27.8667 i
 103.75  26.5944  27.8686 i
 103.8  40.152  27.8704 i
 103.85  36.2853  27.8723 i
 103.9  37.978  27.8742 i
 103.95  27.1818  27.8761 i
 104  24.5745  27.878 i
 104.05  26.0252  27.88 i
 104.1  39.6331  27.8819 i
 104.15  31.3546  27.8839 i
 104.2  26.2789  27.886 i
 104.25  41.6629  27.888 i
 104.3  30.573  27.89 i
 104.35  31.7926  27.8921 i
 104.4  40.0529  27.8942 i
 104.45  33.9471  27.8963 i
 104.5  33.8931  27.8985 i
 104.55  28.278  27.9007 i
 104.6  37.9661  27.9028 i
 104.65  31.2089  27.9051 i
 104.7  30.4465  27.9073 i
 104.75  29.1021  27.9095 i
 104.8  28.249  27.9118 i
 104.85  28.717  27.9141 i
 104.9  30.1052  27.9164 i
 104.95  21.5808  27.9188 i
 105  36.9656  27.9211 i
 105.05  29.7299  27.9235 i
 105.1  19.9581  27.9259 i
 105.15  36.5201  27.9284 i
 105.2  35.9961  27.9308 i
 105.25  25.1138  27.9333 i
 105.3  26.596  27.9358 i
 105.35  25.7844  27.9383 i
 105.4  30.3284  27.9409 i
 105.45  23.6849  27.9434 i
 105.5  25.5499  27.946 i
 105.55  29.0529  27.9487 i
 105.6  24.4234  27.9513 i
 105.65  30.4006  27.954 i
 105.7  23.9307  27.9567 i
 105.75  22.9882  27.9594 i
 105.8  29.5386  27.9621 i
 105.85  22.6489  27.9649 i
 105.9  22.0873  27.9677 i
 105.95  23.2422  27.9705 i
 106  30.8555  27.9733 i
 106.05  30.4754  27.9762 i
 106.1  30.0409  27.9791 i
 106.15  23.2125  27.982 i
 106.2  26.2372  27.9849 i
 106.25  38.3688  27.9879 i
 106.3  32.7577  27.9908 i
 106.35  27.4636  27.9938 i
 106.4  36.0521  27.9969 i
 106.45  35.7979  27.9999 i
 106.5  35.9536  28.003 i
 106.55  31.4162  28.0061 i
 106.6  30.7948  28.0093 i
 106.65  24.8639  28.0124 i
 106.7  42.3778  28.0156 i
 106.75  25.6886  28.0188 i
 106.8  17.8431  28.0221 i
 106.85  35.0483  28.0253 i
 106.9  28.7602  28.0286 i
 106.95  25.0339  28.0319 i
 107  22.3603  28.0353 i
 107.05  33.4972  28.0386 i
 107.1  27.2077  28.042 i
 107.15  23.1339  28.0455 i
 107.2  28.838  28.0489 i
 107.25  22.6284  28.0524 i
 107.3  32.0148  28.0559 i
 107.35  29.6601  28.0594 i
 107.4  32.4046  28.063 i
 107.45  31.1249  28.0665 i
 107.5  25.3883  28.0701 i
 107.55  43.8498  28.0738 i
 107.6  27.7553  28.0774 i
 107.65  32.6297  28.0811 i
 107.7  29.3392  28.0849 i
 107.75  24.0696  28.0886 i
 107.8  27.5552  28.0924 i
 107.85  32.8388  28.0962 i
 107.9  30.4384  28.1 i
 107.95  38.5729  28.1039 i
 108  26.3048  28.1077 i
 108.05  35.3381  28.1117 i
 108.1  29.1944  28.1156 i
 108.15  34.0859  28.1196 i
 108.2  30.0735  28.1236 i
 108.25  32.3093  28.1277 i
 108.3  31.4437  28.1318 i
 108.35  33.4525  28.1359 i
 108.4  30.5434  28.14 i
 108.45  35.1114  28.1442 i
 108.5  23.6495  28.1484 i
 108.55  15.8991  28.1526 i
 108.6  36.3611  28.1569 i
 108.65  30.3142  28.1612 i
 108.7  28.4262  28.1655 i
 108.75  29.0667  28.1699 i
 108.8  32.8716  28.1742 i
 108.85  39.1036  28.1787 i
 108.9  33.1374  28.1831 i
 108.95  24.7225  28.1876 i
 109  29.2366  28.1921 i
 109.05  27.3902  28.1966 i
 109.1  21.12  28.2012 i
 109.15  29.2461  28.2058 i
 109.2  31.9625  28.2104 i
 109.25  31.4939  28.2151 i
 109.3  29.8975  28.2197 i
 109.35  32.9261  28.2244 i
 109.4  33.98  28.2292 i
 109.45  35.502  28.2339 i
 109.5  24.1979  28.2387 i
 109.55  23.9754  28.2436 i
 109.6  24.1875  28.2484 i
 109.65  28.0018  28.2533 i
 109.7  22.4961  28.2582 i
 109.75  35.8803  28.2631 i
 109.8  24.6051  28.2681 i
 109.85  27.8376  28.2731 i
 109.9  19.595  28.2781 i
 109.95  27.8451  28.2832 i
 110  24.9646  28.2883 i
 110.05  30.1839  28.2934 i
 110.1  17.2614  28.2985 i
 110.15  26.3731  28.3036 i
 110.2  39.9385  28.3088 i
 110.25  29.8491  28.314 i
 110.3  28.3705  28.3193 i
 110.35  30.5425  28.3245 i
 110.4  32.0876  28.3298 i
 110.45  31.5844  28.3352 i
 110.5  24.7087  28.3405 i
 110.55  30.5014  28.3459 i
 110.6  37.1717  28.3513 i
 110.65  31.3611  28.3567 i
 110.7  35.7454  28.3621 i
 110.75  26.1635  28.3676 i
 110.8  25.1402  28.3731 i
 110.85  24.6652  28.3786 i
 110.9  22.6999  28.3842 i
 110.95  29.0987  28.3898 i
 111  30.3296  28.3954 i
 111.05  37.4775  28.401 i
 111.1  25.7631  28.4066 i
 111.15  26.7481  28.4123 i
 111.2  38.1199  28.418 i
 111.25  23.2748  28.4238 i
 111.3  26.5836  28.4295 i
 111.35  29.637  28.4353 i
 111.4  27.0963  28.4411 i
 111.45  28.7853  28.4469 i
 111.5  26.5884  28.4528 i
 111.55  29.4294  28.4586 i
 111.6  26.25  28.4645 i
 111.65  28.699  28.4704 i
 111.7  40.0544  28.4764 i
 111.75  20.229  28.4824 i
 111.8  35.7299  28.4883 i
 111.85  38.3736  28.4944 i
 111.9  33.3061  28.5004 i
 111.95  34.9499  28.5065 i
 112  38.2692  28.5125 i
 112.05  24.3576  28.5187 i
 112.1  31.2411  28.5248 i
 112.15  34.2165  28.5309 i
 112.2  42.0011  28.5371 i
 112.25  23.9651  28.5433 i
 112.3  21.3219  28.5495 i
 112.35  41.4546  28.5558 i
 112.4  30.4882  28.562 i
 112.45  29.1701  28.5683 i
 112.5  30.4228  28.5746 i
 112.55  38.8622  28.581 i
 112.6  34.3217  28.5873 i
 112.65  26.0683  28.5937 i
 112.7  43.6789  28.6001 i
 112.75  31.4811  28.6065 i
 112.8  38.9568  28.6129 i
 112.85  39.3646  28.6194 i
 112.9  30.3836  28.6259 i
 112.95  26.4027  28.6324 i
 113  36.1399  28.6389 i
 113.05  27.8584  28.6454 i
 113.1  29.2025  28.652 i
 113.15  24.9994  28.6586 i
 113.2  45.1126  28.6652 i
 113.25  29.979  28.6718 i
 113.3  19.1401  28.6785 i
 113.35  29.9937  28.6851 i
 113.4  23.5039  28.6918 i
 113.45  29.1534  28.6985 i
 113.5  19.2395  28.7052 i
 113.55  23.0727  28.712 i
 113.6  21.7634  28.7187 i
 113.65  23.8104  28.7255 i
 113.7  34.0647  28.7323 i
 113.75  29.1323  28.7391 i
 113.8  27.6261  28.746 i
 113.85  30.4876  28.7528 i
 113.9  30.478  28.7597 i
 113.95  38.566  28.7666 i
 114  25.4732  28.7735 i
 114.05  36.8623  28.7805 i
 114.1  32.1761  28.7874 i
 114.15  32.8029  28.7944 i
 114.2  35.355  28.8014 i
 114.25  28.1879  28.8084 i
 114.3  31.2361  28.8154 i
 114.35  39.5752  28.8224 i
 114.4  31.8727  28.8295 i
 114.45  24.3242  28.8366 i
 114.5  20.2491  28.8437 i
 114.55  27.0855  28.8508 i
 114.6  40.2661  28.8579 i
 114.65  21.8724  28.8651 i
 114.7  27.0359  28.8722 i
 114.75  33.93  28.8794 i
 114.8  32.7332  28.8866 i
 114.85  26.9592  28.8938 i
 114.9  25.9  28.9011 i
 114.95  28.2055  28.9083 i
 115  32.0601  28.9156 i
 115.05  29.7483  28.9228 i
 115.1  21.7983  28.9301 i
 115.15  24.4092  28.9374 i
 115.2  36.1589  28.9448 i
 115.25  31.2491  28.9521 i
 115.3  26.3334  28.9595 i
 115.35  29.4396  28.9669 i
 115.4  32.2019  28.9742 i
 115.45  34.0388  28.9817 i
 115.5  27.1977  28.9891 i
 115.55  42.3649  28.9965 i
 115.6  39.7019  29.004 i
 115.65  39.9087  29.0114 i
 115.7  47.0646  29.0189 i
 115.75  54.8006  29.0264 i
 115.8  72.907  29.0339 i
 115.85  83.8555  29.0414 i
 115.9  112.478  29.049 i
 115.95  111.25  29.0565 i
 116  136.003  29.0641 i
 116.05  133.925  29.0717 i
 116.1  98.7704  29.0793 i
 116.15  90.7063  29.0869 i
 116.2  65.9601  29.0945 i
 116.25  49.2764  29.1022 i
 116.3  48.6615  29.1098 i
 116.35  44.8207  29.1175 i
 116.4  36.8093  29.1251 i
 116.45  37.6104  29.1328 i
 116.5  34.1258  29.1405 i
 116.55  33.0832  29.1483 i
 116.6  44.112  29.156 i
 116.65  36.6207  29.1637 i
 116.7  26.6359  29.1715 i
 116.75  37.3534  29.1793 i
 116.8  24.2569  29.187 i
 116.85  28.8975  29.1948 i
 116.9  35.514  29.2026 i
 116.95  26.8517  29.2104 i
 117  24.2402  29.2183 i
 117.05  24.0468  29.2261 i
 117.1  19.9815  29.234 i
 117.15  34.1769  29.2418 i
 117.2  40.3365  29.2497 i
 117.25  27.1555  29.2576 i
 117.3  22.7848  29.2655 i
 117.35  37.3855  29.2734 i
 117.4  34.6595  29.2813 i
 117.45  24.4966  29.2892 i
 117.5  31.5796  29.2972 i
 117.55  35.3213  29.3051 i
 117.6  26.4926  29.3131 i
 117.65  28.2154  29.3211 i
 117.7  35.9813  29.3291 i
 117.75  31.0389  29.3371 i
 117.8  27.7677  29.3451 i
 117.85  25.8417  29.3531 i
 117.9  34.9989  29.3611 i
 117.95  30.1569  29.3691 i
 118  29.2351  29.3772 i
 118.05  29.0323  29.3852 i
 118.1  18.1484  29.3933 i
 118.15  26.2928  29.4014 i
 118.2  30.5887  29.4095 i
 118.25  28.6204  29.4175 i
 118.3  28.006  29.4256 i
 118.35  45.6841  29.4338 i
 118.4  34.2812  29.4419 i
 118.45  29.8247  29.45 i
 118.5  31.7343  29.4581 i
 118.55  38.5642  29.4663 i
 118.6  20.1228  29.4744 i
 118.65  29.0365  29.4826 i
 118.7  33.9755  29.4908 i
 118.75  30.0216  29.4989 i
 118.8  34.9817  29.5071 i
 118.85  20.6243  29.5153 i
 118.9  24.615  29.5235 i
 118.95  25.762  29.5317 i
 119  30.7953  29.5399 i
 119.05  28.1767  29.5482 i
 119.1  31.2361  29.5564 i
 119.15  28.527  29.5646 i
 119.2  32.0013  29.5729 i
 119.25  25.3324  29.5811 i
 119.3  27.8493  29.5894 i
 119.35  28.3265  29.5976 i
 119.4  33.3737  29.6059 i
 119.45  28.3834  29.6142 i
 119.5  28.5381  29.6225 i
 119.55  27.9512  29.6308 i
 119.6  22.9128  29.6391 i
 119.65  28.5982  29.6474 i
 119.7  31.2766  29.6557 i
 119.75  36.5511  29.664 i
 119.8  35.1619  29.6723 i
 119.85  24.1954  29.6806 i
 119.9  25.7163  29.689 i
 119.95  22.0879  29.6973 i
 120  30.5845  29.7057 i
 120.05  20.6163  29.714 i
 120.1  34.4347  29.7224 i
 120.15  26.3247  29.7307 i
 120.2  34.8148  29.7391 i
 120.25  33.0931  29.7474 i
 120.3  32.1533  29.7558 i
 120.35  33.7268  29.7642 i
 120.4  37.2423  29.7726 i
 120.45  28.1836  29.781 i
 120.5  23.7544  29.7893 i
 120.55  31.1353  29.7977 i
 120.6  24.4788  29.8061 i
 120.65  37.2855  29.8145 i
 120.7  26.8302  29.8229 i
 120.75  27.9817  29.8314 i
 120.8  23.8726  29.8398 i
 120.85  25.7517  29.8482 i
 120.9  39.0915  29.8566 i
 120.95  37.2983  29.865 i
 121  36.2042  29.8734 i
 121.05  27.6948  29.8819 i
 121.1  36.3129  29.8903 i
 121.15  34.5971  29.8987 i
 121.2  25.5326  29.9072 i
 121.25  37.1643  29.9156 i
 121.3  29.3588  29.9241 i
 121.35  24.8645  29.9325 i
 121.4  27.7685  29.9409 i
 121.45  29.82  29.9494 i
 121.5  29.8764  29.9578 i
 121.55  20.8052  29.9663 i
 121.6  30.6477  29.9748 i
 121.65  13.408  29.9832 i
 121.7  29.5042  29.9917 i
 121.75  28.2543  30.0001 i
 121.8  28.4857  30.0086 i
 121.85  28.9153  30.017 i
 121.9  29.2715  30.0255 i
 121.95  26.652  30.034 i
 122  37.2446  30.0424 i
 122.05  33.8112  30.0509 i
 122.1  25.745  30.0594 i
 122.15  29.8104  30.0678 i
 122.2  25.9904  30.0763 i
 122.25  23.5755  30.0848 i
 122.3  31.0559  30.0932 i
 122.35  28.568  30.1017 i
 122.4  36.7669  30.1102 i
 122.45  30.7356  30.1186 i
 122.5  27.7624  30.1271 i
 122.55  29.1866  30.1356 i
 122.6  25.108  30.144 i
 122.65  18.7963  30.1525 i
 122.7  22.803  30.161 i
 122.75  30.4884  30.1694 i
 122.8  39.5634  30.1779 i
 122.85  25.0482  30.1863 i
 122.9  24.4196  30.1948 i
 122.95  35.5477  30.2033 i
 123  22.2327  30.2117 i
 123.05  28.0845  30.2202 i
 123.1  26.1101  30.2286 i
 123.15  24.7827  30.2371 i
 123.2  38.8524  30.2455 i
 123.25  33.8066  30.254 i
 123.3  36.8706  30.2624 i
 123.35  42.45  30.2709 i
 123.4  32.5919  30.2793 i
 123.45  28.403  30.2878 i
 123.5  29.6118  30.2962 i
 123.55  18.0601  30.3046 i
 123.6  29.3528  30.3131 i
 123.65  30.6935  30.3215 i
 123.7  32.6095  30.3299 i
 123.75  26.1197  30.3383 i
 123.8  35.4842  30.3468 i
 123.85  25.8159  30.3552 i
 123.9  39.4691  30.3636 i
 123.95  39.8784  30.372 i
 124  42.7036  30.3804 i
 124.05  27.9124  30.3888 i
 124.1  27.3377  30.3972 i
 124.15  27.6754  30.4056 i
 124.2  34.5481  30.414 i
 124.25  29.2779  30.4224 i
 124.3  18.7385  30.4308 i
 124.35  23.2404  30.4392 i
 124.4  29.5191  30.4475 i
 124.45  21.8672  30.4559 i
 124.5  41.779  30.4643 i
 124.55  27.6105  30.4726 i
 124.6  33.0395  30.481 i
 124.65  28.1012  30.4893 i
 124.7  28.7689  30.4977 i
 124.75  45.421  30.506 i
 124.8  37.6046  30.5144 i
 124.85  32.6446  30.5227 i
 124.9  35.6473  30.531 i
 124.95  27.2066  30.5393 i
 125  30.286  30.5476 i
 125.05  35.4102  30.556 i
 125.1  28.3597  30.5643 i
 125.15  29.9926  30.5725 i
 125.2  19.8284  30.5808 i
 125.25  24.3735  30.5891 i
 125.3  39.9677  30.5974 i
 125.35  36.2842  30.6057 i
 125.4  24.2152  30.6139 i
 125.45  30.1006  30.6222 i
 125.5  28.387  30.6304 i
 125.55  27.0411  30.6387 i
 125.6  29.4434  30.6469 i
 125.65  28.0901  30.6551 i
 125.7  26.3632  30.6634 i
 125.75  19.2167  30.6716 i
 125.8  31.8859  30.6798 i
 125.85  27.3556  30.688 i
 125.9  28.1579  30.6962 i
 125.95  36.4946  30.7043 i
 126  26.8919  30.7125 i
 126.05  30.3115  30.7207 i
 126.1  23.088  30.7288 i
 126.15  28.3689  30.737 i
 126.2  27.1638  30.7451 i
 126.25  32.4528  30.7533 i
 126.3  33.6498  30.7614 i
 126.35  43.4861  30.7695 i
 126.4  31.4632  30.7776 i
 126.45  40.9449  30.7857 i
 126.5  27.6764  30.7938 i
 126.55  22.9838  30.8019 i
 126.6  27.4613  30.8099 i
 126.65  29.3562  30.818 i
 126.7  36.0495  30.826 i
 126.75  28.9125  30.8341 i
 126.8  16.0398  30.8421 i
 126.85  35.8765  30.8501 i
 126.9  29.4331  30.8581 i
 126.95  24.403  30.8661 i
 127  34.1376  30.8741 i
 127.05  25.6167  30.8821 i
 127.1  34.3029  30.8901 i
 127.15  36.7644  30.898 i
 127.2  28.1333  30.906 i
 127.25  21.0447  30.9139 i
 127.3  24.8546  30.9219 i
 127.35  31.5802  30.9298 i
 127.4  33.9457  30.9377 i
 127.45  23.5705  30.9456 i
 127.5  36.3034  30.9534 i
 127.55  17.9101  30.9613 i
 127.6  33.7853  30.9692 i
 127.65  27.6084  30.977 i
 127.7  24.3039  30.9849 i
 127.75  33.141  30.9927 i
 127.8  37.4342  31.0005 i
 127.85  32.0057  31.0083 i
 127.9  25.0741  31.0161 i
 127.95  25.6432  31.0239 i
 128  32.331  31.0316 i
 128.05  32.8212  31.0394 i
 128.1  32.7388  31.0471 i
 128.15  26.0449  31.0548 i
 128.2  23.4091  31.0625 i
 128.25  32.4518  31.0702 i
 128.3  30.1929  31.0779 i
 128.35  27.4722  31.0856 i
 128.4  28.2924  31.0933 i
 128.45  23.3468  31.1009 i
 128.5  22.1619  31.1085 i
 128.55  30.7195  31.1162 i
 128.6  26.4798  31.1238 i
 128.65  26.0079  31.1313 i
 128.7  30.4827  31.1389 i
 128.75  25.3449  31.1465 i
 128.8  23.1399  31.154 i
 128.85  28.3942  31.1616 i
 128.9  32.5802  31.1691 i
 128.95  33.5426  31.1766 i
 129  33.672  31.1841 i
 129.05  45.8752  31.1916 i
 129.1  34.5386  31.199 i
 129.15  36.9918  31.2065 i
 129.2  38.7519  31.2139 i
 129.25  29.0157  31.2213 i
 129.3  28.8557  31.2287 i
 129.35  22.8247  31.2361 i
 129.4  28.3111  31.2435 i
 129.45  29.7146  31.2508 i
 129.5  35.59  31.2582 i
 129.55  23.6041  31.2655 i
 129.6  26.3904  31.2728 i
 129.65  26.9477  31.2801 i
 129.7  29.6519  31.2873 i
 129.75  31.1914  31.2946 i
 129.8  25.8217  31.3018 i
 129.85  30.3402  31.3091 i
 129.9  34.8032  31.3163 i
 129.95  37.118  31.3235 i
 130  23.4052  31.3306 i

