
#Surface 0 of 1 surfaces

#IsoCurve 0, 1801 points
#x y z type
 40  37.7376  30.3058 i
 40.05  32.8109  30.3047 i
 40.1  35.5877  30.3035 i
 40.15  29.9465  30.3025 i
 40.2  38.4941  30.3015 i
 40.25  35.9873  30.3006 i
 40.3  36.8878  30.2996 i
 40.35  34.8807  30.2988 i
 40.4  31.6898  30.298 i
 40.45  35.5314  30.2974 i
 40.5  27.9957  30.2967 i
 40.55  37.2041  30.2961 i
 40.6  37.929  30.2956 i
 40.65  41.7227  30.2952 i
 40.7  43.4007  30.2948 i
 40.75  35.0683  30.2946 i
 40.8  30.4813  30.2944 i
 40.85  31.3025  30.2944 i
 40.9  33.0748  30.2944 i
 40.95  33.1474  30.2946 i
 41  44.2541  30.2948 i
 41.05  27.4895  30.2952 i
 41.1  31.4599  30.2957 i
 41.15  37.6539  30.2964 i
 41.2  45.3231  30.2971 i
 41.25  42.1368  30.298 i
 41.3  35.8502  30.2991 i
 41.35  41.1699  30.3005 i
 41.4  32.5669  30.3019 i
 41.45  37.8588  30.3036 i
 41.5  45.4811  30.3054 i
 41.55  43.6928  30.3075 i
 41.6  47.4073  30.3098 i
 41.65  42.6426  30.3124 i
 41.7  28.5613  30.3152 i
 41.75  34.6055  30.3185 i
 41.8  43.2384  30.3218 i
 41.85  40.2252  30.3258 i
 41.9  34.6421  30.3298 i
 41.95  36.5026  30.3346 i
 42  34.1863  30.3393 i
 42.05  41.4847  30.345 i
 42.1  40.4098  30.3507 i
 42.15  34.8477  30.3575 i
 42.2  36.5292  30.3642 i
 42.25  50.1853  30.3719 i
 42.3  25.2395  30.3803 i
 42.35  32.9072  30.3899 i
 42.4  44.385  30.3995 i
 42.45  45.113  30.4104 i
 42.5  40.3258  30.4223 i
 42.55  39.1332  30.4359 i
 42.6  39.3882  30.4496 i
 42.65  42.2193  30.4652 i
 42.7  46.4961  30.4823 i
 42.75  40.9596  30.5011 i
 42.8  26.8247  30.5218 i
 42.85  42.589  30.5458 i
 42.9  28.0782  30.5698 i
 42.95  34.1091  30.5993 i
 43  39.5615  30.6287 i
 43.05  44.0683  30.6633 i
 43.1  39.0578  30.702 i
 43.15  36.9177  30.7485 i
 43.2  36.4638  30.795 i
 43.25  33.6822  30.8574 i
 43.3  37.422  30.9198 i
 43.35  45.4698  31.0164 i
 43.4  55.6737  31.2788 i
 43.45  35.4328  31.6037 i
 43.5  36.0097  31.7845 i
 43.55  36.9111  31.9735 i
 43.6  35.0404  32.1626 i
 43.65  35.3699  32.4159 i
 43.7  39.0572  32.6691 i
 43.75  31.6294  33.0276 i
 43.8  34.5958  33.3861 i
 43.85  37.903  33.9193 i
 43.9  29.7097  34.4524 i
 43.95  35.2241  35.2971 i
 44  40.4618  36.1418 i
 44.05  32.1102  37.605 i
 44.1  49.8994  39.0683 i
 44.15  39.0702  41.4277 i
 44.2  56.2997  44.9178 i
 44.25  56.6419  50.5581 i
 44.3  77.8788  61.4915 i
 44.35  85.3703  90.8106 i
 44.4  139.071  182.629 i
 44.45  363.966  451.543 i
 44.5  1207.05  1015.91 i
 44.55  1802.43  1732.71 i
 44.6  1844.62  1942.67 i
 44.65  1022.65  1000.06 i
 44.7  251.603  250.783 i
 44.75  88.874  96.716 i
 44.8  70.0504  64.0223 i
 44.85  57.6528  51.5333 i
 44.9  44.2237  44.6211 i
 44.95  50.8111  40.7308 i
 45  32.7903  38.2291 i
 45.05  38.9166  36.7634 i
 45.1  45.0589  35.2977 i
 45.15  51.2416  34.3925 i
 45.2  35.0201  33.7026 i
 45.25  28.263  33.2193 i
 45.3  27.0194  32.736 i
 45.35  32.2172  32.4205 i
 45.4  32.1268  32.1049 i
 45.45  32.4014  31.8871 i
 45.5  37.9811  31.6693 i
 45.55  33.8329  31.5122 i
 45.6  30.8753  31.3552 i
 45.65  36.1251  31.2372 i
 45.7  35.369  31.1193 i
 45.75  26.4417  31.0034 i
 45.8  25.2048  30.8875 i
 45.85  39.2651  30.7891 i
 45.9  39.9357  30.6907 i
 45.95  37.7356  30.6354 i
 46  35.9118  30.5802 i
 46.05  40.8132  30.5358 i
 46.1  38.423  30.4914 i
 46.15  34.851  30.4547 i
 46.2  31.2257  30.418 i
 46.25  25.683  30.3872 i
 46.3  19.7874  30.3563 i
 46.35  44.8191  30.3289 i
 46.4  34.625  30.3036 i
 46.45  50.4642  30.2801 i
 46.5  24.5853  30.2582 i
 46.55  32.3108  30.2383 i
 46.6  30.2986  30.2185 i
 46.65  42.3736  30.2011 i
 46.7  32.8152  30.1836 i
 46.75  40.5812  30.1681 i
 46.8  44.0965  30.1526 i
 46.85  33.7078  30.1384 i
 46.9  49.2605  30.1248 i
 46.95  27.4622  30.1123 i
 47  39.4329  30.0998 i
 47.05  32.8084  30.0884 i
 47.1  31.3788  30.077 i
 47.15  31.0158  30.0666 i
 47.2  36.8521  30.0562 i
 47.25  35.4231  30.0466 i
 47.3  41.293  30.037 i
 47.35  27.6444  30.0282 i
 47.4  27.6751  30.0193 i
 47.45  30.5445  30.0111 i
 47.5  38.0393  30.0028 i
 47.55  33.8807  29.9951 i
 47.6  21.6314  29.9874 i
 47.65  35.0161  29.9802 i
 47.7  29.838  29.9729 i
 47.75  38.1761  29.9661 i
 47.8  32.3377  29.9593 i
 47.85  44.7662  29.9527 i
 47.9  20.4439  29.9464 i
 47.95  24.0516  29.9402 i
 48  41.5349  29.9341 i
 48.05  34.606  29.9282 i
 48.1  42.5298  29.9224 i
 48.15  44.299  29.9167 i
 48.2  33.1329  29.9112 i
 48.25  35.8055  29.9058 i
 48.3  37.3676  29.9004 i
 48.35  35.0923  29.8953 i
 48.4  46.3954  29.8901 i
 48.45  34.1682  29.8851 i
 48.5  37.6426  29.8801 i
 48.55  22.5027  29.8753 i
 48.6  35.7727  29.8705 i
 48.65  36.7579  29.8658 i
 48.7  40.5003  29.8611 i
 48.75  30.0663  29.8566 i
 48.8  26.9404  29.8521 i
 48.85  32.1592  29.8476 i
 48.9  34.092  29.8432 i
 48.95  23.9242  29.8389 i
 49  37.7292  29.8346 i
 49.05  27.615  29.8304 i
 49.1  35.2827  29.8262 i
 49.15  35.6353  29.8221 i
 49.2  25.4112  29.818 i
 49.25  31.4784  29.8146 i
 49.3  36.5529  29.8113 i
 49.35  31.1698  29.8073 i
 49.4  37.531  29.8034 i
 49.45  29.3331  29.7995 i
 49.5  33.46  29.7956 i
 49.55  32.4249  29.7918 i
 49.6  33.9736  29.788 i
 49.65  28.5264  29.7843 i
 49.7  37.1278  29.7805 i
 49.75  29.7649  29.7769 i
 49.8  32.4365  29.7732 i
 49.85  31.9243  29.7695 i
 49.9  23.5287  29.7659 i
 49.95  37.6173  29.7623 i
 50  35.3171  29.7587 i
 50.05  36.0773  29.7552 i
 50.1  26.7853  29.7516 i
 50.15  35.9585  29.7481 i
 50.2  25.3886  29.7446 i
 50.25  36.0658  29.7412 i
 50.3  25.6119  29.7377 i
 50.35  32.4784  29.7343 i
 50.4  30.41  29.7308 i
 50.45  23.9724  29.7275 i
 50.5  36.9127  29.7241 i
 50.55  31.0935  29.7207 i
 50.6  32.8801  29.7173 i
 50.65  32.5259  29.714 i
 50.7  27.277  29.7107 i
 50.75  36.5218  29.7074 i
 50.8  31.2371  29.7041 i
 50.85  40.7306  29.7008 i
 50.9  23.1427  29.6975 i
 50.95  26.7945  29.6943 i
 51  41.2221  29.691 i
 51.05  27.6125  29.6878 i
 51.1  35.0118  29.6845 i
 51.15  27.1553  29.6813 i
 51.2  25.6464  29.6781 i
 51.25  41.7218  29.6749 i
 51.3  26.5883  29.6717 i
 51.35  33.1464  29.6686 i
 51.4  40.8406  29.6654 i
 51.45  42.1806  29.6622 i
 51.5  21.7511  29.6591 i
 51.55  25.2994  29.656 i
 51.6  37.2137  29.6528 i
 51.65  35.8849  29.6497 i
 51.7  32.3595  29.6466 i
 51.75  33.5686  29.6435 i
 51.8  29.126  29.6404 i
 51.85  43.0031  29.6373 i
 51.9  24.6882  29.6342 i
 51.95  36.5921  29.6311 i
 52  42.7987  29.628 i
 52.05  36.6625  29.625 i
 52.1  22.8346  29.6219 i
 52.15  37.7661  29.6189 i
 52.2  30.7516  29.6158 i
 52.25  28.778  29.6128 i
 52.3  31.726  29.6097 i
 52.35  20.6266  29.6067 i
 52.4  25.799  29.6037 i
 52.45  43.6777  29.6007 i
 52.5  43.4859  29.5976 i
 52.55  34.1817  29.5946 i
 52.6  37.5789  29.5916 i
 52.65  35.0811  29.5886 i
 52.7  38.4695  29.5856 i
 52.75  20.2841  29.5826 i
 52.8  35.0666  29.5796 i
 52.85  24.8053  29.5767 i
 52.9  31.8759  29.5737 i
 52.95  25.667  29.5707 i
 53  34.5043  29.5677 i
 53.05  34.9032  29.5648 i
 53.1  37.3951  29.5618 i
 53.15  35.1639  29.5589 i
 53.2  31.9651  29.5559 i
 53.25  31.2972  29.553 i
 53.3  33.042  29.55 i
 53.35  34.7414  29.5471 i
 53.4  24.6301  29.5441 i
 53.45  27.0601  29.5412 i
 53.5  30.7586  29.5383 i
 53.55  37.3433  29.5353 i
 53.6  28.0284  29.5324 i
 53.65  33.1463  29.5295 i
 53.7  29.2069  29.5266 i
 53.75  23.7404  29.5236 i
 53.8  34.0201  29.5207 i
 53.85  33.3771  29.5178 i
 53.9  36.1714  29.5149 i
 53.95  32.0224  29.512 i
 54  18.4755  29.5091 i
 54.05  24.42  29.5062 i
 54.1  37.3169  29.5033 i
 54.15  25.0694  29.5004 i
 54.2  35.2842  29.4975 i
 54.25  30.2782  29.4946 i
 54.3  38.6532  29.4917 i
 54.35  25.1066  29.4889 i
 54.4  34.3209  29.486 i
 54.45  27.7838  29.4831 i
 54.5  26.1409  29.4802 i
 54.55  22.7002  29.4774 i
 54.6  22.708  29.4745 i
 54.65  33.767  29.4716 i
 54.7  26.2835  29.4688 i
 54.75  31.5617  29.4659 i
 54.8  25.2919  29.463 i
 54.85  23.485  29.4602 i
 54.9  23.3323  29.4573 i
 54.95  36.9836  29.4545 i
 55  25.9369  29.4516 i
 55.05  29.9921  29.4488 i
 55.1  26.761  29.4459 i
 55.15  30.3403  29.4431 i
 55.2  26.7542  29.4402 i
 55.25  33.2425  29.4374 i
 55.3  34.5835  29.4345 i
 55.35  28.4697  29.4317 i
 55.4  34.6721  29.4289 i
 55.45  30.2887  29.426 i
 55.5  22.893  29.4232 i
 55.55  38.4619  29.4204 i
 55.6  40.8176  29.4176 i
 55.65  43.3616  29.4147 i
 55.7  26.9164  29.4119 i
 55.75  35.8687  29.4091 i
 55.8  32.2162  29.4063 i
 55.85  31.1503  29.4035 i
 55.9  31.4584  29.4006 i
 55.95  42.7973  29.3978 i
 56  37.4963  29.395 i
 56.05  21.6725  29.3922 i
 56.1  24.5465  29.3894 i
 56.15  25.1287  29.3866 i
 56.2  28.7921  29.3838 i
 56.25  29.341  29.381 i
 56.3  24.4514  29.3782 i
 56.35  27.4585  29.3754 i
 56.4  23.1837  29.3726 i
 56.45  30.5186  29.3698 i
 56.5  25.8238  29.367 i
 56.55  33.5211  29.3642 i
 56.6  29.8126  29.3614 i
 56.65  31.7204  29.3587 i
 56.7  34.2582  29.3559 i
 56.75  27.7858  29.3531 i
 56.8  30.8379  29.3503 i
 56.85  24.8712  29.3475 i
 56.9  33.855  29.3448 i
 56.95  38.7087  29.342 i
 57  29.5111  29.3392 i
 57.05  27.8097  29.3364 i
 57.1  25.515  29.3337 i
 57.15  22.0998  29.3309 i
 57.2  25.24  29.3281 i
 57.25  22.3822  29.3254 i
 57.3  36.5325  29.3226 i
 57.35  25.3825  29.3199 i
 57.4  26.6448  29.3171 i
 57.45  35.8143  29.3144 i
 57.5  30.4792  29.3116 i
 57.55  29.927  29.3089 i
 57.6  27.3088  29.3061 i
 57.65  28.0774  29.3034 i
 57.7  34.0673  29.3006 i
 57.75  29.8284  29.2979 i
 57.8  32.2951  29.2951 i
 57.85  34.2697  29.2924 i
 57.9  35.3855  29.2897 i
 57.95  33.7489  29.2869 i
 58  21.6954  29.2842 i
 58.05  23.3122  29.2815 i
 58.1  27.9577  29.2788 i
 58.15  35.1412  29.276 i
 58.2  22.1787  29.2733 i
 58.25  35.9756  29.2706 i
 58.3  32.386  29.2679 i
 58.35  31.4666  29.2652 i
 58.4  23.3722  29.2625 i
 58.45  34.1707  29.2598 i
 58.5  39.975  29.2571 i
 58.55  23.6656  29.2544 i
 58.6  28.7687  29.2517 i
 58.65  33.4637  29.249 i
 58.7  41.9336  29.2463 i
 58.75  36.2552  29.2436 i
 58.8  31.1296  29.2409 i
 58.85  31.9199  29.2382 i
 58.9  22.1924  29.2355 i
 58.95  37.5065  29.2329 i
 59  29.085  29.2302 i
 59.05  25.7273  29.2275 i
 59.1  27.576  29.2248 i
 59.15  33.2922  29.2222 i
 59.2  31.8707  29.2195 i
 59.25  33.3717  29.2169 i
 59.3  32.7354  29.2142 i
 59.35  24.7674  29.2116 i
 59.4  36.5382  29.2089 i
 59.45  34.1382  29.2063 i
 59.5  21.3268  29.2036 i
 59.55  29.2399  29.201 i
 59.6  34.7249  29.1984 i
 59.65  32.9071  29.1957 i
 59.7  44.8452  29.1931 i
 59.75  24.0033  29.1905 i
 59.8  30.1147  29.1879 i
 59.85  35.8813  29.1853 i
 59.9  39.5274  29.1827 i
 59.95  27.2971  29.1728 i
 60  36.7018  29.1628 i
 60.05  31.1471  29.1602 i
 60.1  35.1135  29.1577 i
 60.15  37.4367  29.1551 i
 60.2  37.4205  29.1525 i
 60.25  23.0375  29.1499 i
 60.3  31.5996  29.1474 i
 60.35  27.4216  29.1448 i
 60.4  32.4049  29.1423 i
 60.45  29.7262  29.1397 i
 60.5  35.6716  29.1372 i
 60.55  24.1489  29.1347 i
 60.6  28.9037  29.1321 i
 60.65  40.4236  29.1296 i
 60.7  29.6895  29.1271 i
 60.75  30.2529  29.1246 i
 60.8  32.232  29.1221 i
 60.85  27.1597  29.1197 i
 60.9  38.3939  29.1172 i
 60.95  33.0472  29.1147 i
 61  23.7667  29.1123 i
 61.05  28.8676  29.1098 i
 61.1  27.743  29.1074 i
 61.15  35.4575  29.105 i
 61.2  26.3765  29.1026 i
 61.25  35.4053  29.1002 i
 61.3  36.0536  29.0978 i
 61.35  29.9339  29.0955 i
 61.4  31.0116  29.0931 i
 61.45  39.1812  29.0908 i
 61.5  30.4928  29.0885 i
 61.55  36.459  29.0862 i
 61.6  33.3714  29.0839 i
 61.65  42.5978  29.0817 i
 61.7  31.0029  29.0794 i
 61.75  26.0805  29.0772 i
 61.8  24.906  29.0751 i
 61.85  25.7472  29.0729 i
 61.9  37.0463  29.0708 i
 61.95  30.5263  29.0687 i
 62  24.8251  29.0666 i
 62.05  30.4435  29.0646 i
 62.1  26.0845  29.0626 i
 62.15  28.7283  29.0607 i
 62.2  27.6729  29.0588 i
 62.25  22.0894  29.057 i
 62.3  32.7696  29.0552 i
 62.35  32.4049  29.0534 i
 62.4  33.5987  29.0517 i
 62.45  22.1656  29.0502 i
 62.5  38.1069  29.0486 i
 62.55  38.4849  29.0472 i
 62.6  37.8599  29.0457 i
 62.65  33.3187  29.0445 i
 62.7  23.0955  29.0433 i
 62.75  24.6775  29.0423 i
 62.8  21.8114  29.0413 i
 62.85  20.3481  29.0405 i
 62.9  26.0246  29.0398 i
 62.95  28.6771  29.0394 i
 63  22.6443  29.0391 i
 63.05  29.0287  29.0391 i
 63.1  24.2552  29.0392 i
 63.15  31.5427  29.0398 i
 63.2  30.6828  29.0404 i
 63.25  28.7101  29.0418 i
 63.3  19.5858  29.0432 i
 63.35  32.4102  29.0456 i
 63.4  26.6385  29.0481 i
 63.45  25.8704  29.0527 i
 63.5  34.5038  29.0573 i
 63.55  35.8603  29.0727 i
 63.6  28.6724  29.088 i
 63.65  38.8254  29.1239 i
 63.7  36.7034  29.1597 i
 63.75  28.6733  29.1858 i
 63.8  23.307  29.2118 i
 63.85  34.7415  29.2394 i
 63.9  27.8415  29.2669 i
 63.95  40.0153  29.3052 i
 64  27.1203  29.3435 i
 64.05  26.5404  29.4 i
 64.1  39.3394  29.4564 i
 64.15  25.3823  29.5441 i
 64.2  35.2172  29.6318 i
 64.25  47.7414  29.7579 i
 64.3  20.3104  29.9244 i
 64.35  40.9753  30.1967 i
 64.4  28.6528  30.469 i
 64.45  36.0457  31.0868 i
 64.5  35.9015  31.7046 i
 64.55  30.5959  33.9391 i
 64.6  44.4175  36.1735 i
 64.65  48.5983  44.5891 i
 64.7  62.2925  63.1351 i
 64.75  99.1583  100.838 i
 64.8  139.796  149.231 i
 64.85  178.803  175.505 i
 64.9  152.684  150.987 i
 64.95  98.3337  97.7845 i
 65  60.4175  57.9113 i
 65.05  35.5056  40.3894 i
 65.1  28.8374  34.3013 i
 65.15  32.1666  32.6349 i
 65.2  31.7057  30.9685 i
 65.25  28.0828  30.4917 i
 65.3  27.713  30.0148 i
 65.35  20.0106  29.8057 i
 65.4  32.1795  29.5965 i
 65.45  26.8987  29.4844 i
 65.5  43.274  29.3723 i
 65.55  34.8862  29.3045 i
 65.6  33.4176  29.2367 i
 65.65  22.2665  29.1921 i
 65.7  35.4572  29.1475 i
 65.75  22.4754  29.1162 i
 65.8  23.4047  29.085 i
 65.85  25.6879  29.0616 i
 65.9  39.4394  29.0383 i
 65.95  35.1183  29.017 i
 66  33.3038  28.9958 i
 66.05  30.2555  28.9704 i
 66.1  36.2756  28.9451 i
 66.15  29.3837  28.9304 i
 66.2  35.297  28.9157 i
 66.25  35.5857  28.9067 i
 66.3  19.297  28.8978 i
 66.35  30.6236  28.8904 i
 66.4  36.6183  28.8831 i
 66.45  24.556  28.8766 i
 66.5  32.6001  28.8702 i
 66.55  28.7196  28.8645 i
 66.6  25.2223  28.8588 i
 66.65  30.7403  28.8536 i
 66.7  44.3816  28.8483 i
 66.75  30.3827  28.8436 i
 66.8  31.8877  28.8388 i
 66.85  18.5228  28.8343 i
 66.9  29.3574  28.8299 i
 66.95  41.0351  28.8257 i
 67  39.0134  28.8215 i
 67.05  26.5733  28.8175 i
 67.1  26.9688  28.8136 i
 67.15  29.9263  28.8098 i
 67.2  41.8321  28.806 i
 67.25  25.0724  28.8024 i
 67.3  33.2888  28.7988 i
 67.35  43.2919  28.7953 i
 67.4  33.0451  28.7918 i
 67.45  36.8354  28.7884 i
 67.5  35.1003  28.7851 i
 67.55  34.6134  28.7818 i
 67.6  34.1279  28.7785 i
 67.65  34.4796  28.7753 i
 67.7  28.9904  28.7721 i
 67.75  36.7379  28.769 i
 67.8  24.6282  28.7659 i
 67.85  21.7961  28.7628 i
 67.9  27.3482  28.7598 i
 67.95  28.59  28.7568 i
 68  26.2645  28.7537 i
 68.05  34.2796  28.7508 i
 68.1  27.0176  28.7478 i
 68.15  25.6028  28.7449 i
 68.2  34.775  28.742 i
 68.25  31.0468  28.7391 i
 68.3  28.7079  28.7363 i
 68.35  30.4767  28.7334 i
 68.4  20.0254  28.7306 i
 68.45  27.7831  28.7278 i
 68.5  21.4094  28.725 i
 68.55  38.9829  28.7222 i
 68.6  36.2588  28.7195 i
 68.65  25.6091  28.7167 i
 68.7  31.6978  28.714 i
 68.75  30.0157  28.7112 i
 68.8  23.915  28.7085 i
 68.85  24.274  28.7058 i
 68.9  36.0392  28.7031 i
 68.95  38.8078  28.7004 i
 69  30.5248  28.6977 i
 69.05  27.4346  28.6951 i
 69.1  27.9387  28.6924 i
 69.15  27.9965  28.6898 i
 69.2  33.6584  28.6871 i
 69.25  37.0995  28.6845 i
 69.3  29.8467  28.6819 i
 69.35  28.0304  28.6793 i
 69.4  25.7722  28.6767 i
 69.45  28.7029  28.6741 i
 69.5  22.2671  28.6715 i
 69.55  33.3033  28.6689 i
 69.6  33.023  28.6663 i
 69.65  34.5919  28.6637 i
 69.7  34.6437  28.6612 i
 69.75  25.9851  28.6586 i
 69.8  19.4337  28.656 i
 69.85  33.7779  28.6535 i
 69.9  21.6524  28.651 i
 69.95  25.1543  28.6484 i
 70  28.2704  28.6459 i
 70.05  33.393  28.6434 i
 70.1  34.5659  28.6408 i
 70.15  32.7657  28.6383 i
 70.2  24.2446  28.6358 i
 70.25  29.8224  28.6333 i
 70.3  31.2279  28.6308 i
 70.35  47.1028  28.6283 i
 70.4  30.2251  28.6258 i
 70.45  23.9536  28.6233 i
 70.5  27.0437  28.6208 i
 70.55  25.1122  28.6184 i
 70.6  21.8618  28.6159 i
 70.65  29.6092  28.6134 i
 70.7  20.9991  28.611 i
 70.75  27.6371  28.6085 i
 70.8  25.5704  28.606 i
 70.85  22.359  28.6036 i
 70.9  24.1417  28.6011 i
 70.95  26.7585  28.5987 i
 71  26.897  28.5963 i
 71.05  23.2804  28.5938 i
 71.1  30.1477  28.5914 i
 71.15  27.2262  28.589 i
 71.2  30.597  28.5865 i
 71.25  26.1281  28.5841 i
 71.3  30.4555  28.5817 i
 71.35  28.9658  28.5793 i
 71.4  16.739  28.5769 i
 71.45  27.1836  28.5745 i
 71.5  26.1806  28.5721 i
 71.55  26.7449  28.5697 i
 71.6  24.8858  28.5673 i
 71.65  30.1941  28.5649 i
 71.7  28.9919  28.5625 i
 71.75  29.0444  28.5601 i
 71.8  29.6369  28.5577 i
 71.85  32.3099  28.5554 i
 71.9  27.7469  28.553 i
 71.95  28.2978  28.5506 i
 72  32.1336  28.5483 i
 72.05  36.394  28.5459 i
 72.1  37.9104  28.5435 i
 72.15  30.279  28.5412 i
 72.2  27.814  28.5388 i
 72.25  28.1876  28.5365 i
 72.3  30.8002  28.5341 i
 72.35  19.9729  28.5318 i
 72.4  24.4732  28.5295 i
 72.45  34.954  28.5271 i
 72.5  29.1536  28.5248 i
 72.55  41.6115  28.5225 i
 72.6  28.5298  28.5202 i
 72.65  35.0347  28.5178 i
 72.7  32.502  28.5155 i
 72.75  23.418  28.5132 i
 72.8  30.5546  28.5109 i
 72.85  23.6432  28.5086 i
 72.9  35.8646  28.5063 i
 72.95  29.178  28.504 i
 73  22.5019  28.5017 i
 73.05  36.7798  28.4994 i
 73.1  27.9084  28.4971 i
 73.15  38.3437  28.4948 i
 73.2  35.9669  28.4926 i
 73.25  25.0144  28.4903 i
 73.3  23.5029  28.488 i
 73.35  26.8407  28.4857 i
 73.4  35.3133  28.4835 i
 73.45  34.2184  28.4812 i
 73.5  32.024  28.479 i
 73.55  23.0846  28.4767 i
 73.6  27.2353  28.4745 i
 73.65  36.7775  28.4722 i
 73.7  35.2821  28.47 i
 73.75  31.9912  28.4677 i
 73.8  19.9048  28.4655 i
 73.85  32.8562  28.4633 i
 73.9  28.143  28.461 i
 73.95  24.7635  28.4588 i
 74  21.8935  28.4566 i
 74.05  33.3007  28.4544 i
 74.1  26.5886  28.4522 i
 74.15  25.2361  28.4499 i
 74.2  27.2156  28.4477 i
 74.25  33.6623  28.4455 i
 74.3  26.0144  28.4433 i
 74.35  22.9719  28.4411 i
 74.4  20.0404  28.439 i
 74.45  30.4112  28.4368 i
 74.5  40.1764  28.4346 i
 74.55  31.808  28.4324 i
 74.6  31.5555  28.4302 i
 74.65  28.2875  28.4281 i
 74.7  34.6524  28.4259 i
 74.75  39.9004  28.4238 i
 74.8  30.5354  28.4216 i
 74.85  16.726  28.4195 i
 74.9  33.6182  28.4173 i
 74.95  33.1505  28.4152 i
 75  24.8758  28.413 i
 75.05  19.1531  28.4109 i
 75.1  21.9666  28.4088 i
 75.15  30.0999  28.4066 i
 75.2  32.4756  28.4045 i
 75.25  37.6797  28.4024 i
 75.3  35.3967  28.4003 i
 75.35  18.5502  28.3981 i
 75.4  34.4307  28.396 i
 75.45  17.0197  28.3939 i
 75.5  27.6651  28.3918 i
 75.55  41.9044  28.3897 i
 75.6  26.6126  28.3875 i
 75.65  28.7621  28.3854 i
 75.7  31.2338  28.3833 i
 75.75  31.7793  28.3812 i
 75.8  36.47  28.3791 i
 75.85  37.1754  28.377 i
 75.9  29.2334  28.3749 i
 75.95  32.2885  28.3728 i
 76  25.5939  28.3706 i
 76.05  28.1639  28.3685 i
 76.1  30.9453  28.3664 i
 76.15  29.7972  28.3643 i
 76.2  35.1904  28.3622 i
 76.25  25.4269  28.3601 i
 76.3  34.0464  28.3581 i
 76.35  25.1737  28.356 i
 76.4  30.657  28.3539 i
 76.45  31.0504  28.3518 i
 76.5  26.4296  28.3497 i
 76.55  31.1942  28.3477 i
 76.6  28.3525  28.3456 i
 76.65  30.5583  28.3435 i
 76.7  34.2794  28.3415 i
 76.75  34.0708  28.3394 i
 76.8  35.4531  28.3374 i
 76.85  24.0592  28.3353 i
 76.9  18.6781  28.3333 i
 76.95  30.8441  28.3312 i
 77  29.0393  28.3292 i
 77.05  26.2238  28.3272 i
 77.1  29.0038  28.3252 i
 77.15  31.4355  28.3232 i
 77.2  28.9966  28.3212 i
 77.25  30.9643  28.3192 i
 77.3  31.3986  28.3172 i
 77.35  35.148  28.3152 i
 77.4  33.2193  28.3132 i
 77.45  26.3137  28.3113 i
 77.5  27.7568  28.3093 i
 77.55  27.1191  28.3074 i
 77.6  35.5902  28.3055 i
 77.65  23.6808  28.3036 i
 77.7  25.2737  28.3017 i
 77.75  22.319  28.2998 i
 77.8  24.4156  28.2979 i
 77.85  31.2513  28.296 i
 77.9  25.8385  28.2942 i
 77.95  26.444  28.2924 i
 78  25.3876  28.2905 i
 78.05  30.1499  28.2887 i
 78.1  26.8098  28.2869 i
 78.15  26.5513  28.2852 i
 78.2  23.2634  28.2834 i
 78.25  30.1066  28.2817 i
 78.3  33.9448  28.28 i
 78.35  37.9343  28.2783 i
 78.4  31.0733  28.2767 i
 78.45  26.1433  28.2751 i
 78.5  29.5464  28.2734 i
 78.55  33.9343  28.2719 i
 78.6  30.7746  28.2703 i
 78.65  28.4417  28.2688 i
 78.7  29.3213  28.2673 i
 78.75  25.2871  28.2659 i
 78.8  22.7669  28.2645 i
 78.85  29.1394  28.2631 i
 78.9  24.1758  28.2618 i
 78.95  22.4271  28.2605 i
 79  37.689  28.2593 i
 79.05  32.2242  28.2581 i
 79.1  29.8829  28.257 i
 79.15  26.0062  28.2559 i
 79.2  25.7886  28.2549 i
 79.25  27.4478  28.254 i
 79.3  22.8436  28.2531 i
 79.35  28.4901  28.2524 i
 79.4  31.6721  28.2516 i
 79.45  30.8592  28.2515 i
 79.5  27.885  28.2515 i
 79.55  24.4419  28.2511 i
 79.6  29.6942  28.2508 i
 79.65  32.9604  28.2506 i
 79.7  27.7984  28.2505 i
 79.75  29.6453  28.2507 i
 79.8  29.2785  28.2509 i
 79.85  24.2409  28.2514 i
 79.9  24.415  28.2519 i
 79.95  31.6139  28.2529 i
 80  35.1469  28.2538 i
 80.05  22.0593  28.2552 i
 80.1  17.9208  28.2566 i
 80.15  24.9229  28.2587 i
 80.2  30.5035  28.2607 i
 80.25  36.2585  28.2635 i
 80.3  36.4844  28.2663 i
 80.35  31.3539  28.27 i
 80.4  27.7252  28.2737 i
 80.45  28.0569  28.2787 i
 80.5  36.3997  28.2836 i
 80.55  37.7006  28.2902 i
 80.6  30.6094  28.2967 i
 80.65  27.131  28.3055 i
 80.7  34.9642  28.3143 i
 80.75  26.1676  28.3268 i
 80.8  31.7509  28.3394 i
 80.85  37.024  28.3674 i
 80.9  28.8018  28.3954 i
 80.95  35.8614  28.4775 i
 81  32.0514  28.5596 i
 81.05  25.5614  28.6185 i
 81.1  29.3376  28.6775 i
 81.15  35.2838  28.7375 i
 81.2  44.8283  28.7975 i
 81.25  18.7945  28.8803 i
 81.3  26.6516  28.963 i
 81.35  31.0767  29.084 i
 81.4  23.9956  29.205 i
 81.45  28.0002  29.3923 i
 81.5  34.0523  29.5795 i
 81.55  30.449  29.8918 i
 81.6  26.389  30.204 i
 81.65  35.4042  30.7857 i
 81.7  45.2279  31.3673 i
 81.75  27.7674  32.6799 i
 81.8  35.9837  33.9925 i
 81.85  36.5271  36.9217 i
 81.9  50.9373  43.4595 i
 81.95  63.1771  61.9038 i
 82  131.947  109.213 i
 82.05  187.009  204.671 i
 82.1  321.834  311.727 i
 82.15  327.031  329.224 i
 82.2  215.738  229.171 i
 82.25  121.069  117.267 i
 82.3  62.1586  60.8298 i
 82.35  41.2631  42.0601 i
 82.4  39.1297  35.7879 i
 82.45  43.42  33.0814 i
 82.5  51.123  31.628 i
 82.55  35.1307  30.7414 i
 82.6  32.0096  30.1559 i
 82.65  31.9104  29.8027 i
 82.7  41.8185  29.4495 i
 82.75  33.3131  29.2513 i
 82.8  29.4711  29.053 i
 82.85  39.9086  28.93 i
 82.9  32.4204  28.807 i
 82.95  21.6246  28.7251 i
 83  24.7907  28.6432 i
 83.05  27.9458  28.5855 i
 83.1  34.242  28.5278 i
 83.15  22.771  28.4843 i
 83.2  27.7898  28.4408 i
 83.25  26.5384  28.3932 i
 83.3  27.0614  28.3457 i
 83.35  33.7155  28.2989 i
 83.4  29.3849  28.2522 i
 83.45  28.7194  28.2321 i
 83.5  24.7508  28.212 i
 83.55  29.6907  28.1978 i
 83.6  32.0864  28.1836 i
 83.65  29.6402  28.172 i
 83.7  26.8821  28.1604 i
 83.75  26.2376  28.1506 i
 83.8  26.2971  28.1409 i
 83.85  33.0337  28.1324 i
 83.9  34.1938  28.124 i
 83.95  33.6791  28.1167 i
 84  31.4829  28.1093 i
 84.05  31.244  28.1028 i
 84.1  32.0128  28.0963 i
 84.15  39.224  28.0904 i
 84.2  33.5611  28.0846 i
 84.25  25.4105  28.0793 i
 84.3  24.7032  28.074 i
 84.35  22.6371  28.0692 i
 84.4  18.0901  28.0644 i
 84.45  19.3703  28.0599 i
 84.5  30.3613  28.0555 i
 84.55  28.7753  28.0514 i
 84.6  32.6681  28.0472 i
 84.65  41.3601  28.0434 i
 84.7  28.7806  28.0395 i
 84.75  30.8705  28.0359 i
 84.8  37.8951  28.0323 i
 84.85  26.0487  28.0289 i
 84.9  39.286  28.0255 i
 84.95  27.3358  28.0223 i
 85  28.5395  28.0191 i
 85.05  27.6767  28.016 i
 85.1  28.0358  28.0129 i
 85.15  29.414  28.01 i
 85.2  24.4936  28.007 i
 85.25  24.211  28.0042 i
 85.3  29.8423  28.0014 i
 85.35  30.6829  27.9987 i
 85.4  25.0123  27.996 i
 85.45  27.8798  27.9934 i
 85.5  28.0352  27.9908 i
 85.55  37.5911  27.9883 i
 85.6  26.3702  27.9857 i
 85.65  31.9803  27.9833 i
 85.7  30.3483  27.9809 i
 85.75  26.6331  27.9785 i
 85.8  23.846  27.9761 i
 85.85  32.6157  27.9738 i
 85.9  28.5491  27.9715 i
 85.95  22.7839  27.9693 i
 86  29.1007  27.967 i
 86.05  31.5723  27.9649 i
 86.1  34.1119  27.9627 i
 86.15  21.213  27.9606 i
 86.2  40.1076  27.9584 i
 86.25  26.2214  27.9563 i
 86.3  27.3927  27.9543 i
 86.35  34.0584  27.9522 i
 86.4  29.9777  27.9502 i
 86.45  24.9745  27.9482 i
 86.5  21.7882  27.9462 i
 86.55  23.407  27.9443 i
 86.6  31.3557  27.9423 i
 86.65  25.3915  27.9404 i
 86.7  22.3505  27.9385 i
 86.75  33.9235  27.9366 i
 86.8  34.9803  27.9347 i
 86.85  30.6789  27.9329 i
 86.9  29.9799  27.9311 i
 86.95  24.5132  27.9292 i
 87  34.8802  27.9274 i
 87.05  30.5989  27.9257 i
 87.1  22.4605  27.9239 i
 87.15  22.6691  27.9222 i
 87.2  19.4593  27.9204 i
 87.25  23.778  27.9187 i
 87.3  49.541  27.917 i
 87.35  19.5671  27.9153 i
 87.4  36.2286  27.9136 i
 87.45  32.2411  27.912 i
 87.5  21.1344  27.9103 i
 87.55  27.7717  27.9087 i
 87.6  38.9235  27.9071 i
 87.65  34.5467  27.9055 i
 87.7  24.4204  27.9039 i
 87.75  28.735  27.9023 i
 87.8  42.7309  27.9007 i
 87.85  32.6047  27.8992 i
 87.9  25.4391  27.8976 i
 87.95  25.0247  27.8961 i
 88  28.9303  27.8946 i
 88.05  25.4222  27.8931 i
 88.1  22.6076  27.8916 i
 88.15  27.4964  27.8902 i
 88.2  19.2328  27.8887 i
 88.25  27.8255  27.8872 i
 88.3  39.131  27.8858 i
 88.35  30.9421  27.8844 i
 88.4  23.2413  27.883 i
 88.45  28.3917  27.8816 i
 88.5  28.2342  27.8802 i
 88.55  26.8647  27.8788 i
 88.6  28.4936  27.8774 i
 88.65  24.4889  27.8761 i
 88.7  34.3753  27.8747 i
 88.75  29.5769  27.8734 i
 88.8  28.4172  27.8721 i
 88.85  26.3466  27.8708 i
 88.9  25.3073  27.8695 i
 88.95  27.4965  27.8682 i
 89  41.5162  27.8669 i
 89.05  33.0265  27.8657 i
 89.1  29.5572  27.8644 i
 89.15  28.7183  27.8632 i
 89.2  26.2359  27.862 i
 89.25  33.9159  27.8608 i
 89.3  36.8975  27.8596 i
 89.35  25.8946  27.8584 i
 89.4  14.027  27.8572 i
 89.45  28.4077  27.856 i
 89.5  29.2799  27.8549 i
 89.55  31.3816  27.8538 i
 89.6  33.4733  27.8526 i
 89.65  24.0369  27.8515 i
 89.7  26.7872  27.8504 i
 89.75  27.4091  27.8493 i
 89.8  32.1378  27.8482 i
 89.85  28.5099  27.8472 i
 89.9  25.4387  27.8461 i
 89.95  31.075  27.845 i
 90  24.9685  27.844 i
 90.05  24.473  27.843 i
 90.1  27.4742  27.842 i
 90.15  25.2741  27.841 i
 90.2  24.7715  27.84 i
 90.25  28.0145  27.839 i
 90.3  32.6709  27.838 i
 90.35  35.0353  27.8371 i
 90.4  18.9217  27.8361 i
 90.45  27.0552  27.8352 i
 90.5  29.1496  27.8343 i
 90.55  37.9074  27.8334 i
 90.6  30.3397  27.8325 i
 90.65  28.0958  27.8316 i
 90.7  27.1448  27.8308 i
 90.75  34.8198  27.8299 i
 90.8  30.4384  27.8291 i
 90.85  39.4472  27.8282 i
 90.9  28.6121  27.8274 i
 90.95  28.1046  27.8266 i
 91  29.1162  27.8258 i
 91.05  30.9675  27.825 i
 91.1  32.9239  27.8243 i
 91.15  31.2827  27.8235 i
 91.2  35.3804  27.8228 i
 91.25  30.2316  27.822 i
 91.3  36.7595  27.8213 i
 91.35  18.3368  27.8206 i
 91.4  25.2358  27.8199 i
 91.45  36.8061  27.8192 i
 91.5  35.7498  27.8186 i
 91.55  26.359  27.8179 i
 91.6  25.2117  27.8173 i
 91.65  34.4666  27.8166 i
 91.7  37.7172  27.816 i
 91.75  21.3617  27.8154 i
 91.8  36.6418  27.8148 i
 91.85  25.8955  27.8143 i
 91.9  37.4415  27.8137 i
 91.95  19.6014  27.8132 i
 92  23.5583  27.8126 i
 92.05  18.2472  27.8121 i
 92.1  39.4073  27.8116 i
 92.15  19.0753  27.8111 i
 92.2  19.6377  27.8106 i
 92.25  32.1122  27.8101 i
 92.3  26.8295  27.8097 i
 92.35  33.0111  27.8093 i
 92.4  28.1668  27.8088 i
 92.45  22.4341  27.8084 i
 92.5  33.7026  27.808 i
 92.55  24.1355  27.8076 i
 92.6  33.0389  27.8072 i
 92.65  24.1667  27.8068 i
 92.7  24.3385  27.8064 i
 92.75  30.835  27.806 i
 92.8  25.2868  27.8056 i
 92.85  29.1244  27.8052 i
 92.9  31.2018  27.8048 i
 92.95  22.6405  27.8044 i
 93  36.4589  27.804 i
 93.05  34.2499  27.8037 i
 93.1  29.1906  27.8033 i
 93.15  35.6837  27.8029 i
 93.2  26.6075  27.8026 i
 93.25  26.1509  27.8022 i
 93.3  24.1886  27.8018 i
 93.35  32.7878  27.8015 i
 93.4  39.7836  27.8011 i
 93.45  29.3814  27.8013 i
 93.5  24.6123  27.8015 i
 93.55  33.8032  27.8012 i
 93.6  23.0171  27.8008 i
 93.65  21.2983  27.8005 i
 93.7  28.9659  27.8002 i
 93.75  28.3609  27.7999 i
 93.8  32.8217  27.7996 i
 93.85  31.2419  27.7993 i
 93.9  21.4341  27.799 i
 93.95  25.5093  27.7988 i
 94  27.2661  27.7985 i
 94.05  25.644  27.7983 i
 94.1  24.5227  27.798 i
 94.15  24.2064  27.7978 i
 94.2  25.5066  27.7975 i
 94.25  27.6968  27.7973 i
 94.3  28.1609  27.7971 i
 94.35  25.5128  27.7969 i
 94.4  35.67  27.7968 i
 94.45  36.0063  27.7966 i
 94.5  35.3023  27.7964 i
 94.55  27.0782  27.7963 i
 94.6  30.9756  27.7962 i
 94.65  31.701  27.796 i
 94.7  27.7685  27.7959 i
 94.75  32.2516  27.7959 i
 94.8  35.6639  27.7958 i
 94.85  23.0737  27.7957 i
 94.9  18.0808  27.7957 i
 94.95  27.779  27.7957 i
 95  21.0026  27.7957 i
 95.05  31.9888  27.7957 i
 95.1  27.6618  27.7957 i
 95.15  26.853  27.7958 i
 95.2  24.8979  27.7959 i
 95.25  16.161  27.796 i
 95.3  33.9919  27.7961 i
 95.35  36.8922  27.7963 i
 95.4  31.4088  27.7965 i
 95.45  28.5101  27.7967 i
 95.5  32.7952  27.797 i
 95.55  18.5245  27.7973 i
 95.6  35.6347  27.7976 i
 95.65  27.9967  27.798 i
 95.7  19.9529  27.7983 i
 95.75  27.81  27.7988 i
 95.8  24.2827  27.7993 i
 95.85  29.1773  27.7998 i
 95.9  32.1551  27.8004 i
 95.95  24.9118  27.8011 i
 96  32.0877  27.8017 i
 96.05  26.0306  27.8025 i
 96.1  29.6347  27.8033 i
 96.15  23.3109  27.8043 i
 96.2  28.5542  27.8052 i
 96.25  28.7983  27.8063 i
 96.3  33.5235  27.8074 i
 96.35  30.1749  27.8087 i
 96.4  28.2248  27.8101 i
 96.45  28.2862  27.8116 i
 96.5  29.6609  27.8132 i
 96.55  30.3268  27.815 i
 96.6  23.2457  27.8168 i
 96.65  30.7119  27.819 i
 96.7  40.6046  27.8212 i
 96.75  32.7472  27.8237 i
 96.8  30.7846  27.8263 i
 96.85  30.5502  27.8294 i
 96.9  33.5162  27.8325 i
 96.95  20.4403  27.8363 i
 97  30.1361  27.8401 i
 97.05  22.7908  27.8447 i
 97.1  26.8458  27.8493 i
 97.15  32.2927  27.8551 i
 97.2  37.1324  27.8609 i
 97.25  30.2514  27.8684 i
 97.3  27.2833  27.876 i
 97.35  33.3351  27.8883 i
 97.4  31.1633  27.9007 i
 97.45  30.5316  27.928 i
 97.5  19.8738  27.9553 i
 97.55  34.7695  27.9855 i
 97.6  21.5433  28.0156 i
 97.65  27.5536  28.0448 i
 97.7  25.4991  28.074 i
 97.75  31.0097  28.1127 i
 97.8  21.6613  28.1515 i
 97.85  24.6617  28.2072 i
 97.9  33.8368  28.2628 i
 97.95  29.5135  28.3477 i
 98  28.9524  28.4327 i
 98.05  19.7663  28.5723 i
 98.1  29.2118  28.7119 i
 98.15  31.4923  28.9685 i
 98.2  23.7192  29.225 i
 98.25  27.7167  29.7954 i
 98.3  31.827  30.3658 i
 98.35  41.5629  32.2794 i
 98.4  31.4551  34.1931 i
 98.45  38.947  40.3899 i
 98.5  57.2409  55.2536 i
 98.55  85.4938  84.7571 i
 98.6  115.367  125.247 i
 98.65  156.856  153.833 i
 98.7  147.729  146.329 i
 98.75  122.76  109.386 i
 98.8  65.673  71.6873 i
 98.85  55.0961  49.6816 i
 98.9  35.4974  38.6428 i
 98.95  28.0958  35.3452 i
 99  30.908  32.0477 i
 99.05  35.398  31.0777 i
 99.1  33.1299  30.1077 i
 99.15  30.9651  29.6823 i
 99.2  23.8135  29.257 i
 99.25  26.7496  29.0306 i
 99.3  32.7623  28.8041 i
 99.35  37.59  28.669 i
 99.4  40.1227  28.5338 i
 99.45  29.6705  28.4465 i
 99.5  32.74  28.3592 i
 99.55  32.5025  28.2994 i
 99.6  31.4304  28.2395 i
 99.65  36.0374  28.1953 i
 99.7  34.2956  28.1511 i
 99.75  32.4053  28.107 i
 99.8  23.238  28.0628 i
 99.85  34.1645  28.0088 i
 99.9  23.6311  27.9549 i
 99.95  24.2543  27.9299 i
 100  37.6139  27.905 i
 100.05  26.7318  27.8952 i
 100.1  35.1886  27.8855 i
 100.15  45.4523  27.8786 i
 100.2  31.3389  27.8727 i
 100.25  27.9837  27.8679 i
 100.3  21.9888  27.8631 i
 100.35  38.0708  27.8594 i
 100.4  37.9644  27.8557 i
 100.45  32.6313  27.8528 i
 100.5  16.2143  27.8499 i
 100.55  27.6465  27.8476 i
 100.6  24.2307  27.8452 i
 100.65  30.5698  27.8434 i
 100.7  24.7999  27.8416 i
 100.75  33.0479  27.8402 i
 100.8  31.9834  27.8388 i
 100.85  26.046  27.8377 i
 100.9  26.7544  27.8366 i
 100.95  36.5208  27.8358 i
 101  24.1909  27.835 i
 101.05  22.5301  27.8345 i
 101.1  25.7035  27.8339 i
 101.15  34.35  27.8335 i
 101.2  34.261  27.8332 i
 101.25  23.1959  27.833 i
 101.3  34.0567  27.8328 i
 101.35  41.3161  27.8328 i
 101.4  28.0962  27.8328 i
 101.45  34.7219  27.8329 i
 101.5  21.529  27.833 i
 101.55  26.0095  27.8332 i
 101.6  29.7902  27.8335 i
 101.65  31.926  27.8338 i
 101.7  32.6851  27.8342 i
 101.75  28.969  27.8346 i
 101.8  31.0797  27.8351 i
 101.85  32.7413  27.8356 i
 101.9  31.1121  27.8361 i
 101.95  36.8257  27.8356 i
 102  34.5348  27.8351 i
 102.05  24.5808  27.8358 i
 102.1  22.9499  27.8365 i
 102.15  26.5279  27.8373 i
 102.2  26.8283  27.8381 i
 102.25  25.3264  27.839 i
 102.3  23.6674  27.8399 i
 102.35  32.6249  27.8408 i
 102.4  25.3429  27.8417 i
 102.45  28.172  27.8427 i
 102.5  30.5665  27.8437 i
 102.55  34.6746  27.8448 i
 102.6  22.2231  27.8458 i
 102.65  25.765  27.847 i
 102.7  22.7684  27.8481 i
 102.75  32.722  27.8493 i
 102.8  24.3412  27.8504 i
 102.85  29.661  27.8517 i
 102.9  27.4327  27.8529 i
 102.95  24.9329  27.8542 i
 103  33.1071  27.8555 i
 103.05  32.239  27.8569 i
 103.1  24.5397  27.8582 i
 103.15  15.371  27.8596 i
 103.2  26.5685  27.861 i
 103.25  31.506  27.8625 i
 103.3  29.6205  27.8639 i
 103.35  29.5575  27.8654 i
 103.4  20.4643  27.8669 i
 103.45  22.6017  27.8685 i
 103.5  22.8468  27.8701 i
 103.55  25.5034  27.8717 i
 103.6  26.4417  27.8733 i
 103.65  21.9004  27.8749 i
 103.7  32.3386  27.8766 i
 103.75  26.5944  27.8783 i
 103.8  40.152  27.88 i
 103.85  36.2853  27.8818 i
 103.9  37.978  27.8835 i
 103.95  27.1818  27.8853 i
 104  24.5745  27.8871 i
 104.05  26.0252  27.889 i
 104.1  39.6331  27.8909 i
 104.15  31.3546  27.8928 i
 104.2  26.2789  27.8947 i
 104.25  41.6629  27.8966 i
 104.3  30.573  27.8986 i
 104.35  31.7926  27.9006 i
 104.4  40.0529  27.9026 i
 104.45  33.9471  27.9046 i
 104.5  33.8931  27.9067 i
 104.55  28.278  27.9088 i
 104.6  37.9661  27.9109 i
 104.65  31.2089  27.913 i
 104.7  30.4465  27.9152 i
 104.75  29.1021  27.9174 i
 104.8  28.249  27.9196 i
 104.85  28.717  27.9218 i
 104.9  30.1052  27.9241 i
 104.95  21.5808  27.9264 i
 105  36.9656  27.9287 i
 105.05  29.7299  27.931 i
 105.1  19.9581  27.9334 i
 105.15  36.5201  27.9358 i
 105.2  35.9961  27.9382 i
 105.25  25.1138  27.9406 i
 105.3  26.596  27.943 i
 105.35  25.7844  27.9455 i
 105.4  30.3284  27.948 i
 105.45  23.6849  27.9506 i
 105.5  25.5499  27.9531 i
 105.55  29.0529  27.9557 i
 105.6  24.4234  27.9583 i
 105.65  30.4006  27.961 i
 105.7  23.9307  27.9636 i
 105.75  22.9882  27.9663 i
 105.8  29.5386  27.969 i
 105.85  22.6489  27.9718 i
 105.9  22.0873  27.9745 i
 105.95  23.2422  27.9773 i
 106  30.8555  27.9801 i
 106.05  30.4754  27.983 i
 106.1  30.0409  27.9858 i
 106.15  23.2125  27.9887 i
 106.2  26.2372  27.9916 i
 106.25  38.3688  27.9946 i
 106.3  32.7577  27.9975 i
 106.35  27.4636  28.0005 i
 106.4  36.0521  28.0035 i
 106.45  35.7979  28.0066 i
 106.5  35.9536  28.0097 i
 106.55  31.4162  28.0128 i
 106.6  30.7948  28.0159 i
 106.65  24.8639  28.0191 i
 106.7  42.3778  28.0222 i
 106.75  25.6886  28.0255 i
 106.8  17.8431  28.0287 i
 106.85  35.0483  28.032 i
 106.9  28.7602  28.0352 i
 106.95  25.0339  28.0386 i
 107  22.3603  28.0419 i
 107.05  33.4972  28.0453 i
 107.1  27.2077  28.0487 i
 107.15  23.1339  28.0521 i
 107.2  28.838  28.0556 i
 107.25  22.6284  28.0591 i
 107.3  32.0148  28.0625 i
 107.35  29.6601  28.0661 i
 107.4  32.4046  28.0697 i
 107.45  31.1249  28.0733 i
 107.5  25.3883  28.0769 i
 107.55  43.8498  28.0805 i
 107.6  27.7553  28.0842 i
 107.65  32.6297  28.0879 i
 107.7  29.3392  28.0917 i
 107.75  24.0696  28.0954 i
 107.8  27.5552  28.0992 i
 107.85  32.8388  28.1031 i
 107.9  30.4384  28.1069 i
 107.95  38.5729  28.1108 i
 108  26.3048  28.1147 i
 108.05  35.3381  28.1187 i
 108.1  29.1944  28.1226 i
 108.15  34.0859  28.1267 i
 108.2  30.0735  28.1307 i
 108.25  32.3093  28.1348 i
 108.3  31.4437  28.1389 i
 108.35  33.4525  28.1431 i
 108.4  30.5434  28.1472 i
 108.45  35.1114  28.1515 i
 108.5  23.6495  28.1557 i
 108.55  15.8991  28.16 i
 108.6  36.3611  28.1643 i
 108.65  30.3142  28.1687 i
 108.7  28.4262  28.173 i
 108.75  29.0667  28.1774 i
 108.8  32.8716  28.1819 i
 108.85  39.1036  28.1864 i
 108.9  33.1374  28.1908 i
 108.95  24.7225  28.1954 i
 109  29.2366  28.1999 i
 109.05  27.3902  28.2046 i
 109.1  21.12  28.2092 i
 109.15  29.2461  28.2139 i
 109.2  31.9625  28.2185 i
 109.25  31.4939  28.2233 i
 109.3  29.8975  28.228 i
 109.35  32.9261  28.2328 i
 109.4  33.98  28.2376 i
 109.45  35.502  28.2425 i
 109.5  24.1979  28.2474 i
 109.55  23.9754  28.2523 i
 109.6  24.1875  28.2572 i
 109.65  28.0018  28.2622 i
 109.7  22.4961  28.2672 i
 109.75  35.8803  28.2722 i
 109.8  24.6051  28.2773 i
 109.85  27.8376  28.2824 i
 109.9  19.595  28.2875 i
 109.95  27.8451  28.2927 i
 110  24.9646  28.2979 i
 110.05  30.1839  28.3031 i
 110.1  17.2614  28.3083 i
 110.15  26.3731  28.3136 i
 110.2  39.9385  28.3189 i
 110.25  29.8491  28.3243 i
 110.3  28.3705  28.3297 i
 110.35  30.5425  28.3351 i
 110.4  32.0876  28.3405 i
 110.45  31.5844  28.346 i
 110.5  24.7087  28.3515 i
 110.55  30.5014  28.357 i
 110.6  37.1717  28.3626 i
 110.65  31.3611  28.3682 i
 110.7  35.7454  28.3738 i
 110.75  26.1635  28.3795 i
 110.8  25.1402  28.3851 i
 110.85  24.6652  28.3909 i
 110.9  22.6999  28.3966 i
 110.95  29.0987  28.4024 i
 111  30.3296  28.4082 i
 111.05  37.4775  28.4141 i
 111.1  25.7631  28.42 i
 111.15  26.7481  28.4259 i
 111.2  38.1199  28.4318 i
 111.25  23.2748  28.4378 i
 111.3  26.5836  28.4438 i
 111.35  29.637  28.4499 i
 111.4  27.0963  28.4559 i
 111.45  28.7853  28.4621 i
 111.5  26.5884  28.4682 i
 111.55  29.4294  28.4744 i
 111.6  26.25  28.4806 i
 111.65  28.699  28.4869 i
 111.7  40.0544  28.4932 i
 111.75  20.229  28.4995 i
 111.8  35.7299  28.5059 i
 111.85  38.3736  28.5123 i
 111.9  33.3061  28.5187 i
 111.95  34.9499  28.5253 i
 112  38.2692  28.5318 i
 112.05  24.3576  28.5383 i
 112.1  31.2411  28.5449 i
 112.15  34.2165  28.5516 i
 112.2  42.0011  28.5583 i
 112.25  23.9651  28.5651 i
 112.3  21.3219  28.5718 i
 112.35  41.4546  28.5787 i
 112.4  30.4882  28.5855 i
 112.45  29.1701  28.5925 i
 112.5  30.4228  28.5995 i
 112.55  38.8622  28.6065 i
 112.6  34.3217  28.6136 i
 112.65  26.0683  28.6208 i
 112.7  43.6789  28.628 i
 112.75  31.4811  28.6353 i
 112.8  38.9568  28.6426 i
 112.85  39.3646  28.65 i
 112.9  30.3836  28.6575 i
 112.95  26.4027  28.6651 i
 113  36.1399  28.6727 i
 113.05  27.8584  28.6804 i
 113.1  29.2025  28.6882 i
 113.15  24.9994  28.6961 i
 113.2  45.1126  28.704 i
 113.25  29.979  28.7122 i
 113.3  19.1401  28.7203 i
 113.35  29.9937  28.7287 i
 113.4  23.5039  28.7371 i
 113.45  29.1534  28.7457 i
 113.5  19.2395  28.7544 i
 113.55  23.0727  28.7633 i
 113.6  21.7634  28.7722 i
 113.65  23.8104  28.7815 i
 113.7  34.0647  28.7908 i
 113.75  29.1323  28.8006 i
 113.8  27.6261  28.8103 i
 113.85  30.4876  28.8205 i
 113.9  30.478  28.8308 i
 113.95  38.566  28.8416 i
 114  25.4732  28.8524 i
 114.05  36.8623  28.864 i
 114.1  32.1761  28.8756 i
 114.15  32.8029  28.8882 i
 114.2  35.355  28.9007 i
 114.25  28.1879  28.9145 i
 114.3  31.2361  28.9283 i
 114.35  39.5752  28.9438 i
 114.4  31.8727  28.9592 i
 114.45  24.3242  28.9772 i
 114.5  20.2491  28.9952 i
 114.55  27.0855  29.0179 i
 114.6  40.2661  29.0406 i
 114.65  21.8724  29.0724 i
 114.7  27.0359  29.1043 i
 114.75  33.93  29.1493 i
 114.8  32.7332  29.1943 i
 114.85  26.9592  29.2498 i
 114.9  25.9  29.3053 i
 114.95  28.2055  29.3695 i
 115  32.0601  29.4337 i
 115.05  29.7483  29.5148 i
 115.1  21.7983  29.596 i
 115.15  24.4092  29.7111 i
 115.2  36.1589  29.8262 i
 115.25  31.2491  30.0058 i
 115.3  26.3334  30.1853 i
 115.35  29.4396  30.4989 i
 115.4  32.2019  30.8124 i
 115.45  34.0388  31.4578 i
 115.5  27.1977  32.1032 i
 115.55  42.3649  33.7513 i
 115.6  39.7019  35.3994 i
 115.65  39.9087  38.9579 i
 115.7  47.0646  45.0512 i
 115.75  54.8006  55.2366 i
 115.8  72.907  69.6293 i
 115.85  83.8555  88.4611 i
 115.9  112.478  108.333 i
 115.95  111.25  123.788 i
 116  136.003  129.645 i
 116.05  133.925  123.507 i
 116.1  98.7704  107.814 i
 116.15  90.7063  87.9831 i
 116.2  65.9601  69.3408 i
 116.25  49.2764  55.1657 i
 116.3  48.6615  45.154 i
 116.35  44.8207  39.1599 i
 116.4  36.8093  35.6458 i
 116.45  37.6104  34.0064 i
 116.5  34.1258  32.367 i
 116.55  33.0832  31.7225 i
 116.6  44.112  31.0781 i
 116.65  36.6207  30.7691 i
 116.7  26.6359  30.4601 i
 116.75  37.3534  30.2885 i
 116.8  24.2569  30.1169 i
 116.85  28.8975  30.0117 i
 116.9  35.514  29.9065 i
 116.95  26.8517  29.8359 i
 117  24.2402  29.7653 i
 117.05  24.0468  29.7115 i
 117.1  19.9815  29.6577 i
 117.15  34.1769  29.6136 i
 117.2  40.3365  29.5694 i
 117.25  27.1555  29.538 i
 117.3  22.7848  29.5065 i
 117.35  37.3855  29.4892 i
 117.4  34.6595  29.4719 i
 117.45  24.4966  29.4639 i
 117.5  31.5796  29.4559 i
 117.55  35.3213  29.4526 i
 117.6  26.4926  29.4492 i
 117.65  28.2154  29.4485 i
 117.7  35.9813  29.4478 i
 117.75  31.0389  29.4488 i
 117.8  27.7677  29.4498 i
 117.85  25.8417  29.452 i
 117.9  34.9989  29.4542 i
 117.95  30.1569  29.4575 i
 118  29.2351  29.4607 i
 118.05  29.0323  29.4646 i
 118.1  18.1484  29.4686 i
 118.15  26.2928  29.4732 i
 118.2  30.5887  29.4778 i
 118.25  28.6204  29.4828 i
 118.3  28.006  29.4879 i
 118.35  45.6841  29.4934 i
 118.4  34.2812  29.4989 i
 118.45  29.8247  29.5047 i
 118.5  31.7343  29.5106 i
 118.55  38.5642  29.5167 i
 118.6  20.1228  29.5229 i
 118.65  29.0365  29.5292 i
 118.7  33.9755  29.5356 i
 118.75  30.0216  29.5422 i
 118.8  34.9817  29.5488 i
 118.85  20.6243  29.5556 i
 118.9  24.615  29.5624 i
 118.95  25.762  29.5693 i
 119  30.7953  29.5763 i
 119.05  28.1767  29.5833 i
 119.1  31.2361  29.5904 i
 119.15  28.527  29.5976 i
 119.2  32.0013  29.6048 i
 119.25  25.3324  29.6122 i
 119.3  27.8493  29.6195 i
 119.35  28.3265  29.6269 i
 119.4  33.3737  29.6343 i
 119.45  28.3834  29.6418 i
 119.5  28.5381  29.6493 i
 119.55  27.9512  29.6569 i
 119.6  22.9128  29.6645 i
 119.65  28.5982  29.6721 i
 119.7  31.2766  29.6798 i
 119.75  36.5511  29.6875 i
 119.8  35.1619  29.6952 i
 119.85  24.1954  29.703 i
 119.9  25.7163  29.7108 i
 119.95  22.0879  29.7186 i
 120  30.5845  29.7264 i
 120.05  20.6163  29.7343 i
 120.1  34.4347  29.7422 i
 120.15  26.3247  29.7501 i
 120.2  34.8148  29.758 i
 120.25  33.0931  29.766 i
 120.3  32.1533  29.774 i
 120.35  33.7268  29.782 i
 120.4  37.2423  29.79 i
 120.45  28.1836  29.798 i
 120.5  23.7544  29.806 i
 120.55  31.1353  29.8141 i
 120.6  24.4788  29.8222 i
 120.65  37.2855  29.8303 i
 120.7  26.8302  29.8384 i
 120.75  27.9817  29.8465 i
 120.8  23.8726  29.8546 i
 120.85  25.7517  29.8627 i
 120.9  39.0915  29.8709 i
 120.95  37.2983  29.8791 i
 121  36.2042  29.8872 i
 121.05  27.6948  29.8954 i
 121.1  36.3129  29.9036 i
 121.15  34.5971  29.9118 i
 121.2  25.5326  29.92 i
 121.25  37.1643  29.9283 i
 121.3  29.3588  29.9365 i
 121.35  24.8645  29.9447 i
 121.4  27.7685  29.953 i
 121.45  29.82  29.9612 i
 121.5  29.8764  29.9695 i
 121.55  20.8052  29.9778 i
 121.6  30.6477  29.986 i
 121.65  13.408  29.9943 i
 121.7  29.5042  30.0026 i
 121.75  28.2543  30.0109 i
 121.8  28.4857  30.0192 i
 121.85  28.9153  30.0275 i
 121.9  29.2715  30.0358 i
 121.95  26.652  30.0441 i
 122  37.2446  30.0525 i
 122.05  33.8112  30.0608 i
 122.1  25.745  30.0691 i
 122.15  29.8104  30.0774 i
 122.2  25.9904  30.0858 i
 122.25  23.5755  30.0941 i
 122.3  31.0559  30.1025 i
 122.35  28.568  30.1108 i
 122.4  36.7669  30.1192 i
 122.45  30.7356  30.1275 i
 122.5  27.7624  30.1359 i
 122.55  29.1866  30.1442 i
 122.6  25.108  30.1526 i
 122.65  18.7963  30.1609 i
 122.7  22.803  30.1693 i
 122.75  30.4884  30.1777 i
 122.8  39.5634  30.186 i
 122.85  25.0482  30.1939 i
 122.9  24.4196  30.2018 i
 122.95  35.5477  30.2101 i
 123  22.2327  30.2185 i
 123.05  28.0845  30.2269 i
 123.1  26.1101  30.2352 i
 123.15  24.7827  30.2436 i
 123.2  38.8524  30.252 i
 123.25  33.8066  30.2603 i
 123.3  36.8706  30.2687 i
 123.35  42.45  30.2771 i
 123.4  32.5919  30.2854 i
 123.45  28.403  30.2938 i
 123.5  29.6118  30.3022 i
 123.55  18.0601  30.3105 i
 123.6  29.3528  30.3189 i
 123.65  30.6935  30.3273 i
 123.7  32.6095  30.3356 i
 123.75  26.1197  30.344 i
 123.8  35.4842  30.3523 i
 123.85  25.8159  30.3607 i
 123.9  39.4691  30.369 i
 123.95  39.8784  30.3774 i
 124  42.7036  30.3857 i
 124.05  27.9124  30.3941 i
 124.1  27.3377  30.4024 i
 124.15  27.6754  30.4108 i
 124.2  34.5481  30.4191 i
 124.25  29.2779  30.4274 i
 124.3  18.7385  30.4358 i
 124.35  23.2404  30.4441 i
 124.4  29.5191  30.4524 i
 124.45  21.8672  30.4607 i
 124.5  41.779  30.4691 i
 124.55  27.6105  30.4774 i
 124.6  33.0395  30.4857 i
 124.65  28.1012  30.494 i
 124.7  28.7689  30.5023 i
 124.75  45.421  30.5106 i
 124.8  37.6046  30.5189 i
 124.85  32.6446  30.5271 i
 124.9  35.6473  30.5354 i
 124.95  27.2066  30.5437 i
 125  30.286  30.552 i
 125.05  35.4102  30.5602 i
 125.1  28.3597  30.5685 i
 125.15  29.9926  30.5768 i
 125.2  19.8284  30.585 i
 125.25  24.3735  30.5932 i
 125.3  39.9677  30.6015 i
 125.35  36.2842  30.6097 i
 125.4  24.2152  30.6179 i
 125.45  30.1006  30.6262 i
 125.5  28.387  30.6344 i
 125.55  27.0411  30.6426 i
 125.6  29.4434  30.6508 i
 125.65  28.0901  30.659 i
 125.7  26.3632  30.6672 i
 125.75  19.2167  30.6753 i
 125.8  31.8859  30.6835 i
 125.85  27.3556  30.6917 i
 125.9  28.1579  30.6998 i
 125.95  36.4946  30.708 i
 126  26.8919  30.7161 i
 126.05  30.3115  30.7243 i
 126.1  23.088  30.7324 i
 126.15  28.3689  30.7405 i
 126.2  27.1638  30.7486 i
 126.25  32.4528  30.7567 i
 126.3  33.6498  30.7648 i
 126.35  43.4861  30.7729 i
 126.4  31.4632  30.781 i
 126.45  40.9449  30.7891 i
 126.5  27.6764  30.7971 i
 126.55  22.9838  30.8052 i
 126.6  27.4613  30.8132 i
 126.65  29.3562  30.8212 i
 126.7  36.0495  30.8293 i
 126.75  28.9125  30.8373 i
 126.8  16.0398  30.8453 i
 126.85  35.8765  30.8533 i
 126.9  29.4331  30.8613 i
 126.95  24.403  30.8693 i
 127  34.1376  30.8772 i
 127.05  25.6167  30.8852 i
 127.1  34.3029  30.8931 i
 127.15  36.7644  30.9011 i
 127.2  28.1333  30.909 i
 127.25  21.0447  30.9169 i
 127.3  24.8546  30.9248 i
 127.35  31.5802  30.9327 i
 127.4  33.9457  30.9406 i
 127.45  23.5705  30.9485 i
 127.5  36.3034  30.9563 i
 127.55  17.9101  30.9642 i
 127.6  33.7853  30.972 i
 127.65  27.6084  30.9798 i
 127.7  24.3039  30.9877 i
 127.75  33.141  30.9955 i
 127.8  37.4342  31.0033 i
 127.85  32.0057  31.011 i
 127.9  25.0741  31.0188 i
 127.95  25.6432  31.0266 i
 128  32.331  31.0343 i
 128.05  32.8212  31.042 i
 128.1  32.7388  31.0498 i
 128.15  26.0449  31.0575 i
 128.2  23.4091  31.0652 i
 128.25  32.4518  31.0728 i
 128.3  30.1929  31.0805 i
 128.35  27.4722  31.0882 i
 128.4  28.2924  31.0958 i
 128.45  23.3468  31.1034 i
 128.5  22.1619  31.1111 i
 128.55  30.7195  31.1187 i
 128.6  26.4798  31.1263 i
 128.65  26.0079  31.1338 i
 128.7  30.4827  31.1414 i
 128.75  25.3449  31.1489 i
 128.8  23.1399  31.1565 i
 128.85  28.3942  31.164 i
 128.9  32.5802  31.1715 i
 128.95  33.5426  31.179 i
 129  33.672  31.1865 i
 129.05  45.8752  31.1939 i
 129.1  34.5386  31.2014 i
 129.15  36.9918  31.2088 i
 129.2  38.7519  31.2162 i
 129.25  29.0157  31.2236 i
 129.3  28.8557  31.231 i
 129.35  22.8247  31.2384 i
 129.4  28.3111  31.2457 i
 129.45  29.7146  31.2531 i
 129.5  35.59  31.2604 i
 129.55  23.6041  31.2677 i
 129.6  26.3904  31.275 i
 129.65  26.9477  31.2823 i
 129.7  29.6519  31.2896 i
 129.75  31.1914  31.2968 i
 129.8  25.8217  31.304 i
 129.85  30.3402  31.3112 i
 129.9  34.8032  31.3184 i
 129.95  37.118  31.3305 i
 130  23.4052  31.3425 i

