
#Surface 0 of 1 surfaces

#IsoCurve 0, 1801 points
#x y z type
 40  35.9534  0 i
 40.05  49.3036  0 i
 40.1  29.351  0 i
 40.15  19.4918  0 i
 40.2  40.1044  0 i
 40.25  37.7786  0 i
 40.3  43.2514  0 i
 40.35  47.9477  0 i
 40.4  42.8697  0 i
 40.45  31.3926  0 i
 40.5  38.5006  0 i
 40.55  38.5652  0 i
 40.6  42.9458  0 i
 40.65  32.4879  0 i
 40.7  45.4255  0 i
 40.75  38.8654  0 i
 40.8  43.899  0 i
 40.85  43.2753  0 i
 40.9  24.9307  0 i
 40.95  33.5764  0 i
 41  43.2525  0 i
 41.05  53.7805  0 i
 41.1  30.3844  0 i
 41.15  41.8174  0 i
 41.2  42.6187  0 i
 41.25  36.5769  0 i
 41.3  34.9481  0 i
 41.35  35.1574  0 i
 41.4  30.5596  0 i
 41.45  38.5239  0 i
 41.5  36.0489  0 i
 41.55  38.4193  0 i
 41.6  29.5316  0 i
 41.65  31.7821  0 i
 41.7  31.6532  0 i
 41.75  41.5305  0 i
 41.8  39.8351  0 i
 41.85  38.3954  0 i
 41.9  31.3759  0 i
 41.95  28.2577  0 i
 42  37.9984  0 i
 42.05  29.8663  0 i
 42.1  39.3122  0 i
 42.15  30.8236  0 i
 42.2  34.4917  0 i
 42.25  26.7828  0 i
 42.3  41.7582  0 i
 42.35  41.4468  0 i
 42.4  29.0013  0 i
 42.45  32.7547  0 i
 42.5  41.7816  0 i
 42.55  33.7565  0 i
 42.6  49.3202  0 i
 42.65  34.1417  0 i
 42.7  29.565  0 i
 42.75  45.3565  0 i
 42.8  33.7901  0 i
 42.85  37.7794  0 i
 42.9  40.2087  0 i
 42.95  35.9351  0 i
 43  34.4615  0 i
 43.05  30.141  0 i
 43.1  29.9336  0 i
 43.15  40.9904  0 i
 43.2  46.4895  0 i
 43.25  28.6286  0 i
 43.3  33.2123  0 i
 43.35  33.357  0 i
 43.4  35.9536  0 i
 43.45  35.7296  0 i
 43.5  37.5791  0 i
 43.55  39.5269  0 i
 43.6  35.8882  0 i
 43.65  43.556  0 i
 43.7  47.585  0 i
 43.75  34.7925  0 i
 43.8  41.279  0 i
 43.85  45.0038  0 i
 43.9  44.506  0 i
 43.95  44.6922  0 i
 44  43.5094  0 i
 44.05  43.8252  0 i
 44.1  46.2304  0 i
 44.15  54.5537  0 i
 44.2  56.4172  0 i
 44.25  72.0402  0 i
 44.3  74.7581  0 i
 44.35  107.441  0 i
 44.4  196.096  0 i
 44.45  388.118  0 i
 44.5  933.633  0 i
 44.55  1535.36  0 i
 44.6  1805.85  0 i
 44.65  1332.36  0 i
 44.7  695.835  0 i
 44.75  299.937  0 i
 44.8  153.483  0 i
 44.85  104.766  0 i
 44.9  63.6463  0 i
 44.95  52.3047  0 i
 45  63.0349  0 i
 45.05  54.2844  0 i
 45.1  41.4708  0 i
 45.15  49.9978  0 i
 45.2  31.9184  0 i
 45.25  33.9643  0 i
 45.3  42.6439  0 i
 45.35  30.4026  0 i
 45.4  35.8088  0 i
 45.45  31.4839  0 i
 45.5  24.9257  0 i
 45.55  35.6105  0 i
 45.6  33.1593  0 i
 45.65  32.7227  0 i
 45.7  29.2811  0 i
 45.75  28.9902  0 i
 45.8  35.1032  0 i
 45.85  41.5432  0 i
 45.9  37.2482  0 i
 45.95  47.2041  0 i
 46  29.7113  0 i
 46.05  27.1491  0 i
 46.1  30.9123  0 i
 46.15  54.4322  0 i
 46.2  30.7181  0 i
 46.25  38.6025  0 i
 46.3  35.1552  0 i
 46.35  21.0294  0 i
 46.4  20.2039  0 i
 46.45  38.3328  0 i
 46.5  24.7301  0 i
 46.55  25.5284  0 i
 46.6  24.4974  0 i
 46.65  35.4523  0 i
 46.7  35.0095  0 i
 46.75  28.01  0 i
 46.8  23.1775  0 i
 46.85  31.7144  0 i
 46.9  36.1548  0 i
 46.95  36.7447  0 i
 47  33.9529  0 i
 47.05  30.581  0 i
 47.1  38.4029  0 i
 47.15  34.3291  0 i
 47.2  27.0902  0 i
 47.25  33.5909  0 i
 47.3  33.4702  0 i
 47.35  26.9467  0 i
 47.4  29.0786  0 i
 47.45  37.3651  0 i
 47.5  24.3114  0 i
 47.55  33.4045  0 i
 47.6  49.4399  0 i
 47.65  38.2053  0 i
 47.7  35.7026  0 i
 47.75  34.7815  0 i
 47.8  42.1992  0 i
 47.85  24.1757  0 i
 47.9  33.3117  0 i
 47.95  37.0695  0 i
 48  30.1618  0 i
 48.05  31.1592  0 i
 48.1  31.0074  0 i
 48.15  30.9875  0 i
 48.2  41.1467  0 i
 48.25  44.082  0 i
 48.3  27.3278  0 i
 48.35  25.1238  0 i
 48.4  25.5835  0 i
 48.45  35.6291  0 i
 48.5  30.2138  0 i
 48.55  30.1269  0 i
 48.6  37.169  0 i
 48.65  37.5491  0 i
 48.7  30.308  0 i
 48.75  36.201  0 i
 48.8  36.7494  0 i
 48.85  38.5004  0 i
 48.9  22.4033  0 i
 48.95  21.8485  0 i
 49  29.7056  0 i
 49.05  34.5606  0 i
 49.1  33.8712  0 i
 49.15  31.7099  0 i
 49.2  33.0921  0 i
 49.25  36.3854  0 i
 49.3  23.8398  0 i
 49.35  34.8406  0 i
 49.4  34.3508  0 i
 49.45  24.09  0 i
 49.5  36.3527  0 i
 49.55  33.6891  0 i
 49.6  31.6449  0 i
 49.65  37.5174  0 i
 49.7  30.4201  0 i
 49.75  27.465  0 i
 49.8  26.6867  0 i
 49.85  24.8483  0 i
 49.9  37.221  0 i
 49.95  25.0773  0 i
 50  18.4361  0 i
 50.05  33.1636  0 i
 50.1  32.9176  0 i
 50.15  41.1764  0 i
 50.2  35.5821  0 i
 50.25  32.5983  0 i
 50.3  41.0388  0 i
 50.35  48.731  0 i
 50.4  34.1577  0 i
 50.45  35.7899  0 i
 50.5  39.5793  0 i
 50.55  37.8482  0 i
 50.6  27.8029  0 i
 50.65  29.3678  0 i
 50.7  41.4553  0 i
 50.75  52.6161  0 i
 50.8  35.8396  0 i
 50.85  35.7346  0 i
 50.9  28.0737  0 i
 50.95  35.0516  0 i
 51  35.7444  0 i
 51.05  30.005  0 i
 51.1  22.984  0 i
 51.15  35.6693  0 i
 51.2  35.5324  0 i
 51.25  35.5497  0 i
 51.3  19.1604  0 i
 51.35  22.7842  0 i
 51.4  33.677  0 i
 51.45  27.9124  0 i
 51.5  26.5908  0 i
 51.55  28.3835  0 i
 51.6  35.5099  0 i
 51.65  32.0566  0 i
 51.7  42.6384  0 i
 51.75  38.1596  0 i
 51.8  26.1248  0 i
 51.85  28.5612  0 i
 51.9  24.9543  0 i
 51.95  32.1656  0 i
 52  28.0354  0 i
 52.05  32.5576  0 i
 52.1  25.9237  0 i
 52.15  22.2608  0 i
 52.2  18.3813  0 i
 52.25  31.8822  0 i
 52.3  23.0473  0 i
 52.35  35.9973  0 i
 52.4  33.903  0 i
 52.45  34.6542  0 i
 52.5  31.3164  0 i
 52.55  25.4413  0 i
 52.6  34.2617  0 i
 52.65  38.6472  0 i
 52.7  32.2549  0 i
 52.75  31.9038  0 i
 52.8  32.2016  0 i
 52.85  38.7738  0 i
 52.9  22.023  0 i
 52.95  17.4382  0 i
 53  27.1595  0 i
 53.05  28.5527  0 i
 53.1  30.2704  0 i
 53.15  33.3825  0 i
 53.2  28.4977  0 i
 53.25  30.606  0 i
 53.3  23.6575  0 i
 53.35  27.1034  0 i
 53.4  27.6034  0 i
 53.45  29.2561  0 i
 53.5  32.4905  0 i
 53.55  27.2615  0 i
 53.6  23.5012  0 i
 53.65  26.5321  0 i
 53.7  26.6637  0 i
 53.75  31.965  0 i
 53.8  34.2897  0 i
 53.85  25.554  0 i
 53.9  35.4068  0 i
 53.95  30.2825  0 i
 54  23.7218  0 i
 54.05  32.0434  0 i
 54.1  34.8024  0 i
 54.15  27.4832  0 i
 54.2  24.3028  0 i
 54.25  38.1094  0 i
 54.3  39.4693  0 i
 54.35  46.9149  0 i
 54.4  33.7736  0 i
 54.45  42.2222  0 i
 54.5  34.9511  0 i
 54.55  23.3855  0 i
 54.6  34.7055  0 i
 54.65  30.5538  0 i
 54.7  32.8359  0 i
 54.75  41.2753  0 i
 54.8  23.8369  0 i
 54.85  30.8411  0 i
 54.9  43.1432  0 i
 54.95  35.356  0 i
 55  27.9086  0 i
 55.05  28.1334  0 i
 55.1  34.6833  0 i
 55.15  28.819  0 i
 55.2  24.6401  0 i
 55.25  35.4187  0 i
 55.3  35.7932  0 i
 55.35  26.6578  0 i
 55.4  29.7648  0 i
 55.45  22.5431  0 i
 55.5  25.4467  0 i
 55.55  28.3838  0 i
 55.6  29.0777  0 i
 55.65  34.3471  0 i
 55.7  39.2153  0 i
 55.75  28.2105  0 i
 55.8  34.3819  0 i
 55.85  29.4367  0 i
 55.9  30.6546  0 i
 55.95  35.2387  0 i
 56  17.0272  0 i
 56.05  30.1544  0 i
 56.1  17.5297  0 i
 56.15  29.3911  0 i
 56.2  26.1053  0 i
 56.25  38.2484  0 i
 56.3  34.5782  0 i
 56.35  26.7864  0 i
 56.4  30.7461  0 i
 56.45  38.8441  0 i
 56.5  35.6936  0 i
 56.55  32.2565  0 i
 56.6  24.2466  0 i
 56.65  32.3309  0 i
 56.7  25.2001  0 i
 56.75  36.9618  0 i
 56.8  27.6543  0 i
 56.85  33.2444  0 i
 56.9  30.8023  0 i
 56.95  29.8762  0 i
 57  32.6169  0 i
 57.05  35.5342  0 i
 57.1  29.5889  0 i
 57.15  43.7591  0 i
 57.2  31.541  0 i
 57.25  40.6793  0 i
 57.3  25.8413  0 i
 57.35  15.5405  0 i
 57.4  30.217  0 i
 57.45  16.1498  0 i
 57.5  21.1677  0 i
 57.55  30.1588  0 i
 57.6  29.756  0 i
 57.65  32.8089  0 i
 57.7  28.7436  0 i
 57.75  28.2639  0 i
 57.8  37.6233  0 i
 57.85  34.8634  0 i
 57.9  31.1489  0 i
 57.95  31.7408  0 i
 58  18.7754  0 i
 58.05  25.1757  0 i
 58.1  32.5294  0 i
 58.15  25.7341  0 i
 58.2  16.7979  0 i
 58.25  26.6828  0 i
 58.3  24.7974  0 i
 58.35  26.7004  0 i
 58.4  26.8662  0 i
 58.45  29.5598  0 i
 58.5  35.9594  0 i
 58.55  38.5383  0 i
 58.6  31.2466  0 i
 58.65  29.4644  0 i
 58.7  38.235  0 i
 58.75  29.2873  0 i
 58.8  29.9861  0 i
 58.85  29.3686  0 i
 58.9  32.0994  0 i
 58.95  40.6817  0 i
 59  31.5742  0 i
 59.05  42.9725  0 i
 59.1  35.6642  0 i
 59.15  41.3237  0 i
 59.2  33.506  0 i
 59.25  31.8079  0 i
 59.3  32.3417  0 i
 59.35  24.6916  0 i
 59.4  29.6589  0 i
 59.45  31.0996  0 i
 59.5  30.3714  0 i
 59.55  29.8726  0 i
 59.6  25.4399  0 i
 59.65  21.2179  0 i
 59.7  33.5796  0 i
 59.75  35.1024  0 i
 59.8  37.808  0 i
 59.85  31.5957  0 i
 59.9  33.8034  0 i
 59.95  29.4474  0 i
 60  37.2433  0 i
 60.05  27.441  0 i
 60.1  34.5908  0 i
 60.15  32.9919  0 i
 60.2  32.5289  0 i
 60.25  40.6798  0 i
 60.3  25.967  0 i
 60.35  30.597  0 i
 60.4  28.7849  0 i
 60.45  17.8627  0 i
 60.5  21.3383  0 i
 60.55  29.8729  0 i
 60.6  29.9214  0 i
 60.65  36.4642  0 i
 60.7  26.628  0 i
 60.75  29.9671  0 i
 60.8  39.6306  0 i
 60.85  35.8177  0 i
 60.9  37.3352  0 i
 60.95  39.0127  0 i
 61  23.0591  0 i
 61.05  28.9609  0 i
 61.1  21.0368  0 i
 61.15  33.914  0 i
 61.2  45.5104  0 i
 61.25  31.6965  0 i
 61.3  26.7141  0 i
 61.35  34.7994  0 i
 61.4  41.6043  0 i
 61.45  36.0413  0 i
 61.5  34.931  0 i
 61.55  29.8177  0 i
 61.6  29.7473  0 i
 61.65  28.0122  0 i
 61.7  26.7147  0 i
 61.75  35.5499  0 i
 61.8  31.273  0 i
 61.85  21.4263  0 i
 61.9  34.0777  0 i
 61.95  33.2066  0 i
 62  36.6572  0 i
 62.05  35.0088  0 i
 62.1  28.6669  0 i
 62.15  23.1215  0 i
 62.2  38.0178  0 i
 62.25  34.8652  0 i
 62.3  26.6907  0 i
 62.35  30.8277  0 i
 62.4  30.6088  0 i
 62.45  31.9414  0 i
 62.5  29.5631  0 i
 62.55  37.5327  0 i
 62.6  28.5518  0 i
 62.65  23.9083  0 i
 62.7  31.5126  0 i
 62.75  21.3822  0 i
 62.8  38.0105  0 i
 62.85  26.618  0 i
 62.9  28.0272  0 i
 62.95  37.0113  0 i
 63  31.8078  0 i
 63.05  36.3406  0 i
 63.1  31.3645  0 i
 63.15  43.3611  0 i
 63.2  25.2117  0 i
 63.25  31.8898  0 i
 63.3  35.933  0 i
 63.35  28.644  0 i
 63.4  30.6136  0 i
 63.45  33.0928  0 i
 63.5  37.355  0 i
 63.55  25.3814  0 i
 63.6  27.6046  0 i
 63.65  30.0218  0 i
 63.7  21.9354  0 i
 63.75  33.9409  0 i
 63.8  22.7538  0 i
 63.85  23.2378  0 i
 63.9  33.6434  0 i
 63.95  27.5842  0 i
 64  26.659  0 i
 64.05  33.2619  0 i
 64.1  34.8572  0 i
 64.15  20.5684  0 i
 64.2  21.543  0 i
 64.25  27.9756  0 i
 64.3  38.2445  0 i
 64.35  34.7548  0 i
 64.4  27.7506  0 i
 64.45  42.0997  0 i
 64.5  30.3378  0 i
 64.55  42.1449  0 i
 64.6  58.4474  0 i
 64.65  63.3706  0 i
 64.7  82.7807  0 i
 64.75  102.603  0 i
 64.8  135.649  0 i
 64.85  149.361  0 i
 64.9  130.858  0 i
 64.95  108.806  0 i
 65  100.373  0 i
 65.05  68.3242  0 i
 65.1  65.7894  0 i
 65.15  50.3756  0 i
 65.2  29.8279  0 i
 65.25  36.7409  0 i
 65.3  40.7853  0 i
 65.35  35.0605  0 i
 65.4  35.5205  0 i
 65.45  40.9345  0 i
 65.5  24.1354  0 i
 65.55  35.0711  0 i
 65.6  33.3703  0 i
 65.65  44.446  0 i
 65.7  22.6257  0 i
 65.75  35.1371  0 i
 65.8  36.724  0 i
 65.85  35.6131  0 i
 65.9  26.9584  0 i
 65.95  36.5082  0 i
 66  47.1958  0 i
 66.05  34.1294  0 i
 66.1  28.9445  0 i
 66.15  27.4213  0 i
 66.2  32.3694  0 i
 66.25  34.8194  0 i
 66.3  34.4838  0 i
 66.35  31.4067  0 i
 66.4  37.2854  0 i
 66.45  32.1781  0 i
 66.5  24.7274  0 i
 66.55  29.4899  0 i
 66.6  29.2102  0 i
 66.65  29.0114  0 i
 66.7  34.8912  0 i
 66.75  37.9108  0 i
 66.8  27.7566  0 i
 66.85  27.2009  0 i
 66.9  49.2718  0 i
 66.95  82.6398  0 i
 67  57.2129  0 i
 67.05  36.6893  0 i
 67.1  25.4369  0 i
 67.15  38.3499  0 i
 67.2  39.0681  0 i
 67.25  20.4217  0 i
 67.3  37.6475  0 i
 67.35  26.4527  0 i
 67.4  31.8022  0 i
 67.45  29.1736  0 i
 67.5  26.5016  0 i
 67.55  27.9331  0 i
 67.6  28.148  0 i
 67.65  32.3449  0 i
 67.7  26.3092  0 i
 67.75  21.3369  0 i
 67.8  28.3208  0 i
 67.85  32.0294  0 i
 67.9  25.1722  0 i
 67.95  29.7973  0 i
 68  19.4615  0 i
 68.05  22.4658  0 i
 68.1  34.1349  0 i
 68.15  39.8425  0 i
 68.2  29.2741  0 i
 68.25  24.9104  0 i
 68.3  22.0618  0 i
 68.35  25.6283  0 i
 68.4  25.796  0 i
 68.45  34.606  0 i
 68.5  35.0552  0 i
 68.55  22.6447  0 i
 68.6  21.1903  0 i
 68.65  20.464  0 i
 68.7  28.137  0 i
 68.75  37.5853  0 i
 68.8  26.6977  0 i
 68.85  28.7412  0 i
 68.9  23.2442  0 i
 68.95  27.059  0 i
 69  38.5583  0 i
 69.05  36.0947  0 i
 69.1  46.0984  0 i
 69.15  18.1181  0 i
 69.2  26.8449  0 i
 69.25  26.3054  0 i
 69.3  29.9374  0 i
 69.35  29.7689  0 i
 69.4  28.6955  0 i
 69.45  33.9213  0 i
 69.5  26.7333  0 i
 69.55  26.059  0 i
 69.6  26.2754  0 i
 69.65  22.8438  0 i
 69.7  23.0771  0 i
 69.75  32.468  0 i
 69.8  34.0765  0 i
 69.85  24.974  0 i
 69.9  27.5592  0 i
 69.95  30.0315  0 i
 70  15.4171  0 i
 70.05  23.0263  0 i
 70.1  29.0686  0 i
 70.15  30.2694  0 i
 70.2  15.9326  0 i
 70.25  32.4093  0 i
 70.3  30.3323  0 i
 70.35  30.3063  0 i
 70.4  24.3065  0 i
 70.45  25.2417  0 i
 70.5  27.1996  0 i
 70.55  31.6037  0 i
 70.6  35.1086  0 i
 70.65  28.2248  0 i
 70.7  28.7356  0 i
 70.75  24.0555  0 i
 70.8  22.1409  0 i
 70.85  27.5577  0 i
 70.9  29.4738  0 i
 70.95  26.2197  0 i
 71  28.9834  0 i
 71.05  27.2757  0 i
 71.1  44.3875  0 i
 71.15  25.0243  0 i
 71.2  20.7918  0 i
 71.25  25.1199  0 i
 71.3  24.2824  0 i
 71.35  29.3978  0 i
 71.4  22.3779  0 i
 71.45  29.1399  0 i
 71.5  24.895  0 i
 71.55  29.642  0 i
 71.6  33.4365  0 i
 71.65  21.3308  0 i
 71.7  30.2425  0 i
 71.75  23.2273  0 i
 71.8  28.3339  0 i
 71.85  28.732  0 i
 71.9  21.6711  0 i
 71.95  22.1916  0 i
 72  24.7131  0 i
 72.05  22.6431  0 i
 72.1  31.6595  0 i
 72.15  36.5692  0 i
 72.2  24.3035  0 i
 72.25  30.5878  0 i
 72.3  23.2765  0 i
 72.35  22.4286  0 i
 72.4  34.6186  0 i
 72.45  23.7162  0 i
 72.5  21.0198  0 i
 72.55  23.8403  0 i
 72.6  26.7943  0 i
 72.65  27.1129  0 i
 72.7  26.9273  0 i
 72.75  27.1775  0 i
 72.8  26.9502  0 i
 72.85  36.6194  0 i
 72.9  35.9587  0 i
 72.95  24.2134  0 i
 73  22.5445  0 i
 73.05  27.8025  0 i
 73.1  32.7845  0 i
 73.15  31.2823  0 i
 73.2  21.4202  0 i
 73.25  25.0705  0 i
 73.3  27.1357  0 i
 73.35  23.9235  0 i
 73.4  25.5421  0 i
 73.45  34.0591  0 i
 73.5  30.8273  0 i
 73.55  29.5245  0 i
 73.6  28.233  0 i
 73.65  26.1851  0 i
 73.7  31.718  0 i
 73.75  25.477  0 i
 73.8  31.2499  0 i
 73.85  35.2175  0 i
 73.9  36.7711  0 i
 73.95  29.5307  0 i
 74  32.2288  0 i
 74.05  34.9811  0 i
 74.1  28.5503  0 i
 74.15  34.5003  0 i
 74.2  23.7794  0 i
 74.25  23.6033  0 i
 74.3  31.3893  0 i
 74.35  22.4866  0 i
 74.4  24.8337  0 i
 74.45  24.52  0 i
 74.5  31.1092  0 i
 74.55  24.9048  0 i
 74.6  31.6583  0 i
 74.65  31.3002  0 i
 74.7  32.9591  0 i
 74.75  33.5119  0 i
 74.8  32.9667  0 i
 74.85  26.8179  0 i
 74.9  30.4923  0 i
 74.95  35.4674  0 i
 75  24.3429  0 i
 75.05  19.9704  0 i
 75.1  26.9733  0 i
 75.15  22.4737  0 i
 75.2  26.3779  0 i
 75.25  29.4684  0 i
 75.3  26.0606  0 i
 75.35  27.0861  0 i
 75.4  37.5626  0 i
 75.45  34.9681  0 i
 75.5  26.0457  0 i
 75.55  30.4093  0 i
 75.6  22.0652  0 i
 75.65  30.4534  0 i
 75.7  27.424  0 i
 75.75  16.6082  0 i
 75.8  28.4495  0 i
 75.85  30.5525  0 i
 75.9  36.5719  0 i
 75.95  34.0858  0 i
 76  28.8846  0 i
 76.05  26.4761  0 i
 76.1  17.3621  0 i
 76.15  25.4097  0 i
 76.2  36.3585  0 i
 76.25  24.9562  0 i
 76.3  28.8922  0 i
 76.35  25.5171  0 i
 76.4  27.5581  0 i
 76.45  29.2104  0 i
 76.5  27.8047  0 i
 76.55  27.954  0 i
 76.6  32.1111  0 i
 76.65  27.4863  0 i
 76.7  25.8451  0 i
 76.75  30.1771  0 i
 76.8  36.191  0 i
 76.85  28.342  0 i
 76.9  37.2253  0 i
 76.95  37.7657  0 i
 77  26.0427  0 i
 77.05  35.6095  0 i
 77.1  26.2627  0 i
 77.15  21.2607  0 i
 77.2  29.4722  0 i
 77.25  26.2838  0 i
 77.3  30.1199  0 i
 77.35  27.4752  0 i
 77.4  25.7455  0 i
 77.45  25.8655  0 i
 77.5  26.0086  0 i
 77.55  30.6376  0 i
 77.6  37.324  0 i
 77.65  24.4244  0 i
 77.7  22.5368  0 i
 77.75  35.2856  0 i
 77.8  22.9437  0 i
 77.85  27.0891  0 i
 77.9  27.3134  0 i
 77.95  39.3456  0 i
 78  29.7542  0 i
 78.05  26.4098  0 i
 78.1  26.1953  0 i
 78.15  35.8253  0 i
 78.2  35.5049  0 i
 78.25  29.9581  0 i
 78.3  32.0425  0 i
 78.35  29.3717  0 i
 78.4  24.5877  0 i
 78.45  17.3071  0 i
 78.5  22.6149  0 i
 78.55  27.7271  0 i
 78.6  25.8572  0 i
 78.65  29.9138  0 i
 78.7  28.8951  0 i
 78.75  24.9419  0 i
 78.8  26.9039  0 i
 78.85  22.1763  0 i
 78.9  29.7848  0 i
 78.95  25.1661  0 i
 79  24.1294  0 i
 79.05  34.2097  0 i
 79.1  31.4071  0 i
 79.15  19.5371  0 i
 79.2  32.003  0 i
 79.25  26.1292  0 i
 79.3  44.8541  0 i
 79.35  36.365  0 i
 79.4  28.055  0 i
 79.45  24.4877  0 i
 79.5  31.2002  0 i
 79.55  26.9844  0 i
 79.6  35.3108  0 i
 79.65  28.5371  0 i
 79.7  32.8532  0 i
 79.75  30.4088  0 i
 79.8  34.7081  0 i
 79.85  30.5066  0 i
 79.9  24.8388  0 i
 79.95  37.2528  0 i
 80  18.8263  0 i
 80.05  31.1504  0 i
 80.1  36.4786  0 i
 80.15  28.4803  0 i
 80.2  24.0471  0 i
 80.25  25.5735  0 i
 80.3  22.8703  0 i
 80.35  26.158  0 i
 80.4  36.4286  0 i
 80.45  34.6985  0 i
 80.5  35.9301  0 i
 80.55  25.599  0 i
 80.6  34.3046  0 i
 80.65  29.388  0 i
 80.7  25.3452  0 i
 80.75  31.4074  0 i
 80.8  28.9255  0 i
 80.85  39.4212  0 i
 80.9  31.2851  0 i
 80.95  34.307  0 i
 81  29.6752  0 i
 81.05  21.8901  0 i
 81.1  23.5785  0 i
 81.15  32.7865  0 i
 81.2  18.4941  0 i
 81.25  26.8519  0 i
 81.3  26.6023  0 i
 81.35  29.7527  0 i
 81.4  34.2022  0 i
 81.45  37.8907  0 i
 81.5  32.2525  0 i
 81.55  36.5596  0 i
 81.6  32.9395  0 i
 81.65  25.9721  0 i
 81.7  32.6003  0 i
 81.75  35.3591  0 i
 81.8  34.7179  0 i
 81.85  41.5873  0 i
 81.9  46.5177  0 i
 81.95  65.5576  0 i
 82  86.5727  0 i
 82.05  105.686  0 i
 82.1  127.801  0 i
 82.15  126.256  0 i
 82.2  111.411  0 i
 82.25  94.1025  0 i
 82.3  85.9434  0 i
 82.35  57.6913  0 i
 82.4  48.0139  0 i
 82.45  38.2499  0 i
 82.5  45.8749  0 i
 82.55  32.8902  0 i
 82.6  28.6155  0 i
 82.65  44.1499  0 i
 82.7  39.9435  0 i
 82.75  29.5464  0 i
 82.8  42.9182  0 i
 82.85  37.6767  0 i
 82.9  28.4253  0 i
 82.95  30.8734  0 i
 83  33.0628  0 i
 83.05  23.2708  0 i
 83.1  26.8489  0 i
 83.15  31.7454  0 i
 83.2  24.519  0 i
 83.25  31.9099  0 i
 83.3  33.4855  0 i
 83.35  23.8922  0 i
 83.4  27.2347  0 i
 83.45  30.3956  0 i
 83.5  24.5054  0 i
 83.55  18.653  0 i
 83.6  33.6077  0 i
 83.65  32.6163  0 i
 83.7  34.5042  0 i
 83.75  32.4733  0 i
 83.8  29.3947  0 i
 83.85  25.239  0 i
 83.9  24.3296  0 i
 83.95  24.769  0 i
 84  24.7817  0 i
 84.05  27.7157  0 i
 84.1  23.5468  0 i
 84.15  33.2767  0 i
 84.2  15.4412  0 i
 84.25  32.251  0 i
 84.3  35.0946  0 i
 84.35  29.9674  0 i
 84.4  29.2566  0 i
 84.45  32.1419  0 i
 84.5  30.1546  0 i
 84.55  28.3124  0 i
 84.6  30.5487  0 i
 84.65  38.535  0 i
 84.7  21.1398  0 i
 84.75  23.8266  0 i
 84.8  40.4576  0 i
 84.85  28.2562  0 i
 84.9  27.5499  0 i
 84.95  27.689  0 i
 85  28.4769  0 i
 85.05  26.9059  0 i
 85.1  33.9048  0 i
 85.15  24.7616  0 i
 85.2  20.4597  0 i
 85.25  33.5677  0 i
 85.3  29.5589  0 i
 85.35  23.0553  0 i
 85.4  27.2213  0 i
 85.45  25.7768  0 i
 85.5  33.0241  0 i
 85.55  31.1808  0 i
 85.6  24.3582  0 i
 85.65  28.587  0 i
 85.7  28.0235  0 i
 85.75  32.6504  0 i
 85.8  28.1538  0 i
 85.85  23.3768  0 i
 85.9  29.2742  0 i
 85.95  31.1678  0 i
 86  31.4953  0 i
 86.05  31.6545  0 i
 86.1  31.6445  0 i
 86.15  24.9577  0 i
 86.2  29.2583  0 i
 86.25  37.5804  0 i
 86.3  23.9904  0 i
 86.35  29.6203  0 i
 86.4  26.273  0 i
 86.45  32.2933  0 i
 86.5  29.9585  0 i
 86.55  21.2357  0 i
 86.6  22.552  0 i
 86.65  27.331  0 i
 86.7  28.1346  0 i
 86.75  20.4604  0 i
 86.8  35.0105  0 i
 86.85  31.189  0 i
 86.9  38.9069  0 i
 86.95  27.1987  0 i
 87  21.5387  0 i
 87.05  31.1592  0 i
 87.1  24.5341  0 i
 87.15  32.0738  0 i
 87.2  26.6801  0 i
 87.25  30.6933  0 i
 87.3  30.7841  0 i
 87.35  33.8891  0 i
 87.4  32.982  0 i
 87.45  28.7066  0 i
 87.5  38.4992  0 i
 87.55  31.8888  0 i
 87.6  22.3902  0 i
 87.65  30.5635  0 i
 87.7  29.6761  0 i
 87.75  34.1947  0 i
 87.8  26.7164  0 i
 87.85  28.378  0 i
 87.9  31.452  0 i
 87.95  21.1944  0 i
 88  27.5528  0 i
 88.05  28.4868  0 i
 88.1  25.7264  0 i
 88.15  22.3958  0 i
 88.2  29.8147  0 i
 88.25  29.9072  0 i
 88.3  31.3675  0 i
 88.35  22.7591  0 i
 88.4  26.5583  0 i
 88.45  26.797  0 i
 88.5  35.717  0 i
 88.55  31.461  0 i
 88.6  36.4981  0 i
 88.65  35.3849  0 i
 88.7  30.4358  0 i
 88.75  34.5093  0 i
 88.8  39.2739  0 i
 88.85  26.4088  0 i
 88.9  27.0358  0 i
 88.95  29.3783  0 i
 89  29.5667  0 i
 89.05  32.9437  0 i
 89.1  25.0294  0 i
 89.15  23.5376  0 i
 89.2  30.2501  0 i
 89.25  28.6149  0 i
 89.3  23.8721  0 i
 89.35  23.0913  0 i
 89.4  18.2199  0 i
 89.45  38.2235  0 i
 89.5  25.466  0 i
 89.55  30.4391  0 i
 89.6  23.587  0 i
 89.65  27.1315  0 i
 89.7  40.4463  0 i
 89.75  40.8403  0 i
 89.8  20.724  0 i
 89.85  31.0603  0 i
 89.9  39.021  0 i
 89.95  25.5341  0 i
 90  33.5927  0 i
 90.05  32.4974  0 i
 90.1  18.2392  0 i
 90.15  34.4334  0 i
 90.2  27.0057  0 i
 90.25  25.2624  0 i
 90.3  17.1439  0 i
 90.35  24.0478  0 i
 90.4  32.6049  0 i
 90.45  36.0227  0 i
 90.5  36.4745  0 i
 90.55  30.0485  0 i
 90.6  31.4116  0 i
 90.65  35.8518  0 i
 90.7  32.1167  0 i
 90.75  24.5646  0 i
 90.8  26.4464  0 i
 90.85  30.2304  0 i
 90.9  20.1581  0 i
 90.95  29.1309  0 i
 91  26.3414  0 i
 91.05  22.2817  0 i
 91.1  30.3794  0 i
 91.15  31.6429  0 i
 91.2  33.0996  0 i
 91.25  23.6976  0 i
 91.3  29.6722  0 i
 91.35  35.4884  0 i
 91.4  31.1493  0 i
 91.45  27.7493  0 i
 91.5  30.5542  0 i
 91.55  30.6566  0 i
 91.6  27.5512  0 i
 91.65  24.1948  0 i
 91.7  19.8902  0 i
 91.75  27.4674  0 i
 91.8  28.8934  0 i
 91.85  30.7489  0 i
 91.9  30.3334  0 i
 91.95  28.5802  0 i
 92  32.0294  0 i
 92.05  21.4994  0 i
 92.1  25.627  0 i
 92.15  25.4567  0 i
 92.2  13.7457  0 i
 92.25  24.3071  0 i
 92.3  24.8311  0 i
 92.35  26.9461  0 i
 92.4  45.4358  0 i
 92.45  29.7721  0 i
 92.5  25.8994  0 i
 92.55  28.0096  0 i
 92.6  21.9456  0 i
 92.65  25.2545  0 i
 92.7  35.5859  0 i
 92.75  33.2454  0 i
 92.8  28.1177  0 i
 92.85  25.3871  0 i
 92.9  36.0558  0 i
 92.95  25.4705  0 i
 93  18.4982  0 i
 93.05  18.8073  0 i
 93.1  34.826  0 i
 93.15  23.7596  0 i
 93.2  29.4687  0 i
 93.25  19.2927  0 i
 93.3  31.5239  0 i
 93.35  23.3991  0 i
 93.4  29.1644  0 i
 93.45  25.3894  0 i
 93.5  25.319  0 i
 93.55  22.5727  0 i
 93.6  29.7709  0 i
 93.65  25.5869  0 i
 93.7  29.2774  0 i
 93.75  35.9256  0 i
 93.8  29.0201  0 i
 93.85  34.562  0 i
 93.9  28.8299  0 i
 93.95  21.9493  0 i
 94  21.4191  0 i
 94.05  31.848  0 i
 94.1  37.8915  0 i
 94.15  40.3518  0 i
 94.2  26.2393  0 i
 94.25  29.8153  0 i
 94.3  35.6645  0 i
 94.35  24.6206  0 i
 94.4  35.9409  0 i
 94.45  22.0083  0 i
 94.5  33.7535  0 i
 94.55  27.051  0 i
 94.6  38.9897  0 i
 94.65  26.9308  0 i
 94.7  32.9816  0 i
 94.75  21.3963  0 i
 94.8  37.7115  0 i
 94.85  26.5702  0 i
 94.9  31.0799  0 i
 94.95  26.6333  0 i
 95  34.0562  0 i
 95.05  26.6934  0 i
 95.1  27.9231  0 i
 95.15  31.5074  0 i
 95.2  23.006  0 i
 95.25  35.0173  0 i
 95.3  32.7548  0 i
 95.35  19.7755  0 i
 95.4  22.8252  0 i
 95.45  27.9794  0 i
 95.5  19.9154  0 i
 95.55  30.8119  0 i
 95.6  35.2739  0 i
 95.65  39.2374  0 i
 95.7  20.8525  0 i
 95.75  26.995  0 i
 95.8  27.6779  0 i
 95.85  31.0937  0 i
 95.9  23.7703  0 i
 95.95  38.7592  0 i
 96  35.6551  0 i
 96.05  32.0878  0 i
 96.1  25.641  0 i
 96.15  24.6005  0 i
 96.2  28.3436  0 i
 96.25  21.9427  0 i
 96.3  35.1318  0 i
 96.35  29.4235  0 i
 96.4  30.6076  0 i
 96.45  29.3571  0 i
 96.5  27.4888  0 i
 96.55  27.9421  0 i
 96.6  28.904  0 i
 96.65  33.6141  0 i
 96.7  15.143  0 i
 96.75  34.8352  0 i
 96.8  19.2737  0 i
 96.85  21.5965  0 i
 96.9  30.5982  0 i
 96.95  24.8131  0 i
 97  29.8976  0 i
 97.05  32.2515  0 i
 97.1  39.0496  0 i
 97.15  27.0747  0 i
 97.2  39.8126  0 i
 97.25  25.4833  0 i
 97.3  24.9751  0 i
 97.35  35.2988  0 i
 97.4  25.5579  0 i
 97.45  24.5449  0 i
 97.5  24.4168  0 i
 97.55  30.7349  0 i
 97.6  31.7417  0 i
 97.65  27.3502  0 i
 97.7  16.5804  0 i
 97.75  37.4852  0 i
 97.8  22.6009  0 i
 97.85  30.4818  0 i
 97.9  32.4137  0 i
 97.95  34.3168  0 i
 98  34.3749  0 i
 98.05  39.5645  0 i
 98.1  29.9241  0 i
 98.15  25.9062  0 i
 98.2  36.0543  0 i
 98.25  38.8036  0 i
 98.3  44.1295  0 i
 98.35  53.3158  0 i
 98.4  51.1079  0 i
 98.45  71.3204  0 i
 98.5  70.0199  0 i
 98.55  96.4733  0 i
 98.6  100.433  0 i
 98.65  128.625  0 i
 98.7  131.081  0 i
 98.75  116.084  0 i
 98.8  81.8673  0 i
 98.85  64.5448  0 i
 98.9  64.8591  0 i
 98.95  54.4274  0 i
 99  40.6076  0 i
 99.05  43.3072  0 i
 99.1  34.3028  0 i
 99.15  39.947  0 i
 99.2  41.1407  0 i
 99.25  29.6835  0 i
 99.3  36.5466  0 i
 99.35  34.153  0 i
 99.4  40.4921  0 i
 99.45  30.2198  0 i
 99.5  29.9968  0 i
 99.55  31.8015  0 i
 99.6  42.6401  0 i
 99.65  23.7148  0 i
 99.7  31.2941  0 i
 99.75  30.0256  0 i
 99.8  23.8006  0 i
 99.85  36.6486  0 i
 99.9  24.9432  0 i
 99.95  31.3648  0 i
 100  23.8878  0 i
 100.05  27.2189  0 i
 100.1  26.9431  0 i
 100.15  34.9079  0 i
 100.2  24.9471  0 i
 100.25  35.7378  0 i
 100.3  23.6921  0 i
 100.35  32.8671  0 i
 100.4  27.9632  0 i
 100.45  23.3146  0 i
 100.5  28.6861  0 i
 100.55  34.2445  0 i
 100.6  32.9027  0 i
 100.65  30.7901  0 i
 100.7  23.3099  0 i
 100.75  24.9426  0 i
 100.8  28.3196  0 i
 100.85  26.6453  0 i
 100.9  19.9679  0 i
 100.95  25.9395  0 i
 101  27.5737  0 i
 101.05  22.5151  0 i
 101.1  30.3039  0 i
 101.15  28.1355  0 i
 101.2  24.7786  0 i
 101.25  27.0283  0 i
 101.3  35.6445  0 i
 101.35  24.4011  0 i
 101.4  35.3568  0 i
 101.45  26.1127  0 i
 101.5  33.8415  0 i
 101.55  31.7626  0 i
 101.6  19.6091  0 i
 101.65  18.3737  0 i
 101.7  27.6415  0 i
 101.75  29.8542  0 i
 101.8  28.2778  0 i
 101.85  30.5347  0 i
 101.9  38.2698  0 i
 101.95  33.2593  0 i
 102  25.287  0 i
 102.05  25.1934  0 i
 102.1  37.1353  0 i
 102.15  28.2018  0 i
 102.2  29.4478  0 i
 102.25  34.4949  0 i
 102.3  32.5392  0 i
 102.35  25.7147  0 i
 102.4  32.7021  0 i
 102.45  22.2682  0 i
 102.5  27.2851  0 i
 102.55  32.2022  0 i
 102.6  37.1714  0 i
 102.65  30.4842  0 i
 102.7  26.3745  0 i
 102.75  33.9091  0 i
 102.8  33.3752  0 i
 102.85  24.2175  0 i
 102.9  26.7681  0 i
 102.95  31.5496  0 i
 103  29.2418  0 i
 103.05  16.6645  0 i
 103.1  30.3628  0 i
 103.15  19.4691  0 i
 103.2  33.9053  0 i
 103.25  27.0019  0 i
 103.3  29.1326  0 i
 103.35  34.8907  0 i
 103.4  22.2109  0 i
 103.45  33.1648  0 i
 103.5  41.2765  0 i
 103.55  35.4961  0 i
 103.6  23.227  0 i
 103.65  29.9932  0 i
 103.7  29.2697  0 i
 103.75  34.5807  0 i
 103.8  21.6968  0 i
 103.85  19.9029  0 i
 103.9  31.0785  0 i
 103.95  29.9077  0 i
 104  33.6778  0 i
 104.05  22.0817  0 i
 104.1  31.6008  0 i
 104.15  34.2877  0 i
 104.2  34.4353  0 i
 104.25  26.073  0 i
 104.3  35.7201  0 i
 104.35  35.9022  0 i
 104.4  26.1347  0 i
 104.45  25.0996  0 i
 104.5  30.6657  0 i
 104.55  30.5656  0 i
 104.6  32.5087  0 i
 104.65  31.2437  0 i
 104.7  24.1597  0 i
 104.75  30.3604  0 i
 104.8  28.117  0 i
 104.85  30.3388  0 i
 104.9  32.3856  0 i
 104.95  32.5158  0 i
 105  26.4396  0 i
 105.05  18.6311  0 i
 105.1  33.099  0 i
 105.15  35.0851  0 i
 105.2  26.4681  0 i
 105.25  18.3353  0 i
 105.3  30.1339  0 i
 105.35  34.7166  0 i
 105.4  25.8701  0 i
 105.45  22.6666  0 i
 105.5  25.8017  0 i
 105.55  29.9947  0 i
 105.6  30.6095  0 i
 105.65  26.3997  0 i
 105.7  23.1677  0 i
 105.75  33.8752  0 i
 105.8  28.4673  0 i
 105.85  42.7157  0 i
 105.9  31.2917  0 i
 105.95  26.3457  0 i
 106  25.204  0 i
 106.05  21.6985  0 i
 106.1  30.3544  0 i
 106.15  46.2141  0 i
 106.2  21.5733  0 i
 106.25  39.511  0 i
 106.3  30.8405  0 i
 106.35  29.6457  0 i
 106.4  32.2055  0 i
 106.45  26.9464  0 i
 106.5  24.5104  0 i
 106.55  25.067  0 i
 106.6  23.3198  0 i
 106.65  41.6953  0 i
 106.7  24.6613  0 i
 106.75  24.6986  0 i
 106.8  36.9928  0 i
 106.85  33.0788  0 i
 106.9  20.219  0 i
 106.95  20.8577  0 i
 107  29.8174  0 i
 107.05  17.4952  0 i
 107.1  31.3713  0 i
 107.15  33.3574  0 i
 107.2  34.4343  0 i
 107.25  27.3608  0 i
 107.3  31.6781  0 i
 107.35  30.6476  0 i
 107.4  31.7699  0 i
 107.45  22.0698  0 i
 107.5  28.09  0 i
 107.55  29.0226  0 i
 107.6  30.7881  0 i
 107.65  30.3107  0 i
 107.7  30.5109  0 i
 107.75  29.2413  0 i
 107.8  34.3574  0 i
 107.85  29.7264  0 i
 107.9  27.7124  0 i
 107.95  32.2218  0 i
 108  27.3406  0 i
 108.05  34.1692  0 i
 108.1  32.736  0 i
 108.15  33.078  0 i
 108.2  32.4663  0 i
 108.25  29.5427  0 i
 108.3  26.2736  0 i
 108.35  40.5652  0 i
 108.4  27.0859  0 i
 108.45  26.4289  0 i
 108.5  25.6111  0 i
 108.55  23.0699  0 i
 108.6  21.6136  0 i
 108.65  29.7224  0 i
 108.7  30.3553  0 i
 108.75  36.5711  0 i
 108.8  33.0166  0 i
 108.85  29.1991  0 i
 108.9  25.6801  0 i
 108.95  34.401  0 i
 109  26.1844  0 i
 109.05  26.7282  0 i
 109.1  32.9607  0 i
 109.15  23.162  0 i
 109.2  26.2883  0 i
 109.25  27.7476  0 i
 109.3  27.6769  0 i
 109.35  31.9251  0 i
 109.4  24.2102  0 i
 109.45  28.2283  0 i
 109.5  29.2908  0 i
 109.55  28.1144  0 i
 109.6  34.1194  0 i
 109.65  31.0323  0 i
 109.7  22.0932  0 i
 109.75  25.3722  0 i
 109.8  23.4265  0 i
 109.85  29.412  0 i
 109.9  31.814  0 i
 109.95  25.6423  0 i
 110  28.4938  0 i
 110.05  27.1289  0 i
 110.1  24.3378  0 i
 110.15  24.6045  0 i
 110.2  44.3518  0 i
 110.25  24.9675  0 i
 110.3  18.6286  0 i
 110.35  28.7269  0 i
 110.4  26.9071  0 i
 110.45  33.7246  0 i
 110.5  40.2601  0 i
 110.55  26.3668  0 i
 110.6  29.0693  0 i
 110.65  27.4116  0 i
 110.7  30.5442  0 i
 110.75  29.4202  0 i
 110.8  27.5339  0 i
 110.85  26.719  0 i
 110.9  25.1842  0 i
 110.95  35.0468  0 i
 111  37.3238  0 i
 111.05  37.4628  0 i
 111.1  29.6771  0 i
 111.15  30.3558  0 i
 111.2  29.535  0 i
 111.25  23.1206  0 i
 111.3  27.9519  0 i
 111.35  30.4625  0 i
 111.4  39.5511  0 i
 111.45  24.7954  0 i
 111.5  25.3063  0 i
 111.55  27.1375  0 i
 111.6  38.0015  0 i
 111.65  36.0848  0 i
 111.7  31.6019  0 i
 111.75  32.986  0 i
 111.8  23.7017  0 i
 111.85  33.267  0 i
 111.9  19.6679  0 i
 111.95  42.5349  0 i
 112  28.4958  0 i
 112.05  29.5112  0 i
 112.1  29.7978  0 i
 112.15  21.5237  0 i
 112.2  29.1114  0 i
 112.25  25.2792  0 i
 112.3  28.573  0 i
 112.35  37.5944  0 i
 112.4  32.3615  0 i
 112.45  26.644  0 i
 112.5  22.5174  0 i
 112.55  21.1465  0 i
 112.6  43.2116  0 i
 112.65  25.4658  0 i
 112.7  38.3586  0 i
 112.75  27.6218  0 i
 112.8  29.416  0 i
 112.85  37.7544  0 i
 112.9  33.0704  0 i
 112.95  34.954  0 i
 113  25.9459  0 i
 113.05  28.2187  0 i
 113.1  26.6454  0 i
 113.15  25.4845  0 i
 113.2  37.4876  0 i
 113.25  33.4446  0 i
 113.3  31.4983  0 i
 113.35  33.649  0 i
 113.4  30.3328  0 i
 113.45  24.2464  0 i
 113.5  28.2647  0 i
 113.55  21.2588  0 i
 113.6  40.9797  0 i
 113.65  25.9686  0 i
 113.7  29.4643  0 i
 113.75  31.4223  0 i
 113.8  33.0487  0 i
 113.85  27.3165  0 i
 113.9  25.4627  0 i
 113.95  35.8195  0 i
 114  37.6669  0 i
 114.05  28.3783  0 i
 114.1  39.5864  0 i
 114.15  34.4142  0 i
 114.2  30.9362  0 i
 114.25  38.0094  0 i
 114.3  27.6599  0 i
 114.35  42.0457  0 i
 114.4  22.3106  0 i
 114.45  25.4021  0 i
 114.5  36.6376  0 i
 114.55  37.5246  0 i
 114.6  30.6795  0 i
 114.65  31.8336  0 i
 114.7  33.0691  0 i
 114.75  31.1641  0 i
 114.8  22.1012  0 i
 114.85  34.0875  0 i
 114.9  27.0482  0 i
 114.95  35.257  0 i
 115  24.1502  0 i
 115.05  38.0362  0 i
 115.1  32.3012  0 i
 115.15  24.897  0 i
 115.2  42.4905  0 i
 115.25  35.1979  0 i
 115.3  41.0576  0 i
 115.35  50.1675  0 i
 115.4  25.2257  0 i
 115.45  37.3705  0 i
 115.5  40.0831  0 i
 115.55  44.7661  0 i
 115.6  49.0652  0 i
 115.65  53.6735  0 i
 115.7  56.5909  0 i
 115.75  70.9771  0 i
 115.8  60.3547  0 i
 115.85  70.5336  0 i
 115.9  76.0337  0 i
 115.95  78.9103  0 i
 116  65.8899  0 i
 116.05  71.8161  0 i
 116.1  74.8607  0 i
 116.15  66.811  0 i
 116.2  70.9241  0 i
 116.25  62.2262  0 i
 116.3  37.102  0 i
 116.35  51.0493  0 i
 116.4  46.2376  0 i
 116.45  48.965  0 i
 116.5  50.3464  0 i
 116.55  34.1345  0 i
 116.6  37.5447  0 i
 116.65  33.3252  0 i
 116.7  38.7327  0 i
 116.75  28.2721  0 i
 116.8  40.4077  0 i
 116.85  31.0617  0 i
 116.9  33.111  0 i
 116.95  26.4027  0 i
 117  29.604  0 i
 117.05  34.6034  0 i
 117.1  20.2479  0 i
 117.15  26.4605  0 i
 117.2  22.083  0 i
 117.25  26.5313  0 i
 117.3  25.1914  0 i
 117.35  29.1021  0 i
 117.4  38.2066  0 i
 117.45  34.8688  0 i
 117.5  22.0923  0 i
 117.55  23.4321  0 i
 117.6  29.98  0 i
 117.65  40.3994  0 i
 117.7  41.4263  0 i
 117.75  38.2412  0 i
 117.8  39.883  0 i
 117.85  29.7499  0 i
 117.9  29.6567  0 i
 117.95  35.5834  0 i
 118  27.9421  0 i
 118.05  35.7174  0 i
 118.1  28.6667  0 i
 118.15  24.5857  0 i
 118.2  27.8216  0 i
 118.25  33.8938  0 i
 118.3  20.9475  0 i
 118.35  28.5533  0 i
 118.4  33.7835  0 i
 118.45  25.0835  0 i
 118.5  27.0422  0 i
 118.55  26.4091  0 i
 118.6  27.1524  0 i
 118.65  29.1075  0 i
 118.7  27.4784  0 i
 118.75  40.0351  0 i
 118.8  28.6588  0 i
 118.85  32.1066  0 i
 118.9  23.2823  0 i
 118.95  37.4298  0 i
 119  33.3902  0 i
 119.05  30.0222  0 i
 119.1  41.5146  0 i
 119.15  28.8327  0 i
 119.2  42.016  0 i
 119.25  24.2099  0 i
 119.3  26.6147  0 i
 119.35  28.0983  0 i
 119.4  30.1926  0 i
 119.45  30.5052  0 i
 119.5  26.7238  0 i
 119.55  40.908  0 i
 119.6  31.6631  0 i
 119.65  22.2058  0 i
 119.7  33.5862  0 i
 119.75  26.6097  0 i
 119.8  29.6432  0 i
 119.85  30.9173  0 i
 119.9  27.5523  0 i
 119.95  27.6271  0 i
 120  27.5653  0 i
 120.05  27.7258  0 i
 120.1  36.7824  0 i
 120.15  24.184  0 i
 120.2  24.7156  0 i
 120.25  36.5814  0 i
 120.3  38.5652  0 i
 120.35  35.5214  0 i
 120.4  45.3067  0 i
 120.45  32.6679  0 i
 120.5  33.7325  0 i
 120.55  23.0343  0 i
 120.6  22.8123  0 i
 120.65  27.5859  0 i
 120.7  24.3457  0 i
 120.75  35.2404  0 i
 120.8  28.1419  0 i
 120.85  28.3195  0 i
 120.9  32.5699  0 i
 120.95  29.2547  0 i
 121  27.8657  0 i
 121.05  22.4546  0 i
 121.1  23.9257  0 i
 121.15  25.6446  0 i
 121.2  26.9385  0 i
 121.25  24.473  0 i
 121.3  24.9076  0 i
 121.35  25.9332  0 i
 121.4  34.3067  0 i
 121.45  29.7478  0 i
 121.5  23.4114  0 i
 121.55  24.4842  0 i
 121.6  44.2196  0 i
 121.65  28.2854  0 i
 121.7  29.8745  0 i
 121.75  32.6073  0 i
 121.8  32.2125  0 i
 121.85  26.6514  0 i
 121.9  20.9768  0 i
 121.95  24.0222  0 i
 122  28.0093  0 i
 122.05  36.2066  0 i
 122.1  31.7597  0 i
 122.15  29.0807  0 i
 122.2  33.7169  0 i
 122.25  30.4139  0 i
 122.3  37.3914  0 i
 122.35  28.4765  0 i
 122.4  22.4077  0 i
 122.45  34.462  0 i
 122.5  24.7988  0 i
 122.55  28.6987  0 i
 122.6  26.711  0 i
 122.65  18.4874  0 i
 122.7  24.4308  0 i
 122.75  33.4399  0 i
 122.8  25.8384  0 i
 122.85  35.0178  0 i
 122.9  22.2925  0 i
 122.95  29.2722  0 i
 123  26.86  0 i
 123.05  25.1125  0 i
 123.1  36.777  0 i
 123.15  26.7701  0 i
 123.2  25.0359  0 i
 123.25  24.3055  0 i
 123.3  37.023  0 i
 123.35  30.6482  0 i
 123.4  32.8033  0 i
 123.45  30.3912  0 i
 123.5  28.1585  0 i
 123.55  23.7393  0 i
 123.6  28.6756  0 i
 123.65  37.4991  0 i
 123.7  26.5799  0 i
 123.75  24.552  0 i
 123.8  33.1725  0 i
 123.85  30.8342  0 i
 123.9  29.3224  0 i
 123.95  33.4897  0 i
 124  32.681  0 i
 124.05  32.2963  0 i
 124.1  27.0117  0 i
 124.15  26.3945  0 i
 124.2  43.8734  0 i
 124.25  30.8365  0 i
 124.3  17.9594  0 i
 124.35  30.6225  0 i
 124.4  28.4835  0 i
 124.45  27.2979  0 i
 124.5  38.5671  0 i
 124.55  21.8177  0 i
 124.6  31.541  0 i
 124.65  26.2579  0 i
 124.7  27.0858  0 i
 124.75  23.7591  0 i
 124.8  24.8683  0 i
 124.85  26.8708  0 i
 124.9  29.255  0 i
 124.95  25.7637  0 i
 125  34.6183  0 i
 125.05  28.3962  0 i
 125.1  41.455  0 i
 125.15  25.8962  0 i
 125.2  29.5994  0 i
 125.25  27.2343  0 i
 125.3  19.0795  0 i
 125.35  28.0921  0 i
 125.4  32.5127  0 i
 125.45  29.9052  0 i
 125.5  30.2721  0 i
 125.55  24.1677  0 i
 125.6  26.0696  0 i
 125.65  22.9776  0 i
 125.7  30.2799  0 i
 125.75  36.4078  0 i
 125.8  29.4564  0 i
 125.85  28.2048  0 i
 125.9  19.4553  0 i
 125.95  26.2176  0 i
 126  35.5025  0 i
 126.05  39.2959  0 i
 126.1  31.0593  0 i
 126.15  25.5197  0 i
 126.2  28.728  0 i
 126.25  20.7748  0 i
 126.3  30.9176  0 i
 126.35  24.5021  0 i
 126.4  28.5449  0 i
 126.45  35.81  0 i
 126.5  30.9268  0 i
 126.55  31.9657  0 i
 126.6  28.6603  0 i
 126.65  34.1361  0 i
 126.7  29.7626  0 i
 126.75  32.7838  0 i
 126.8  23.9319  0 i
 126.85  26.7313  0 i
 126.9  32.8057  0 i
 126.95  37.4295  0 i
 127  31.1929  0 i
 127.05  31.7737  0 i
 127.1  25.8085  0 i
 127.15  25.7523  0 i
 127.2  25.8387  0 i
 127.25  38.0973  0 i
 127.3  30.1364  0 i
 127.35  26.1083  0 i
 127.4  29.9819  0 i
 127.45  33.5839  0 i
 127.5  25.6763  0 i
 127.55  31.6199  0 i
 127.6  33.5534  0 i
 127.65  28.864  0 i
 127.7  21.3766  0 i
 127.75  25.4543  0 i
 127.8  28.2729  0 i
 127.85  29.0836  0 i
 127.9  29.8608  0 i
 127.95  28.1066  0 i
 128  37.2269  0 i
 128.05  27.7655  0 i
 128.1  33.1005  0 i
 128.15  17.4442  0 i
 128.2  25.9392  0 i
 128.25  29.3906  0 i
 128.3  33.5214  0 i
 128.35  32.6701  0 i
 128.4  36.5034  0 i
 128.45  27.7698  0 i
 128.5  34.9757  0 i
 128.55  30.3881  0 i
 128.6  30.9553  0 i
 128.65  20.1778  0 i
 128.7  35.0777  0 i
 128.75  33.6807  0 i
 128.8  36.5717  0 i
 128.85  31.338  0 i
 128.9  27.2655  0 i
 128.95  29.3485  0 i
 129  26.7323  0 i
 129.05  24.3664  0 i
 129.1  36.08  0 i
 129.15  36.1416  0 i
 129.2  36.9345  0 i
 129.25  36.8403  0 i
 129.3  32.7166  0 i
 129.35  40.3173  0 i
 129.4  23.3142  0 i
 129.45  29.2798  0 i
 129.5  33.1056  0 i
 129.55  34.9496  0 i
 129.6  35.2761  0 i
 129.65  23.1164  0 i
 129.7  30.5117  0 i
 129.75  21.7229  0 i
 129.8  27.2816  0 i
 129.85  24.9366  0 i
 129.9  26.9891  0 i
 129.95  27.8748  0 i
 130  22.3582  0 i

