40 35.9534 5.99611540916284
40.05 49.3036 7.02165222721832
40.1 29.351 5.41765631984902
40.15 19.4918 4.41495186836731
40.2 40.1044 6.33280348660844
40.25 37.7786 6.14642985805581
40.3 43.2514 6.57657965815058
40.35 47.9477 6.92442777419189
40.4 42.8697 6.54749570446594
40.45 31.3926 5.60290995822706
40.5 38.5006 6.2048851721849
40.55 38.5652 6.21008856619614
40.6 42.9458 6.55330450994
40.65 32.4879 5.69981578649696
40.7 45.4255 6.73984421184941
40.75 38.8654 6.23421205927421
40.8 43.899 6.62563204532217
40.85 43.2753 6.57839646114462
40.9 24.9307 4.9930651908422
40.95 33.5764 5.79451464749206
41 43.2525 6.57666328771665
41.05 53.7805 7.33351893704516
41.1 30.3844 5.51220464061341
41.15 41.8174 6.4666374569787
41.2 42.6187 6.52829993183524
41.25 36.5769 6.0478839274576
41.3 34.9481 5.91169180522801
41.35 35.1574 5.92936758853758
41.4 30.5596 5.52807380558545
41.45 38.5239 6.20676244107989
41.5 36.0489 6.00407361713695
41.55 38.4193 6.19833042036321
41.6 29.5316 5.43429848278506
41.65 31.7821 5.6375615295977
41.7 31.6532 5.62611766673965
41.75 41.5305 6.44441618767752
41.8 39.8351 6.3115053671846
41.85 38.3954 6.19640218191169
41.9 31.3759 5.60141946295758
41.95 28.2577 5.315797212084
42 37.9984 6.16428422446597
42.05 29.8663 5.46500686184382
42.1 39.3122 6.2699441783799
42.15 30.8236 5.55190057547864
42.2 34.4917 5.87296347681475
42.25 26.7828 5.17521014066096
42.3 41.7582 6.46205849555697
42.35 41.4468 6.43791891840834
42.4 29.0013 5.38528550775165
42.45 32.7547 5.72317219730457
42.5 41.7816 6.46386881054992
42.55 33.7565 5.81003442330594
42.6 49.3202 7.02283418571163
42.65 34.1417 5.84308993598421
42.7 29.565 5.43737068811756
42.75 45.3565 6.73472345386208
42.8 33.7901 5.81292525326105
42.85 37.7794 6.14649493614043
42.9 40.2087 6.34103303886677
42.95 35.9351 5.99458922696126
43 34.4615 5.87039180975171
43.05 30.141 5.49008196660123
43.1 29.9336 5.47116075435551
43.15 40.9904 6.40237455948963
43.2 46.4895 6.81832090767221
43.25 28.6286 5.35057006308674
43.3 33.2123 5.76301136559698
43.35 33.357 5.77555192167813
43.4 35.9536 5.99613208660383
43.45 35.7296 5.97742419441686
43.5 37.5791 6.13017944272433
43.55 39.5269 6.28704222985658
43.6 35.8882 5.99067608872321
43.65 43.556 6.59969696274003
43.7 47.585 6.89818816791772
43.75 34.7925 5.89851676271247
43.8 41.279 6.4248735396115
43.85 45.0038 6.70848716179736
43.9 44.506 6.67128173591852
43.95 44.6922 6.68522250938591
44 43.5094 6.59616555280414
44.05 43.8252 6.62006042268498
44.1 46.2304 6.79929408100576
44.15 54.5537 7.38604765757709
44.2 56.4172 7.51113839574269
44.25 72.0402 8.48764985140174
44.3 74.7581 8.64627665530082
44.35 107.4411 10.3653798772645
44.4 196.0956 14.003413869482
44.45 388.1176 19.7007004951601
44.5 933.6332 30.5554119592585
44.55 1535.3569 39.183630510712
44.6 1805.8506 42.4953009166896
44.65 1332.3624 36.5015396935527
44.7 695.8348 26.3786807858164
44.75 299.9368 17.3186835527415
44.8 153.4829 12.3888215743064
44.85 104.7662 10.235536136422
44.9 63.6463 7.97786312241568
44.95 52.3047 7.23219883576219
45 63.0349 7.93945212215553
45.05 54.2844 7.36779478541578
45.1 41.4708 6.43978260502635
45.15 49.9978 7.07091224666238
45.2 31.9184 5.64963715649067
45.25 33.9643 5.82788984110029
45.3 42.6439 6.53022970499507
45.35 30.4026 5.51385527557625
45.4 35.8088 5.98404545437282
45.45 31.4839 5.61105159484388
45.5 24.9257 4.99256447129128
45.55 35.6105 5.96745339319881
45.6 33.1593 5.75841123922215
45.65 32.7227 5.72037586177692
45.7 29.2811 5.41120134535761
45.75 28.9902 5.38425482309298
45.8 35.1032 5.92479535511565
45.85 41.5432 6.44540146150727
45.9 37.2482 6.1031303443397
45.95 47.2041 6.87052399748374
46 29.7113 5.45080727966051
46.05 27.1491 5.21047982435399
46.1 30.9123 5.5598830922961
46.15 54.4322 7.37781810564614
46.2 30.7181 5.54239118070892
46.25 38.6025 6.21309101816479
46.3 35.1552 5.92918206838009
46.35 21.0294 4.58578237599649
46.4 20.2039 4.49487485921466
46.45 38.3328 6.19134880296693
46.5 24.7301 4.97293675809375
46.55 25.5284 5.05256370568447
46.6 24.4974 4.94948482167589
46.65 35.4523 5.95418340328882
46.7 35.0095 5.91688262516674
46.75 28.01 5.2924474489597
46.8 23.1775 4.81430161082581
46.85 31.7144 5.63155395961008
46.9 36.1548 6.01288616223524
46.95 36.7447 6.06174067409684
47 33.9529 5.82691170346694
47.05 30.581 5.53000904158393
47.1 38.4029 6.19700734225804
47.15 34.3291 5.85910402706762
47.2 27.0902 5.2048246848477
47.25 33.5909 5.7957656957472
47.3 33.4702 5.78534355073232
47.35 26.9467 5.19102109415864
47.4 29.0786 5.39245769570796
47.45 37.3651 6.11269989448198
47.5 24.3114 4.93065918513945
47.55 33.4045 5.7796626199113
47.6 49.4399 7.03135122149363
47.65 38.2053 6.18104360120522
47.7 35.7026 5.97516526968083
47.75 34.7815 5.89758425119981
47.8 42.1992 6.49609113236568
47.85 24.1757 4.91687909145629
47.9 33.3117 5.77162888619842
47.95 37.0695 6.08847271489328
48 30.1618 5.49197596498747
48.05 31.1592 5.58204263688482
48.1 31.0074 5.56842886279424
48.15 30.9875 5.56664171651095
48.2 41.1467 6.41456935421233
48.25 44.082 6.63942768617898
48.3 27.3278 5.22759983166271
48.35 25.1238 5.01236471139122
48.4 25.5835 5.05801344403116
48.45 35.6291 5.96901164348002
48.5 30.2138 5.49670810576658
48.55 30.1269 5.48879768255307
48.6 37.169 6.09663841801365
48.65 37.5491 6.12773204374996
48.7 30.308 5.50527020226982
48.75 36.201 6.01672668483454
48.8 36.7494 6.06212833912315
48.85 38.5004 6.20486905583027
48.9 22.4033 4.73321243977069
48.95 21.8485 4.67423790579812
49 29.7056 5.45028439624943
49.05 34.5606 5.87882641349445
49.1 33.8712 5.81989690630341
49.15 31.7099 5.63115441095341
49.2 33.0921 5.75257333721179
49.25 36.3854 6.03203116702823
49.3 23.8398 4.88260176545251
49.35 34.8406 5.90259265069173
49.4 34.3508 5.86095555349126
49.45 24.09 4.90815647672321
49.5 36.3527 6.02932002799652
49.55 33.6891 5.80423121524289
49.6 31.6449 5.62537998716531
49.65 37.5174 6.12514489624531
49.7 30.4201 5.51544195871917
49.75 27.465 5.24070605930155
49.8 26.6867 5.16591714993572
49.85 24.8483 4.98480691702296
49.9 37.221 6.10090157271858
49.95 25.0773 5.00772403392998
50 18.4361 4.29372798393191
50.05 33.1636 5.75878459399203
50.1 32.9176 5.73738616444806
50.15 41.1764 6.41688397900414
50.2 35.5821 5.96507334405873
50.25 32.5983 5.70949209650035
50.3 41.0388 6.40615329195298
50.35 48.731 6.98075927102489
50.4 34.1577 5.84445891421952
50.45 35.7899 5.98246604670683
50.5 39.5793 6.29120815106288
50.55 37.8482 6.15208907607814
50.6 27.8029 5.27284553158918
50.65 29.3678 5.41920658399364
50.7 41.4553 6.43857903578111
50.75 52.6161 7.25369560982538
50.8 35.8396 5.98661841108985
50.85 35.7346 5.97784242013789
50.9 28.0737 5.29846204100775
50.95 35.0516 5.92043917289925
51 35.7444 5.97866205768481
51.05 30.005 5.47768199149969
51.1 22.984 4.7941631177923
51.15 35.6693 5.97237808582143
51.2 35.5324 5.96090597141072
51.25 35.5497 5.96235691652219
51.3 19.1604 4.37725941657563
51.35 22.7842 4.77327979485804
51.4 33.677 5.80318877859406
51.45 27.9124 5.28321871589659
51.5 26.5908 5.15662680441391
51.55 28.3835 5.32761672795632
51.6 35.5099 5.95901837553804
51.65 32.0566 5.66185481975651
51.7 42.6384 6.52980857299814
51.75 38.1596 6.17734570831194
51.8 26.1248 5.11124251038825
51.85 28.5612 5.34426795735394
51.9 24.9543 4.99542790959894
51.95 32.1656 5.67147247194236
52 28.0354 5.29484655112875
52.05 32.5576 5.70592674330822
52.1 25.9237 5.09153218589454
52.15 22.2608 4.71813522485314
52.2 18.3813 4.28734183381731
52.25 31.8822 5.6464325020317
52.3 23.0473 4.80076035644355
52.35 35.9973 5.99977499578109
52.4 33.903 5.82262827252436
52.45 34.6542 5.88678180332854
52.5 31.3164 5.59610578884996
52.55 25.4413 5.04393695440377
52.6 34.2617 5.85334946846675
52.65 38.6472 6.21668722069882
52.7 32.2549 5.67933975035831
52.75 31.9038 5.64834489031964
52.8 32.2016 5.67464536336853
52.85 38.7738 6.22686116755465
52.9 22.023 4.69286692758275
52.95 17.4382 4.17590708708898
53 27.1595 5.2114777175001
53.05 28.5527 5.34347265362143
53.1 30.2704 5.50185423289276
53.15 33.3825 5.77775908116633
53.2 28.4977 5.33832370693273
53.25 30.606 5.53226897393827
53.3 23.6575 4.86389761405398
53.35 27.1034 5.20609258465502
53.4 27.6034 5.25389379413022
53.45 29.2561 5.40889082899627
53.5 32.4905 5.70004385948038
53.55 27.2615 5.22125463849447
53.6 23.5012 4.84780362638587
53.65 26.5321 5.15093195451076
53.7 26.6637 5.1636905406889
53.75 31.965 5.65375981095766
53.8 34.2897 5.85574077295093
53.85 25.554 5.05509643824923
53.9 35.4068 5.95036133356622
53.95 30.2825 5.5029537523043
54 23.7218 4.87050305410026
54.05 32.0434 5.66068900399942
54.1 34.8024 5.89935589704503
54.15 27.4832 5.2424421789849
54.2 24.3028 4.92978701365485
54.25 38.1094 6.17328113728834
54.3 39.4693 6.28245970938135
54.35 46.9149 6.84944523300975
54.4 33.7736 5.8115058289569
54.45 42.2222 6.49786118657516
54.5 34.9511 5.9119455342552
54.55 23.3855 4.83585566368559
54.6 34.7055 5.89113741140028
54.65 30.5538 5.5275491856699
54.7 32.8359 5.73026177412516
54.75 41.2753 6.42458558974818
54.8 23.8369 4.88230478360374
54.85 30.8411 5.55347638871365
54.9 43.1432 6.56834834642622
54.95 35.356 5.94609115301809
55 27.9086 5.2828590744028
55.05 28.1334 5.30409275936988
55.1 34.6833 5.88925292375867
55.15 28.819 5.3683330746145
55.2 24.6401 4.96387953117317
55.25 35.4187 5.95136118883739
55.3 35.7932 5.98274184634437
55.35 26.6578 5.16311921225919
55.4 29.7648 5.45571260240127
55.45 22.5431 4.74795745558024
55.5 25.4467 5.04447222214574
55.55 28.3838 5.32764488306043
55.6 29.0777 5.39237424517253
55.65 34.3471 5.86063989680308
55.7 39.2153 6.26221206922921
55.75 28.2105 5.31135575912591
55.8 34.3819 5.86360810423071
55.85 29.4367 5.42555987894337
55.9 30.6546 5.53665964278102
55.95 35.2387 5.93621933557041
56 17.0272 4.12640279177882
56.05 30.1544 5.49130221350091
56.1 17.5297 4.1868484567751
56.15 29.3911 5.42135591895607
56.2 26.1053 5.10933459464146
56.25 38.2484 6.18452908474041
56.3 34.5782 5.88032312037357
56.35 26.7864 5.17555794093738
56.4 30.7461 5.54491659089657
56.45 38.8441 6.23250350982653
56.5 35.6936 5.97441210496899
56.55 32.2565 5.67948061005582
56.6 24.2466 4.92408367110064
56.65 32.3309 5.68602673226217
56.7 25.2001 5.01997011943298
56.75 36.9618 6.07962169875725
56.8 27.6543 5.25873558947396
56.85 33.2444 5.7657956953052
56.9 30.8023 5.54998198195273
56.95 29.8762 5.46591254961146
57 32.6169 5.71112073064473
57.05 35.5342 5.96105695325921
57.1 29.5889 5.43956799755275
57.15 43.7591 6.61506613723552
57.2 31.541 5.61613746270513
57.25 40.6793 6.37803261202073
57.3 25.8413 5.08343387878705
57.35 15.5405 3.94214408666147
57.4 30.217 5.4969991813716
57.45 16.1498 4.01868137577489
57.5 21.1677 4.6008368803947
57.55 30.1588 5.49170283245552
57.6 29.756 5.45490604868681
57.65 32.8089 5.7279053763134
57.7 28.7436 5.36130581108744
57.75 28.2639 5.31638034756732
57.8 37.6233 6.13378349797252
57.85 34.8634 5.90452368951129
57.9 31.1489 5.58111995929132
57.95 31.7408 5.63389740765662
58 18.7754 4.3330589656731
58.05 25.1757 5.01753923751474
58.1 32.5294 5.70345509318694
58.15 25.7341 5.07287886707341
58.2 16.7979 4.09852412460876
58.25 26.6828 5.16553966202952
58.3 24.7974 4.9796987860713
58.35 26.7004 5.16724297861055
58.4 26.8662 5.18326152147468
58.45 29.5598 5.43689249479884
58.5 35.9594 5.99661571221635
58.55 38.5383 6.20792235776189
58.6 31.2466 5.58986583023242
58.65 29.4644 5.42811201063501
58.7 38.235 6.18344564138798
58.75 29.2873 5.41177420075893
58.8 29.9861 5.47595653744622
58.85 29.3686 5.41928039503401
58.9 32.0994 5.66563323910046
58.95 40.6817 6.37822075503819
59 31.5742 5.61909245341274
59.05 42.9725 6.55534133359965
59.1 35.6642 5.97195110495724
59.15 41.3237 6.42835126607126
59.2 33.506 5.78843674924413
59.25 31.8079 5.6398492887665
59.3 32.3417 5.68697634952002
59.35 24.6916 4.96906429823563
59.4 29.6589 5.44599853103175
59.45 31.0996 5.57670153406115
59.5 30.3714 5.51102531295221
59.55 29.8726 5.46558322596958
59.6 25.4399 5.04379817201283
59.65 21.2179 4.60628917893786
59.7 33.5796 5.794790764126
59.75 35.1024 5.92472784185063
59.8 37.808 6.14882102520475
59.85 31.5957 5.62100524817403
59.9 33.8034 5.81406914303571
59.95 29.4474 5.42654586270124
60 37.2433 6.10272889779646
60.05 27.441 5.23841579105745
60.1 34.5908 5.88139439248891
60.15 32.9919 5.74385758876384
60.2 32.5289 5.70341125993909
60.25 40.6798 6.37807180894038
60.3 25.967 5.09578256992976
60.35 30.597 5.53145550465698
60.4 28.7849 5.36515610210924
60.45 17.8627 4.22642875250489
60.5 21.3383 4.61933977966549
60.55 29.8729 5.46561067036429
60.6 29.9214 5.47004570364819
60.65 36.4642 6.03855943085766
60.7 26.628 5.16023255289914
60.75 29.9671 5.47422140582567
60.8 39.6306 6.2952839491162
60.85 35.8177 5.98478905225573
60.9 37.3352 6.11025367722159
60.95 39.0127 6.24601472940947
61 23.0591 4.80198917116647
61.05 28.9609 5.38153323877127
61.1 21.0368 4.58658914663173
61.15 33.914 5.8235727865289
61.2 45.5104 6.74613963685899
61.25 31.6965 5.62996447590924
61.3 26.7141 5.16856846718702
61.35 34.7994 5.89910162651907
61.4 41.6043 6.45013953337445
61.45 36.0413 6.00344068014335
61.5 34.931 5.91024534177728
61.55 29.8177 5.46055857948617
61.6 29.7473 5.45410854310766
61.65 28.0122 5.29265528822726
61.7 26.7147 5.16862651001211
61.75 35.5499 5.96237368838955
61.8 31.273 5.59222674790642
61.85 21.4263 4.6288551500344
61.9 34.0777 5.83761081265272
61.95 33.2066 5.7625168112553
62 36.6572 6.05451897346106
62.05 35.0088 5.91682347210055
62.1 28.6669 5.35414792474022
62.15 23.1215 4.80848208897569
62.2 38.0178 6.16585760458349
62.25 34.8652 5.90467611304803
62.3 26.6907 5.16630428836707
62.35 30.8277 5.55226980612434
62.4 30.6088 5.53252202887616
62.45 31.9414 5.65167231888049
62.5 29.5631 5.43719596851171
62.55 37.5327 6.12639371898346
62.6 28.5518 5.34338843806063
62.65 23.9083 4.88961143650495
62.7 31.5126 5.61360846514967
62.75 21.3822 4.6240890994876
62.8 38.0105 6.16526560660609
62.85 26.618 5.15926351333211
62.9 28.0272 5.2940721566673
62.95 37.0113 6.08369131366804
63 31.8078 5.6398404232744
63.05 36.3406 6.02831651458349
63.1 31.3645 5.60040177130177
63.15 43.3611 6.58491457803364
63.2 25.2117 5.02112537186635
63.25 31.8898 5.64710545323885
63.3 35.933 5.99441406644553
63.35 28.644 5.35200896860235
63.4 30.6136 5.53295581041454
63.45 33.0928 5.75263417922607
63.5 37.355 6.11187368979432
63.55 25.3814 5.03799563318588
63.6 27.6046 5.25400799390332
63.65 30.0218 5.47921527228124
63.7 21.9354 4.68352431401824
63.75 33.9409 5.82588190748834
63.8 22.7538 4.77009433868975
63.85 23.2378 4.82056013342848
63.9 33.6434 5.80029309604265
63.95 27.5842 5.25206626005423
64 26.659 5.16323541977315
64.05 33.2619 5.76731306589126
64.1 34.8572 5.90399864498629
64.15 20.5684 4.53523979520378
64.2 21.543 4.64144374090649
64.25 27.9756 5.28919653633706
64.3 38.2445 6.18421377379534
64.35 34.7548 5.89532017790383
64.4 27.7506 5.26788382559828
64.45 42.0997 6.48842816096472
64.5 30.3378 5.50797603480625
64.55 42.1449 6.49191035058248
64.6 58.4474 7.64508992752865
64.65 63.3706 7.96056530655958
64.7 82.7807 9.09838996746128
64.75 102.6034 10.1293336404721
64.8 135.6492 11.6468536523818
64.85 149.3605 12.2213133500455
64.9 130.8585 11.4393400159275
64.95 108.806 10.4310114562299
65 100.3727 10.0186176691198
65.05 68.3242 8.26584538931137
65.1 65.7894 8.11106651433706
65.15 50.3756 7.09757705136056
65.2 29.8279 5.4614924700122
65.25 36.7409 6.06142722467242
65.3 40.7853 6.38633697826853
65.35 35.0605 5.9211907586228
65.4 35.5205 5.95990771740637
65.45 40.9345 6.39800750234008
65.5 24.1354 4.91277925414933
65.55 35.0711 5.92208578120918
65.6 33.3703 5.77670321204058
65.65 44.446 6.66678333231252
65.7 22.6257 4.75664797940735
65.75 35.1371 5.92765552305463
65.8 36.724 6.06003300321046
65.85 35.6131 5.96767123759344
65.9 26.9584 5.19214791776968
65.95 36.5082 6.042201585515
66 47.1958 6.86991994130936
66.05 34.1294 5.8420373158685
66.1 28.9445 5.38000929367227
66.15 27.4213 5.2365351139852
66.2 32.3694 5.68941121734051
66.25 34.8194 5.90079655639813
66.3 34.4838 5.87229086473073
66.35 31.4067 5.60416809169746
66.4 37.2854 6.10617720018016
66.45 32.1781 5.67257437148249
66.5 24.7274 4.97266528131544
66.55 29.4899 5.43046038563951
66.6 29.2102 5.40464614937925
66.65 29.0114 5.38622316656115
66.7 34.8912 5.9068773476347
66.75 37.9108 6.15717467674907
66.8 27.7566 5.26845328345996
66.85 27.2009 5.21544820700963
66.9 49.2718 7.01938743766149
66.95 82.6398 9.09064354157614
67 57.2129 7.56392094088774
67.05 36.6893 6.05716930587217
67.1 25.4369 5.0435007683156
67.15 38.3499 6.19272960817764
67.2 39.0681 6.25044798394483
67.25 20.4217 4.51903750814264
67.3 37.6475 6.13575586215749
67.35 26.4527 5.14321883648752
67.4 31.8022 5.63934393347311
67.45 29.1736 5.40125911246628
67.5 26.5016 5.1479704738858
67.55 27.9331 5.28517738585944
67.6 28.148 5.30546887654616
67.65 32.3449 5.68725768714589
67.7 26.3092 5.1292494577667
67.75 21.3369 4.61918824037298
67.8 28.3208 5.32172904233201
67.85 32.0294 5.65945227031733
67.9 25.1722 5.01719044884684
67.95 29.7973 5.45869031911502
68 19.4615 4.41151901276646
68.05 22.4658 4.73981012277918
68.1 34.1349 5.84250802310104
68.15 39.8425 6.3120915709454
68.2 29.2741 5.41055450023378
68.25 24.9104 4.99103195742123
68.3 22.0618 4.69699904194157
68.35 25.6283 5.06244012310269
68.4 25.796 5.07897627480184
68.45 34.606 5.88268646113321
68.5 35.0552 5.92074319659281
68.55 22.6447 4.75864476505654
68.6 21.1903 4.60329230008263
68.65 20.464 4.52371528723902
68.7 28.137 5.30443210909519
68.75 37.5853 6.13068511668965
68.8 26.6977 5.166981710825
68.85 28.7412 5.36108198034688
68.9 23.2442 4.82122391100019
68.95 27.059 5.20182660226194
69 38.5583 6.20953299371217
69.05 36.0947 6.00788648361468
69.1 46.0984 6.78958025212163
69.15 18.1181 4.2565361504397
69.2 26.8449 5.18120642321844
69.25 26.3054 5.1288790198249
69.3 29.9374 5.47150801881894
69.35 29.7689 5.45608834239329
69.4 28.6955 5.3568180853936
69.45 33.9213 5.82419951581331
69.5 26.7333 5.17042551440401
69.55 26.059 5.10480166118136
69.6 26.2754 5.12595356982484
69.65 22.8438 4.77951880423124
69.7 23.0771 4.80386302885501
69.75 32.468 5.69806984864173
69.8 34.0765 5.83750802997306
69.85 24.974 4.99739932364825
69.9 27.5592 5.24968570487796
69.95 30.0315 5.48010036404444
70 15.4171 3.92646151133562
70.05 23.0263 4.79857270446119
70.1 29.0686 5.39153039498063
70.15 30.2694 5.50176335368943
70.2 15.9326 3.99156610868466
70.25 32.4093 5.69291665141867
70.3 30.3323 5.50747673621959
70.35 30.3063 5.50511580259671
70.4 24.3065 4.93016226913476
70.45 25.2417 5.024111861812
70.5 27.1996 5.21532357577169
70.55 31.6037 5.62171681962014
70.6 35.1086 5.92525104953368
70.65 28.2248 5.31270176087459
70.7 28.7356 5.36055967227304
70.75 24.0555 4.90464065962023
70.8 22.1409 4.7054117779425
70.85 27.5577 5.24954283723831
70.9 29.4738 5.42897780433849
70.95 26.2197 5.12051755196679
71 28.9834 5.38362331520325
71.05 27.2757 5.22261428788303
71.1 44.3875 6.66239446445495
71.15 25.0243 5.0024294097968
71.2 20.7918 4.55980262730746
71.25 25.1199 5.01197565836068
71.3 24.2824 4.9277175243717
71.35 29.3978 5.42197381033881
71.4 22.3779 4.7305285116993
71.45 29.1399 5.39813856806214
71.5 24.895 4.98948895178655
71.55 29.642 5.44444671201767
71.6 33.4365 5.78243028492346
71.65 21.3308 4.61852790399712
71.7 30.2425 5.49931813955148
71.75 23.2273 4.8194709253195
71.8 28.3339 5.32295970302237
71.85 28.732 5.3602238759216
71.9 21.6711 4.65522287328974
71.95 22.1916 4.71079611106233
72 24.7131 4.97122721267093
72.05 22.6431 4.75847664699534
72.1 31.6595 5.62667752763565
72.15 36.5692 6.04724730765991
72.2 24.3035 4.92985801012565
72.25 30.5878 5.53062383461396
72.3 23.2765 4.8245725199234
72.35 22.4286 4.73588428912701
72.4 34.6186 5.88375730294852
72.45 23.7162 4.86992813088653
72.5 21.0198 4.58473554308206
72.55 23.8403 4.88265296739385
72.6 26.7943 5.17632108741334
72.65 27.1129 5.20700489725139
72.7 26.9273 5.18915214654572
72.75 27.1775 5.2132043888572
72.8 26.9502 5.19135820378444
72.85 36.6194 6.05139653303269
72.9 35.9587 5.9965573456776
72.95 24.2134 4.92071133069194
73 22.5445 4.74810488510943
73.05 27.8025 5.27280760126899
73.1 32.7845 5.7257750567063
73.15 31.2823 5.5930581974444
73.2 21.4202 4.6281961929028
73.25 25.0705 5.00704503674573
73.3 27.1357 5.20919379558872
73.35 23.9235 4.89116550527581
73.4 25.5421 5.05391927121912
73.45 34.0591 5.8360174776983
73.5 30.8273 5.55223378470323
73.55 29.5245 5.43364518532449
73.6 28.233 5.31347344022721
73.65 26.1851 5.11713787189675
73.7 31.718 5.63187357812655
73.75 25.477 5.04747461608278
73.8 31.2499 5.59016099947041
73.85 35.2175 5.93443341861715
73.9 36.7711 6.06391787543334
73.95 29.5307 5.43421567477773
74 32.2288 5.67704148302617
74.05 34.9811 5.91448222585883
74.1 28.5503 5.34324807584301
74.15 34.5003 5.87369559987577
74.2 23.7794 4.87641261584784
74.25 23.6033 4.85832275584898
74.3 31.3893 5.60261546065764
74.35 22.4866 4.7420037958652
74.4 24.8337 4.98334225194297
74.45 24.52 4.95176736125598
74.5 31.1092 5.57756219149549
74.55 24.9048 4.99047091966279
74.6 31.6583 5.62657089175992
74.65 31.3002 5.59465816650133
74.7 32.9591 5.74100165476374
74.75 33.5119 5.78894636354492
74.8 32.9667 5.74166352201172
74.85 26.8179 5.17860019696443
74.9 30.4923 5.52198333934466
74.95 35.4674 5.95545128432766
75 24.3429 4.93385245016508
75.05 19.9704 4.46882534901511
75.1 26.9733 5.19358257852901
75.15 22.4737 4.74064341624636
75.2 26.3779 5.1359419778654
75.25 29.4684 5.42848045036546
75.3 26.0606 5.10495837397329
75.35 27.0861 5.20443080461255
75.4 37.5626 6.12883349423037
75.45 34.9681 5.91338312643448
75.5 26.0457 5.1034987998431
75.55 30.4093 5.51446280248584
75.6 22.0652 4.69736096122067
75.65 30.4534 5.51845993008919
75.7 27.424 5.23679291169701
75.75 16.6082 4.07531593867273
75.8 28.4495 5.33380727060887
75.85 30.5525 5.52743159161649
75.9 36.5719 6.0474705456083
75.95 34.0858 5.83830454841129
76 28.8846 5.3744395056601
76.05 26.4761 5.14549317364235
76.1 17.3621 4.16678533164357
76.15 25.4097 5.04080350737856
76.2 36.3585 6.02980099174094
76.25 24.9562 4.9956180798776
76.3 28.8922 5.37514650963116
76.35 25.5171 5.05144533772266
76.4 27.5581 5.24958093565572
76.45 29.2104 5.4046646519465
76.5 27.8047 5.27301621465362
76.55 27.954 5.28715424401445
76.6 32.1111 5.66666568627442
76.65 27.4863 5.24273783437623
76.7 25.8451 5.08380762814645
76.75 30.1771 5.49336872965942
76.8 36.191 6.01589561079645
76.85 28.342 5.32372050355764
76.9 37.2253 6.10125396947218
76.95 37.7657 6.14538037878861
77 26.0427 5.10320487536999
77.05 35.6095 5.96736960477562
77.1 26.2627 5.12471462620115
77.15 21.2607 4.61093266053626
77.2 29.4722 5.42883044494852
77.25 26.2838 5.12677286409297
77.3 30.1199 5.48815998309087
77.35 27.4752 5.24167912028197
77.4 25.7455 5.07400236499748
77.45 25.8655 5.08581360256154
77.5 26.0086 5.09986274325104
77.55 30.6376 5.53512420818178
77.6 37.324 6.10933711625083
77.65 24.4244 4.94210481475252
77.7 22.5368 4.74729396604002
77.75 35.2856 5.94016834778275
77.8 22.9437 4.78995824616457
77.85 27.0891 5.20471901258848
77.9 27.3134 5.22622234505957
77.95 39.3456 6.27260711347363
78 29.7542 5.45474105709886
78.05 26.4098 5.13904660418642
78.1 26.1953 5.11813442574538
78.15 35.8253 5.98542396159203
78.2 35.5049 5.95859882858378
78.25 29.9581 5.47339930938718
78.3 32.0425 5.66060950781804
78.35 29.3717 5.41956640332047
78.4 24.5877 4.95859859234441
78.45 17.3071 4.16018028455499
78.5 22.6149 4.7555125906678
78.55 27.7271 5.2656528560094
78.6 25.8572 5.08499754178898
78.65 29.9138 5.46935096697954
78.7 28.8951 5.37541626295118
78.75 24.9419 4.99418662046183
78.8 26.9039 5.18689695289968
78.85 22.1763 4.7091719017254
78.9 29.7848 5.45754523572641
78.95 25.1661 5.01658250206253
79 24.1294 4.91216856388296
79.05 34.2097 5.84890588058998
79.1 31.4071 5.6042037793071
79.15 19.5371 4.42007918481106
79.2 32.003 5.65711940832081
79.25 26.1292 5.11167291598357
79.3 44.8541 6.69732035966624
79.35 36.365 6.03033995724951
79.4 28.055 5.29669708403265
79.45 24.4877 4.948504824692
79.5 31.2002 5.58571392035074
79.55 26.9844 5.19465109511698
79.6 35.3108 5.94228912120573
79.65 28.5371 5.3420127292997
79.7 32.8532 5.73177110499015
79.75 30.4088 5.51441746696784
79.8 34.7081 5.89135807772707
79.85 30.5066 5.52327801219529
79.9 24.8388 4.98385393044379
79.95 37.2528 6.10350718849417
80 18.8263 4.33892843914255
80.05 31.1504 5.58125433930402
80.1 36.4786 6.03975165052339
80.15 28.4803 5.33669373301485
80.2 24.0471 4.90378425300298
80.25 25.5735 5.05702481702433
80.3 22.8703 4.78229024631504
80.35 26.158 5.11448922180896
80.4 36.4286 6.03561098812705
80.45 34.6985 5.89054326866377
80.5 35.9301 5.9941721696995
80.55 25.599 5.05954543412746
80.6 34.3046 5.85701289054412
80.65 29.388 5.42107000508202
80.7 25.3452 5.03440165262963
80.75 31.4074 5.60423054486519
80.8 28.9255 5.37824320759112
80.85 39.4212 6.27863042390616
80.9 31.2851 5.59330850213002
80.95 34.307 5.85721776955578
81 29.6752 5.44749483707878
81.05 21.8901 4.67868571288989
81.1 23.5785 4.85576976389944
81.15 32.7865 5.72594970288772
81.2 18.4941 4.30047671776049
81.25 26.8519 5.18188189753491
81.3 26.6023 5.15774175390742
81.35 29.7527 5.45460356029657
81.4 34.2022 5.84826469989175
81.45 37.8907 6.15554221819654
81.5 32.2525 5.67912845426127
81.55 36.5596 6.04645350598183
81.6 32.9395 5.73929438171628
81.65 25.9721 5.09628295917721
81.7 32.6003 5.70966724074179
81.75 35.3591 5.94635182275654
81.8 34.7179 5.89218974575667
81.85 41.5873 6.44882159778048
81.9 46.5177 6.82038855198148
81.95 65.5576 8.09676478601176
82 86.5727 9.30444517421646
82.05 105.6863 10.2803842340644
82.1 127.8013 11.3049237060672
82.15 126.2556 11.2363517210881
82.2 111.4108 10.5551314534685
82.25 94.1025 9.70064430849828
82.3 85.9434 9.270566325743
82.35 57.6913 7.59547891840929
82.4 48.0139 6.92920630375514
82.45 38.2499 6.18465035390037
82.5 45.8749 6.77310120993331
82.55 32.8902 5.73499782040063
82.6 28.6155 5.34934575438904
82.65 44.1499 6.64453911117995
82.7 39.9435 6.3200870247173
82.75 29.5464 5.43566003351939
82.8 42.9182 6.55119836365836
82.85 37.6767 6.13813489587839
82.9 28.4253 5.33153823957027
82.95 30.8734 5.55638371605129
83 33.0628 5.75002608689735
83.05 23.2708 4.82398175784279
83.1 26.8489 5.18159241932439
83.15 31.7454 5.6343056360123
83.2 24.519 4.95166638617749
83.25 31.9099 5.64888484570185
83.3 33.4855 5.78666570660514
83.35 23.8922 4.8879648116573
83.4 27.2347 5.21868757447694
83.45 30.3956 5.51322047445955
83.5 24.5054 4.95029292062601
83.55 18.653 4.31891190000444
83.6 33.6077 5.79721484852856
83.65 32.6163 5.71106820130875
83.7 34.5042 5.87402757909767
83.75 32.4733 5.6985348994281
83.8 29.3947 5.4216879290494
83.85 25.239 5.02384315041782
83.9 24.3296 4.93250443486876
83.95 24.769 4.97684639103921
84 24.7817 4.97812213590627
84.05 27.7157 5.26457025786531
84.1 23.5468 4.85250450798348
84.15 33.2767 5.76859601636308
84.2 15.4412 3.92952923389049
84.25 32.251 5.6789963902084
84.3 35.0946 5.92406954719473
84.35 29.9674 5.47424880691406
84.4 29.2566 5.40893704899586
84.45 32.1419 5.66938268244436
84.5 30.1546 5.49132042408745
84.55 28.3124 5.32093976662018
84.6 30.5487 5.52708784080731
84.65 38.535 6.20765656266517
84.7 21.1398 4.5978038235662
84.75 23.8266 4.88124983994878
84.8 40.4576 6.36062889972367
84.85 28.2562 5.31565612130807
84.9 27.5499 5.24879986282579
84.95 27.689 5.26203382733331
85 28.4769 5.33637517421705
85.05 26.9059 5.1870897428134
85.1 33.9048 5.82278283984557
85.15 24.7616 4.97610289282688
85.2 20.4597 4.52323998921127
85.25 33.5677 5.79376388887224
85.3 29.5589 5.43680972630089
85.35 23.0553 4.80159348550041
85.4 27.2213 5.21740356882616
85.45 25.7768 5.07708577827872
85.5 33.0241 5.74665989945464
85.55 31.1808 5.58397707731685
85.6 24.3582 4.93540271913043
85.65 28.587 5.3466812136128
85.7 28.0235 5.29372269768638
85.75 32.6504 5.7140528523982
85.8 28.1538 5.30601545418028
85.85 23.3768 4.8349560494383
85.9 29.2742 5.41056374142288
85.95 31.1678 5.58281291106911
86 31.4953 5.61206735526223
86.05 31.6545 5.62623319815309
86.1 31.6445 5.62534443389914
86.15 24.9577 4.99576820919466
86.2 29.2583 5.40909419404026
86.25 37.5804 6.13028547459252
86.3 23.9904 4.89799959167005
86.35 29.6203 5.442453490844
86.4 26.273 5.12571946169511
86.45 32.2933 5.68271941943292
86.5 29.9585 5.47343584962864
86.55 21.2357 4.60822091484338
86.6 22.552 4.748894608222
86.65 27.331 5.22790589050721
86.7 28.1346 5.30420587835729
86.75 20.4604 4.52331736671218
86.8 35.0105 5.91696712852116
86.85 31.189 5.58471127275171
86.9 38.9069 6.23753957903275
86.95 27.1987 5.21523729086223
87 21.5387 4.6409804998513
87.05 31.1592 5.58204263688482
87.1 24.5341 4.95319089072892
87.15 32.0738 5.66337355292762
87.2 26.6801 5.16527830808757
87.25 30.6933 5.54015342747834
87.3 30.7841 5.54834209471622
87.35 33.8891 5.82143453111001
87.4 32.982 5.74299573393538
87.45 28.7066 5.3578540480308
87.5 38.4992 6.20477235682342
87.55 31.8888 5.64701691160917
87.6 22.3902 4.73182839925541
87.65 30.5635 5.52842653926052
87.7 29.6761 5.44757744323107
87.75 34.1947 5.8476234488893
87.8 26.7164 5.16879096114362
87.85 28.378 5.32710052467569
87.9 31.452 5.60820827002707
87.95 21.1944 4.60373761198442
88 27.5528 5.24907610918341
88.05 28.4868 5.33730268956146
88.1 25.7264 5.07211987240049
88.15 22.3958 4.73242009969529
88.2 29.8147 5.46028387540428
88.25 29.9072 5.46874757142803
88.3 31.3675 5.60066960282429
88.35 22.7591 4.7706498509113
88.4 26.5583 5.15347455606409
88.45 26.797 5.17658188383029
88.5 35.717 5.97637013579313
88.55 31.461 5.60901060794148
88.6 36.4981 6.04136573963206
88.65 35.3849 5.94852082454117
88.7 30.4358 5.51686505182064
88.75 34.5093 5.87446167746458
88.8 39.2739 6.26688918044671
88.85 26.4088 5.13894930895412
88.9 27.0358 5.19959613816304
88.95 29.3783 5.42017527391873
89 29.5667 5.43752701142716
89.05 32.9437 5.73966026869187
89.1 25.0294 5.00293913614787
89.15 23.5376 4.85155645128447
89.2 30.2501 5.50000909090158
89.25 28.6149 5.34928967247054
89.3 23.8721 4.88590830859524
89.35 23.0913 4.80534077875857
89.4 18.2199 4.26847748032012
89.45 38.2235 6.1825156692078
89.5 25.466 5.04638484461897
89.55 30.4391 5.51716412661432
89.6 23.587 4.85664493246109
89.65 27.1315 5.20879064658967
89.7 40.4463 6.35974056074617
89.75 40.8403 6.39064159533298
89.8 20.724 4.55236202426828
89.85 31.0603 5.57317683193347
89.9 39.021 6.24667911773928
89.95 25.5341 5.05312774427878
90 33.5927 5.79592097944753
90.05 32.4974 5.70064908584979
90.1 18.2392 4.27073764120439
90.15 34.4334 5.86799795500987
90.2 27.0057 5.19670087651772
90.25 25.2624 5.02617150523139
90.3 17.1439 4.14051929110347
90.35 24.0478 4.90385562593354
90.4 32.6049 5.71007005210969
90.45 36.0227 6.00189136856041
90.5 36.4745 6.03941222305615
90.55 30.0485 5.48165121108594
90.6 31.4116 5.60460524925708
90.65 35.8518 5.98763726356231
90.7 32.1167 5.66715978246599
90.75 24.5646 4.95626875784597
90.8 26.4464 5.14260634309102
90.85 30.2304 5.49821789309954
90.9 20.1581 4.48977727732679
90.95 29.1309 5.39730488299485
91 26.3414 5.13238735872498
91.05 22.2817 4.72034956332685
91.1 30.3794 5.51175108291367
91.15 31.6429 5.62520221858735
91.2 33.0996 5.75322518245201
91.25 23.6976 4.86801807720555
91.3 29.6722 5.44721947419048
91.35 35.4884 5.95721411399658
91.4 31.1493 5.58115579427774
91.45 27.7493 5.26776043494766
91.5 30.5542 5.52758536795227
91.55 30.6566 5.53684025415218
91.6 27.5512 5.24892369919777
91.65 24.1948 4.91882099694632
91.7 19.8902 4.45984304656565
91.75 27.4674 5.24093503107986
91.8 28.8934 5.37525813333648
91.85 30.7489 5.54516906865787
91.9 30.3334 5.5075765995581
91.95 28.5802 5.34604526729806
92 32.0294 5.65945227031733
92.05 21.4994 4.63674454763253
92.1 25.627 5.06231172489407
92.15 25.4567 5.0454633087557
92.2 13.7457 3.70751938632828
92.25 24.3071 4.93022311868337
92.3 24.8311 4.98308137601625
92.35 26.9461 5.1909633017389
92.4 45.4358 6.74060828115683
92.45 29.7721 5.45638158489672
92.5 25.8994 5.08914531134649
92.55 28.0096 5.29240965912504
92.6 21.9456 4.68461311102635
92.65 25.2545 5.02538555734781
92.7 35.5859 5.96539185636619
92.75 33.2454 5.76588241295294
92.8 28.1177 5.30261256363314
92.85 25.3871 5.03856130259422
92.9 36.0558 6.0046481995201
92.95 25.4705 5.04683068865996
93 18.4982 4.30095338268157
93.05 18.8073 4.33673840576072
93.1 34.826 5.90135577642968
93.15 23.7596 4.87438201211189
93.2 29.4687 5.42850808233717
93.25 19.2927 4.39234561481676
93.3 31.5239 5.61461485767279
93.35 23.3991 4.83726162203369
93.4 29.1644 5.40040739203997
93.45 25.3894 5.03878953718053
93.5 25.319 5.03179888310334
93.55 22.5727 4.75107356289081
93.6 29.7709 5.45627162080481
93.65 25.5869 5.05834953319756
93.7 29.2774 5.41085945114083
93.75 35.9256 5.99379679335227
93.8 29.0201 5.38703072202118
93.85 34.562 5.87894548367307
93.9 28.8299 5.36934819135433
93.95 21.9493 4.68500800426211
94 21.4191 4.62807735458257
94.05 31.848 5.64340322854924
94.1 37.8915 6.1556071999438
94.15 40.3518 6.35230666766018
94.2 26.2393 5.12243106346977
94.25 29.8153 5.46033881732627
94.3 35.6645 5.97197622232373
94.35 24.6206 4.96191495291888
94.4 35.9409 5.99507297703706
94.45 22.0083 4.69130045936092
94.5 33.7535 5.80977624353985
94.55 27.051 5.20105758476101
94.6 38.9897 6.24417328395041
94.65 26.9308 5.18948937757849
94.7 32.9816 5.74296090879957
94.75 21.3963 4.62561347282714
94.8 37.7115 6.1409689789153
94.85 26.5702 5.1546289876188
94.9 31.0799 5.57493497719929
94.95 26.6333 5.1607460700949
95 34.0562 5.83576901530552
95.05 26.6934 5.16656559040916
95.1 27.9231 5.28423125913316
95.15 31.5074 5.61314528584465
95.2 23.006 4.79645702576391
95.25 35.0173 5.91754171932907
95.3 32.7548 5.7231809337116
95.35 19.7755 4.44696525734124
95.4 22.8252 4.77757260541376
95.45 27.9794 5.28955574694132
95.5 19.9154 4.46266736380833
95.55 30.8119 5.55084678224863
95.6 35.2739 5.93918344555883
95.65 39.2374 6.26397637288009
95.7 20.8525 4.56645376632678
95.75 26.995 5.19567127520593
95.8 27.6779 5.26097899634659
95.85 31.0937 5.57617252243867
95.9 23.7703 4.8754794636015
95.95 38.7592 6.2256887169212
96 35.6551 5.97118916129777
96.05 32.0878 5.66460943049033
96.1 25.641 5.06369430356928
96.15 24.6005 4.95988911166369
96.2 28.3436 5.32387077228589
96.25 21.9427 4.68430357684043
96.3 35.1318 5.9272084491774
96.35 29.4235 5.42434327822272
96.4 30.6076 5.53241357817725
96.45 29.3571 5.41821926466621
96.5 27.4888 5.24297625399925
96.55 27.9421 5.28602875512421
96.6 28.904 5.37624404207993
96.65 33.6141 5.79776681145422
96.7 15.143 3.89140077607023
96.75 34.8352 5.90213520685523
96.8 19.2737 4.3901822285641
96.85 21.5965 4.64720346014676
96.9 30.5982 5.53156397413968
96.95 24.8131 4.98127493720232
97 29.8976 5.46786978630618
97.05 32.2515 5.67904041190059
97.1 39.0496 6.24896791478401
97.15 27.0747 5.2033354687162
97.2 39.8126 6.30972265634552
97.25 25.4833 5.04809865196789
97.3 24.9751 4.99750937968104
97.35 35.2988 5.94127932351274
97.4 25.5579 5.05548217284959
97.45 24.5449 4.95428097709446
97.5 24.4168 4.94133585177126
97.55 30.7349 5.54390656486922
97.6 31.7417 5.63397728074936
97.65 27.3502 5.22974186743476
97.7 16.5804 4.07190373167146
97.75 37.4852 6.12251582276436
97.8 22.6009 4.75404038687094
97.85 30.4818 5.52103251213032
97.9 32.4137 5.69330308344813
97.95 34.3168 5.8580542844873
98 34.3749 5.86301117174443
98.05 39.5645 6.29003179642202
98.1 29.9241 5.47029249675006
98.15 25.9062 5.08981335610649
98.2 36.0543 6.00452329498354
98.25 38.8036 6.22925356684089
98.3 44.1295 6.64300383862602
98.35 53.3158 7.30176690945418
98.4 51.1079 7.14897894807363
98.45 71.3204 8.4451406145783
98.5 70.0199 8.36778943329718
98.55 96.4733 9.82208226396012
98.6 100.4327 10.0216116468361
98.65 128.625 11.3412962222138
98.7 131.0813 11.4490741983795
98.75 116.0843 10.7742424327653
98.8 81.8673 9.04805503962039
98.85 64.5448 8.03397784413176
98.9 64.8591 8.05351476064954
98.95 54.4274 7.37749279904765
99 40.6076 6.3724092775025
99.05 43.3072 6.5808206175218
99.1 34.3028 5.85685922658211
99.15 39.947 6.32036391357333
99.2 41.1407 6.41410165182935
99.25 29.6835 5.44825660188652
99.3 36.5466 6.04537840006728
99.35 34.153 5.8440568101277
99.4 40.4921 6.36334031778908
99.45 30.2198 5.49725385988313
99.5 29.9968 5.47693344856408
99.55 31.8015 5.63928186917448
99.6 42.6401 6.52993874396996
99.65 23.7148 4.86978438947763
99.7 31.2941 5.59411297705007
99.75 30.0256 5.47956202629371
99.8 23.8006 4.87858586067725
99.85 36.6486 6.05380871848459
99.9 24.9432 4.99431677008978
99.95 31.3648 5.60042855503041
100 23.8878 4.88751470586023
100.05 27.2189 5.21717356429705
100.1 26.9431 5.19067432998835
100.15 34.9079 5.90829078499019
100.2 24.9471 4.99470719862536
100.25 35.7378 5.97811006924429
100.3 23.6921 4.86745313279953
100.35 32.8671 5.73298351645982
100.4 27.9632 5.28802420569346
100.45 23.3146 4.82851944181651
100.5 28.6861 5.35594062700475
100.55 34.2445 5.85188003978209
100.6 32.9027 5.73608751676611
100.65 30.7901 5.54888277043226
100.7 23.3099 4.82803272565545
100.75 24.9426 4.99425670145218
100.8 28.3196 5.32161629582592
100.85 26.6453 5.16190856176279
100.9 19.9679 4.46854562469715
100.95 25.9395 5.09308354535835
101 27.5737 5.25106655832889
101.05 22.5151 4.74500790304927
101.1 30.3039 5.50489781921518
101.15 28.1355 5.30429071601472
101.2 24.7786 4.9778107637796
101.25 27.0283 5.19887487827895
101.3 35.6445 5.97030149992444
101.35 24.4011 4.93974695708191
101.4 35.3568 5.94615842372199
101.45 26.1127 5.11005870807763
101.5 33.8415 5.81734475512669
101.55 31.7626 5.63583179308964
101.6 19.6091 4.42821634521169
101.65 18.3737 4.28645541210917
101.7 27.6415 5.25751842602572
101.75 29.8542 5.46389970625377
101.8 28.2778 5.31768746731133
101.85 30.5347 5.52582120593853
101.9 38.2698 6.18625896645137
101.95 33.2593 5.76708765322671
102 25.287 5.02861810043276
102.05 25.1934 5.01930274042122
102.1 37.1353 6.0938739730979
102.15 28.2018 5.31053669604118
102.2 29.4478 5.4265827184334
102.25 34.4949 5.87323590535916
102.3 32.5392 5.70431415684655
102.35 25.7147 5.07096637732888
102.4 32.7021 5.71857499732232
102.45 22.2682 4.71891936782141
102.5 27.2851 5.22351414279697
102.55 32.2022 5.67469822986209
102.6 37.1714 6.09683524461667
102.65 30.4842 5.52124985850124
102.7 26.3745 5.13561096657447
102.75 33.9091 5.82315206739443
102.8 33.3752 5.77712731381264
102.85 24.2175 4.92112791949163
102.9 26.7681 5.17378971354654
102.95 31.5496 5.61690306129632
103 29.2418 5.40756876978925
103.05 16.6645 4.08221753462502
103.1 30.3628 5.51024500362733
103.15 19.4691 4.41238030999142
103.2 33.9053 5.82282577448441
103.25 27.0019 5.19633524707558
103.3 29.1326 5.3974623667053
103.35 34.8907 5.90683502393625
103.4 22.2109 4.7128441518896
103.45 33.1648 5.75888878170086
103.5 41.2765 6.42467898030711
103.55 35.4961 5.95786035418757
103.6 23.227 4.81943980147071
103.65 29.9932 5.47660478763988
103.7 29.2697 5.41014787228593
103.75 34.5807 5.88053568988404
103.8 21.6968 4.65798239584479
103.85 19.9029 4.46126663628167
103.9 31.0785 5.57480941378268
103.95 29.9077 5.46879328554298
104 33.6778 5.80325770580628
104.05 22.0817 4.69911693831937
104.1 31.6008 5.62145888537842
104.15 34.2877 5.85556999787382
104.2 34.4353 5.86815984785691
104.25 26.073 5.10617273503355
104.3 35.7201 5.97662948491874
104.35 35.9022 5.99184445726022
104.4 26.1347 5.11221087202005
104.45 25.0996 5.00995009955189
104.5 30.6657 5.53766196151408
104.55 30.5656 5.5286164634563
104.6 32.5087 5.7016401149143
104.65 31.2437 5.58960642621643
104.7 24.1597 4.91525177381586
104.75 30.3604 5.51002722316324
104.8 28.117 5.30254655802285
104.85 30.3388 5.50806681150474
104.9 32.3856 5.6908347366621
104.95 32.5158 5.702262708785
105 26.4396 5.14194515723379
105.05 18.6311 4.31637579457581
105.1 33.099 5.75317303755067
105.15 35.0851 5.92326767924598
105.2 26.4681 5.14471573558734
105.25 18.3353 4.28197384391825
105.3 30.1339 5.48943530793469
105.35 34.7166 5.89207942919985
105.4 25.8701 5.0862658208159
105.45 22.6666 4.76094528428967
105.5 25.8017 5.07953738051016
105.55 29.9947 5.47674173208852
105.6 30.6095 5.53258529080212
105.65 26.3997 5.13806383767271
105.7 23.1677 4.81328370242187
105.75 33.8752 5.82024054485723
105.8 28.4673 5.3354756114146
105.85 42.7157 6.53572490241136
105.9 31.2917 5.59389846171702
105.95 26.3457 5.13280624999619
106 25.204 5.02035855293225
106.05 21.6985 4.65816487471193
106.1 30.3544 5.50948273434086
106.15 46.2141 6.79809532148528
106.2 21.5733 4.64470666458066
106.25 39.511 6.28577759708375
106.3 30.8405 5.55342236823384
106.35 29.6457 5.4447864971916
106.4 32.2055 5.67498898677345
106.45 26.9464 5.1909921980292
106.5 24.5104 4.95079791548797
106.55 25.067 5.0066955170052
106.6 23.3198 4.82905787913129
106.65 41.6953 6.45718979123272
106.7 24.6613 4.96601449856925
106.75 24.6986 4.9697686062834
106.8 36.9928 6.08217066514908
106.85 33.0788 5.75141721665191
106.9 20.219 4.49655423630139
106.95 20.8577 4.56702310044519
107 29.8174 5.46053110969986
107.05 17.4952 4.18272638359241
107.1 31.3713 5.60100883770058
107.15 33.3574 5.77558655029946
107.2 34.4343 5.86807464165206
107.25 27.3608 5.2307552036011
107.3 31.6781 5.6283301253569
107.35 30.6476 5.53602745657931
107.4 31.7699 5.63647939763821
107.45 22.0698 4.69785057233625
107.5 28.09 5.3
107.55 29.0226 5.38726275579723
107.6 30.7881 5.54870255104741
107.65 30.3107 5.5055154163802
107.7 30.5109 5.52366726007279
107.75 29.2413 5.4075225380945
107.8 34.3574 5.86151857456752
107.85 29.7264 5.4521922196489
107.9 27.7124 5.26425683264029
107.95 32.2218 5.67642493123973
108 27.3406 5.22882395955343
108.05 34.1692 5.84544266929375
108.1 32.736 5.72153825470039
108.15 33.078 5.7513476681557
108.2 32.4663 5.69792067336849
108.25 29.5427 5.43531967781105
108.3 26.2736 5.12577798972995
108.35 40.5652 6.36908156644268
108.4 27.0859 5.20441159018001
108.45 26.4289 5.14090458966124
108.5 25.6111 5.06074105245467
108.55 23.0699 4.80311357350625
108.6 21.6136 4.64904291225624
108.65 29.7224 5.45182538238341
108.7 30.3553 5.50956441109458
108.75 36.5711 6.04740440189012
108.8 33.0166 5.746007309428
108.85 29.1991 5.40361915756468
108.9 25.6801 5.06755365043134
108.95 34.401 5.86523656811897
109 26.1844 5.11706947382972
109.05 26.7282 5.16993230129757
109.1 32.9607 5.741141001578
109.15 23.162 4.81269155462928
109.2 26.2883 5.12721171788332
109.25 27.7476 5.26759907358182
109.3 27.6769 5.26088395614273
109.35 31.9251 5.65023008381075
109.4 24.2102 4.92038616370707
109.45 28.2283 5.3130311499181
109.5 29.2908 5.41209756009627
109.55 28.1144 5.3023013871337
109.6 34.1194 5.8411813873565
109.65 31.0323 5.57066423328493
109.7 22.0932 4.70034041320413
109.75 25.3722 5.03708248890169
109.8 23.4265 4.84009297431361
109.85 29.412 5.4232831384688
109.9 31.814 5.64039005743397
109.95 25.6423 5.06382266672126
110 28.4938 5.33795841122802
110.05 27.1289 5.20854106252413
110.1 24.3378 4.93333558558507
110.15 24.6045 4.96029233009507
110.2 44.3518 6.65971470860427
110.25 24.9675 4.99674894306288
110.3 18.6286 4.31608619005691
110.35 28.7269 5.35974812841051
110.4 26.9071 5.18720541332228
110.45 33.7246 5.80728852391544
110.5 40.2601 6.34508471180645
110.55 26.3668 5.1348612444739
110.6 29.0693 5.39159531122283
110.65 27.4116 5.23560884711606
110.7 30.5442 5.52668073982929
110.75 29.4202 5.4240390854049
110.8 27.5339 5.24727548352476
110.85 26.719 5.16904246451894
110.9 25.1842 5.01838619478414
110.95 35.0468 5.92003378368739
111 37.3238 6.10932074784096
111.05 37.4628 6.12068623603596
111.1 29.6771 5.44766922637563
111.15 30.3558 5.50960978654569
111.2 29.535 5.43461130164798
111.25 23.1206 4.80838850343855
111.3 27.9519 5.28695564573791
111.35 30.4625 5.51928437390211
111.4 39.5511 6.28896652877084
111.45 24.7954 4.9794979666629
111.5 25.3063 5.03053675068576
111.55 27.1375 5.20936656418033
111.6 38.0015 6.1645356678342
111.65 36.0848 6.00706251007928
111.7 31.6019 5.62155672389775
111.75 32.986 5.74334397367944
111.8 23.7017 4.86843917493071
111.85 33.267 5.76775519591461
111.9 19.6679 4.43485061755185
111.95 42.5349 6.52187856372687
112 28.4958 5.33814574548129
112.05 29.5112 5.43242119132896
112.1 29.7978 5.4587361174543
112.15 21.5237 4.63936418057475
112.2 29.1114 5.39549812343587
112.25 25.2792 5.02784247963279
112.3 28.573 5.34537182991043
112.35 37.5944 6.13142724004779
112.4 32.3615 5.68871690278221
112.45 26.644 5.16178263781031
112.5 22.5174 4.74525025683578
112.55 21.1465 4.59853237457344
112.6 43.2116 6.57355307273015
112.65 25.4658 5.04636502841402
112.7 38.3586 6.19343200495493
112.75 27.6218 5.2556445846347
112.8 29.416 5.4236519062344
112.85 37.7544 6.14446092021098
112.9 33.0704 5.75068691549105
112.95 34.954 5.91219079529746
113 25.9459 5.09371180967279
113.05 28.2187 5.31212763400881
113.1 26.6454 5.16191824809344
113.15 25.4845 5.04821750719994
113.2 37.4876 6.12271181748741
113.25 33.4446 5.78313064005993
113.3 31.4983 5.61233463008043
113.35 33.649 5.80077581018263
113.4 30.3328 5.50752212887066
113.45 24.2464 4.92406336271174
113.5 28.2647 5.3164555861965
113.55 21.2588 4.6107266238631
113.6 40.9797 6.40153887748876
113.65 25.9686 5.09593956008114
113.7 29.4643 5.42810279932132
113.75 31.4223 5.60555974011517
113.8 33.0487 5.74879987475647
113.85 27.3165 5.22651891797973
113.9 25.4627 5.04605786728611
113.95 35.8195 5.98493943160664
114 37.6669 6.13733655586851
114.05 28.3783 5.32712868250805
114.1 39.5864 6.29177240529249
114.15 34.4142 5.8663617344995
114.2 30.9362 5.56203200278459
114.25 38.0094 6.16517639650319
114.3 27.6599 5.25926800990404
114.35 42.0457 6.48426557136581
114.4 22.3106 4.723409785314
114.45 25.4021 5.04004960293051
114.5 36.6376 6.052900131342
114.55 37.5246 6.12573260924765
114.6 30.6795 5.53890783458255
114.65 31.8336 5.64212725840175
114.7 33.0691 5.75057388440493
114.75 31.1641 5.58248152706303
114.8 22.1012 4.70119133837371
114.85 34.0875 5.83845013680857
114.9 27.0482 5.20078840177141
114.95 35.257 5.93776052060034
115 24.1502 4.91428529900331
115.05 38.0362 6.16734951174327
115.1 32.3012 5.68341446667406
115.15 24.897 4.98968936908902
115.2 42.4905 6.51847374774187
115.25 35.1979 5.93278180957298
115.3 41.0576 6.40762046316727
115.35 50.1675 7.08290194764829
115.4 25.2257 5.02251928816605
115.45 37.3705 6.11314158187098
115.5 40.0831 6.33112154361295
115.55 44.7661 6.69074734241251
115.6 49.0652 7.00465559467416
115.65 53.6735 7.32622003491569
115.7 56.5909 7.52269233718886
115.75 70.9771 8.4247907985896
115.8 60.3547 7.76882874055028
115.85 70.5336 8.3984284244137
115.9 76.0337 8.71973050042259
115.95 78.9103 8.88314696489932
116 65.8899 8.11725938972015
116.05 71.8161 8.47443803446577
116.1 74.8607 8.65220781072669
116.15 66.811 8.17379960605837
116.2 70.9241 8.42164473247358
116.25 62.2262 7.88835851112258
116.3 37.102 6.09114110819968
116.35 51.0493 7.1448792851944
116.4 46.2376 6.79982352712186
116.45 48.965 6.99749955341192
116.5 50.3464 7.09551971317112
116.55 34.1345 5.8424737911265
116.6 37.5447 6.1273730097
116.65 33.3252 5.7727982815962
116.7 38.7327 6.22356007442685
116.75 28.2721 5.31715149304588
116.8 40.4077 6.35670512136594
116.85 31.0617 5.57330243213124
116.9 33.111 5.75421584579515
116.95 26.4027 5.13835576814218
117 29.604 5.4409557983869
117.05 34.6034 5.88246546951191
117.1 20.2479 4.49976666061697
117.15 26.4605 5.14397706060204
117.2 22.083 4.69925526014495
117.25 26.5313 5.15085429807522
117.3 25.1914 5.01910350560735
117.35 29.1021 5.39463622499238
117.4 38.2066 6.18114876054605
117.45 34.8688 5.90498094831812
117.5 22.0923 4.70024467448238
117.55 23.4321 4.84067144102964
117.6 29.98 5.47539952880153
117.65 40.3994 6.35605223389487
117.7 41.4263 6.43632659208651
117.75 38.2412 6.18394695966904
117.8 39.883 6.31529888445511
117.85 29.7499 5.45434689032518
117.9 29.6567 5.44579654412465
117.95 35.5834 5.96518231070937
118 27.9421 5.28602875512421
118.05 35.7174 5.97640360082885
118.1 28.6667 5.35412924759946
118.15 24.5857 4.9583969183598
118.2 27.8216 5.27461846961465
118.25 33.8938 5.82183819768293
118.3 20.9475 4.57684389071771
118.35 28.5533 5.34352879659126
118.4 33.7835 5.81235752513556
118.45 25.0835 5.00834303936941
118.5 27.0422 5.20021153415897
118.55 26.4091 5.13897849771723
118.6 27.1524 5.21079648422389
118.65 29.1075 5.39513669891691
118.7 27.4784 5.24198435709226
118.75 40.0351 6.32732961050711
118.8 28.6588 5.35339144841847
118.85 32.1066 5.66626861347042
118.9 23.2823 4.82517357200754
118.95 37.4298 6.11798986596088
119 33.3902 5.77842539105594
119.05 30.0222 5.479251773737
119.1 41.5146 6.44318244348241
119.15 28.8327 5.36960892430724
119.2 42.016 6.48197500766549
119.25 24.2099 4.92035567820051
119.3 26.6147 5.15894369033041
119.35 28.0983 5.3007829610351
119.4 30.1926 5.49477934042851
119.45 30.5052 5.52315127440848
119.5 26.7238 5.16950674629601
119.55 40.908 6.39593620981323
119.6 31.6631 5.62699742313785
119.65 22.2058 4.71230304628215
119.7 33.5862 5.79536021313602
119.75 26.6097 5.15845907224241
119.8 29.6432 5.44455691493807
119.85 30.9173 5.56033272385745
119.9 27.5523 5.24902848153827
119.95 27.6271 5.25614878023825
120 27.5653 5.25026665989452
120.05 27.7258 5.26552941307899
120.1 36.7824 6.06484954471255
120.15 24.184 4.91772305035572
120.2 24.7156 4.97147865327812
120.25 36.5814 6.04825594696521
120.3 38.5652 6.21008856619614
120.35 35.5214 5.95998322145289
120.4 45.3067 6.73102518194665
120.45 32.6679 5.71558395966676
120.5 33.7325 5.80796866382731
120.55 23.0343 4.79940621327264
120.6 22.8123 4.77622235663291
120.65 27.5859 5.25222809862633
120.7 24.3457 4.93413619593136
120.75 35.2404 5.93636252262275
120.8 28.1419 5.3048939668951
120.85 28.3195 5.32160690017592
120.9 32.5699 5.7070044681952
120.95 29.2547 5.40876141089621
121 27.8657 5.27879721148672
121.05 22.4546 4.73862849356225
121.1 23.9257 4.89139039537839
121.15 25.6446 5.06404976278867
121.2 26.9385 5.19023120872279
121.25 24.473 4.9470193045914
121.3 24.9076 4.99075144642568
121.35 25.9332 5.09246502197119
121.4 34.3067 5.85719216007124
121.45 29.7478 5.45415437991995
121.5 23.4114 4.83853283547813
121.55 24.4842 4.94815116988153
121.6 44.2196 6.64978195131239
121.65 28.2854 5.31840201564342
121.7 29.8745 5.46575703814211
121.75 32.6073 5.7102802032825
121.8 32.2125 5.67560569454926
121.85 26.6514 5.16249939467309
121.9 20.9768 4.5800436679141
121.95 24.0222 4.90124473985946
122 28.0093 5.29238131657196
122.05 36.2066 6.01719203615773
122.1 31.7597 5.63557450487526
122.15 29.0807 5.39265240860191
122.2 33.7169 5.80662552606934
122.25 30.4139 5.51487987176511
122.3 37.3914 6.11485077495764
122.35 28.4765 5.33633769546119
122.4 22.4077 4.73367721755508
122.45 34.462 5.8704343961925
122.5 24.7988 4.97983935483867
122.55 28.6987 5.3571167618412
122.6 26.711 5.16826856887294
122.65 18.4874 4.29969766378986
122.7 24.4308 4.94275226973799
122.75 33.4399 5.78272427148312
122.8 25.8384 5.0831486305242
122.85 35.0178 5.91758396645117
122.9 22.2925 4.72149340781071
122.95 29.2722 5.41037891464175
123 26.86 5.18266340793997
123.05 25.1125 5.01123737214672
123.1 36.777 6.06440434008155
123.15 26.7701 5.17398299185453
123.2 25.0359 5.00358871211454
123.25 24.3055 4.93006085155143
123.3 37.023 6.08465282493586
123.35 30.6482 5.53608164679677
123.4 32.8033 5.72741652056143
123.45 30.3912 5.51282141920088
123.5 28.1585 5.30645832924372
123.55 23.7393 4.8722992518933
123.6 28.6756 5.35496031731329
123.65 37.4991 6.12365087182475
123.7 26.5799 5.15556980362016
123.75 24.552 4.95499747729502
123.8 33.1725 5.75955727465228
123.85 30.8342 5.55285512146679
123.9 29.3224 5.41501615879399
123.95 33.4897 5.78702859851237
124 32.681 5.71672983444206
124.05 32.2963 5.68298337143441
124.1 27.0117 5.19727813379273
124.15 26.3945 5.1375577855631
124.2 43.8734 6.6236998724278
124.25 30.8365 5.553062218272
124.3 17.9594 4.23785323011546
124.35 30.6225 5.53376002370902
124.4 28.4835 5.3369935356903
124.45 27.2979 5.22473922794239
124.5 38.5671 6.21024154119628
124.55 21.8177 4.67094208912934
124.6 31.541 5.61613746270513
124.65 26.2579 5.12424628604051
124.7 27.0858 5.20440198293714
124.75 23.7591 4.8743307232891
124.8 24.8683 4.98681260927258
124.85 26.8708 5.18370523853353
124.9 29.255 5.40878914360691
124.95 25.7637 5.07579550415499
125 34.6183 5.88373180897974
125.05 28.3962 5.32880849721586
125.1 41.455 6.43855573867308
125.15 25.8962 5.08883090699622
125.2 29.5994 5.44053306211809
125.25 27.2343 5.21864925052451
125.3 19.0795 4.36800869962504
125.35 28.0921 5.30019810950496
125.4 32.5127 5.70199088038555
125.45 29.9052 5.46856471114679
125.5 30.2721 5.50200872409341
125.55 24.1677 4.91606549997048
125.6 26.0696 5.10583979380474
125.65 22.9776 4.79349559298848
125.7 30.2799 5.50271751046699
125.75 36.4078 6.03388763567901
125.8 29.4564 5.42737505613902
125.85 28.2048 5.31081914585688
125.9 19.4553 4.41081625099029
125.95 26.2176 5.12031249046384
126 35.5025 5.95839743555262
126.05 39.2959 6.26864419152978
126.1 31.0593 5.57308711577345
126.15 25.5197 5.05170268325443
126.2 28.728 5.35985074419055
126.25 20.7748 4.5579381303392
126.3 30.9176 5.56035970059492
126.35 24.5021 4.9499595957947
126.4 28.5449 5.34274274132678
126.45 35.81 5.98414572015087
126.5 30.9268 5.56118692367016
126.55 31.9657 5.65382171632605
126.6 28.6603 5.35353154469085
126.65 34.1361 5.84261071782127
126.7 29.7626 5.45551097515164
126.75 32.7838 5.72571392928428
126.8 23.9319 4.89202412095443
126.85 26.7313 5.17023210310717
126.9 32.8057 5.72762603527849
126.95 37.4295 6.11796534805486
127 31.1929 5.58506042939555
127.05 31.7737 5.63681647740992
127.1 25.8085 5.08020668870864
127.15 25.7523 5.07467240321974
127.2 25.8387 5.08317813970748
127.25 38.0973 6.1723010295999
127.3 30.1364 5.48966301333698
127.35 26.1083 5.10962816651075
127.4 29.9819 5.47557302937327
127.45 33.5839 5.79516177513622
127.5 25.6763 5.06717870219711
127.55 31.6199 5.62315747600936
127.6 33.5534 5.79252967191365
127.65 28.864 5.37252268492186
127.7 21.3766 4.62348353517129
127.75 25.4543 5.045225465725
127.8 28.2729 5.31722672076337
127.85 29.0836 5.39292128627889
127.9 29.8608 5.46450363711106
127.95 28.1066 5.3015658064387
128 37.2269 6.10138508864995
128.05 27.7655 5.26929786594002
128.1 33.1005 5.75330339891788
128.15 17.4442 4.17662543209228
128.2 25.9392 5.09305409356704
128.25 29.3906 5.42130980483499
128.3 33.5214 5.78976683468341
128.35 32.6701 5.71577641270195
128.4 36.5034 6.04180436624689
128.45 27.7698 5.26970587414516
128.5 34.9757 5.91402570166887
128.55 30.3881 5.51254024928617
128.6 30.9553 5.5637487362389
128.65 20.1778 4.49197061432953
128.7 35.0777 5.92264299109781
128.75 33.6807 5.80350756008812
128.8 36.5717 6.04745400974658
128.85 31.338 5.59803536966318
128.9 27.2655 5.22163767414017
128.95 29.3485 5.41742558785998
129 26.7323 5.17032880965998
129.05 24.3664 4.93623338184085
129.1 36.08 6.00666296707248
129.15 36.1416 6.01178841943061
129.2 36.9345 6.07737607853916
129.25 36.8403 6.06962107548733
129.3 32.7166 5.71984265517855
129.35 40.3173 6.3495905379796
129.4 23.3142 4.82847802107455
129.45 29.2798 5.41108122282414
129.5 33.1056 5.75374660547369
129.55 34.9496 5.91181867110283
129.6 35.2761 5.93936865331661
129.65 23.1164 4.80795174684605
129.7 30.5117 5.52373967525625
129.75 21.7229 4.66078319598756
129.8 27.2816 5.22317910855065
129.85 24.9366 4.9936559753351
129.9 26.9891 5.19510346383977
129.95 27.8748 5.27965907990279
130 22.3582 4.72844583346368
130 22.3582 4.72844583346368
