
#Surface 0 of 1 surfaces

#IsoCurve 0, 1801 points
#x y z type
 40  35.9534  27.1074 i
 40.05  49.3036  27.1123 i
 40.1  29.351  27.1172 i
 40.15  19.4918  27.1222 i
 40.2  40.1044  27.1272 i
 40.25  37.7786  27.1322 i
 40.3  43.2514  27.1372 i
 40.35  47.9477  27.1423 i
 40.4  42.8697  27.1474 i
 40.45  31.3926  27.1525 i
 40.5  38.5006  27.1576 i
 40.55  38.5652  27.1628 i
 40.6  42.9458  27.1679 i
 40.65  32.4879  27.1731 i
 40.7  45.4255  27.1783 i
 40.75  38.8654  27.1836 i
 40.8  43.899  27.1889 i
 40.85  43.2753  27.1941 i
 40.9  24.9307  27.1995 i
 40.95  33.5764  27.2048 i
 41  43.2525  27.2101 i
 41.05  53.7805  27.2155 i
 41.1  30.3844  27.2209 i
 41.15  41.8174  27.2263 i
 41.2  42.6187  27.2318 i
 41.25  36.5769  27.2373 i
 41.3  34.9481  27.2428 i
 41.35  35.1574  27.2483 i
 41.4  30.5596  27.2538 i
 41.45  38.5239  27.2594 i
 41.5  36.0489  27.2649 i
 41.55  38.4193  27.2705 i
 41.6  29.5316  27.2762 i
 41.65  31.7821  27.2818 i
 41.7  31.6532  27.2875 i
 41.75  41.5305  27.2931 i
 41.8  39.8351  27.2989 i
 41.85  38.3954  27.3046 i
 41.9  31.3759  27.3103 i
 41.95  28.2577  27.3161 i
 42  37.9984  27.3219 i
 42.05  29.8663  27.3277 i
 42.1  39.3122  27.3335 i
 42.15  30.8236  27.3394 i
 42.2  34.4917  27.3452 i
 42.25  26.7828  27.3511 i
 42.3  41.7582  27.357 i
 42.35  41.4468  27.363 i
 42.4  29.0013  27.3689 i
 42.45  32.7547  27.3749 i
 42.5  41.7816  27.3809 i
 42.55  33.7565  27.3869 i
 42.6  49.3202  27.3929 i
 42.65  34.1417  27.399 i
 42.7  29.565  27.405 i
 42.75  45.3565  27.4111 i
 42.8  33.7901  27.4172 i
 42.85  37.7794  27.4234 i
 42.9  40.2087  27.4295 i
 42.95  35.9351  27.4357 i
 43  34.4615  27.4419 i
 43.05  30.141  27.4481 i
 43.1  29.9336  27.4543 i
 43.15  40.9904  27.4605 i
 43.2  46.4895  27.4668 i
 43.25  28.6286  27.473 i
 43.3  33.2123  27.4793 i
 43.35  33.357  27.4857 i
 43.4  35.9536  27.492 i
 43.45  35.7296  27.4983 i
 43.5  37.5791  27.5047 i
 43.55  39.5269  27.5111 i
 43.6  35.8882  27.5175 i
 43.65  43.556  27.5239 i
 43.7  47.585  27.5303 i
 43.75  34.7925  27.5368 i
 43.8  41.279  27.5433 i
 43.85  45.0038  27.5497 i
 43.9  44.506  27.5562 i
 43.95  44.6922  27.5628 i
 44  43.5094  27.5693 i
 44.05  43.8252  27.5759 i
 44.1  46.2304  27.5824 i
 44.15  54.5537  27.589 i
 44.2  56.4172  27.5956 i
 44.25  72.0402  27.6023 i
 44.3  74.7581  27.6089 i
 44.35  107.441  27.6155 i
 44.4  196.096  27.6222 i
 44.45  388.118  27.6289 i
 44.5  933.633  27.6356 i
 44.55  1535.36  27.6423 i
 44.6  1805.85  27.6491 i
 44.65  1332.36  27.6558 i
 44.7  695.835  27.6626 i
 44.75  299.937  27.6693 i
 44.8  153.483  27.6761 i
 44.85  104.766  27.683 i
 44.9  63.6463  27.6898 i
 44.95  52.3047  27.6966 i
 45  63.0349  27.7035 i
 45.05  54.2844  27.7103 i
 45.1  41.4708  27.7172 i
 45.15  49.9978  27.7241 i
 45.2  31.9184  27.731 i
 45.25  33.9643  27.738 i
 45.3  42.6439  27.7449 i
 45.35  30.4026  27.7519 i
 45.4  35.8088  27.7589 i
 45.45  31.4839  27.7658 i
 45.5  24.9257  27.7728 i
 45.55  35.6105  27.7799 i
 45.6  33.1593  27.7869 i
 45.65  32.7227  27.7939 i
 45.7  29.2811  27.801 i
 45.75  28.9902  27.808 i
 45.8  35.1032  27.8151 i
 45.85  41.5432  27.8222 i
 45.9  37.2482  27.8293 i
 45.95  47.2041  27.8365 i
 46  29.7113  27.8436 i
 46.05  27.1491  27.8507 i
 46.1  30.9123  27.8579 i
 46.15  54.4322  27.8651 i
 46.2  30.7181  27.8723 i
 46.25  38.6025  27.8795 i
 46.3  35.1552  27.8867 i
 46.35  21.0294  27.8939 i
 46.4  20.2039  27.9011 i
 46.45  38.3328  27.9084 i
 46.5  24.7301  27.9157 i
 46.55  25.5284  27.9229 i
 46.6  24.4974  27.9302 i
 46.65  35.4523  27.9375 i
 46.7  35.0095  27.9448 i
 46.75  28.01  27.9521 i
 46.8  23.1775  27.9595 i
 46.85  31.7144  27.9668 i
 46.9  36.1548  27.9742 i
 46.95  36.7447  27.9815 i
 47  33.9529  27.9889 i
 47.05  30.581  27.9963 i
 47.1  38.4029  28.0037 i
 47.15  34.3291  28.0111 i
 47.2  27.0902  28.0185 i
 47.25  33.5909  28.026 i
 47.3  33.4702  28.0334 i
 47.35  26.9467  28.0409 i
 47.4  29.0786  28.0483 i
 47.45  37.3651  28.0558 i
 47.5  24.3114  28.0633 i
 47.55  33.4045  28.0708 i
 47.6  49.4399  28.0783 i
 47.65  38.2053  28.0858 i
 47.7  35.7026  28.0933 i
 47.75  34.7815  28.1009 i
 47.8  42.1992  28.1084 i
 47.85  24.1757  28.1159 i
 47.9  33.3117  28.1235 i
 47.95  37.0695  28.1311 i
 48  30.1618  28.1387 i
 48.05  31.1592  28.1463 i
 48.1  31.0074  28.1539 i
 48.15  30.9875  28.1615 i
 48.2  41.1467  28.1691 i
 48.25  44.082  28.1767 i
 48.3  27.3278  28.1843 i
 48.35  25.1238  28.192 i
 48.4  25.5835  28.1996 i
 48.45  35.6291  28.2073 i
 48.5  30.2138  28.215 i
 48.55  30.1269  28.2226 i
 48.6  37.169  28.2303 i
 48.65  37.5491  28.238 i
 48.7  30.308  28.2457 i
 48.75  36.201  28.2534 i
 48.8  36.7494  28.2611 i
 48.85  38.5004  28.2689 i
 48.9  22.4033  28.2766 i
 48.95  21.8485  28.2843 i
 49  29.7056  28.2921 i
 49.05  34.5606  28.2998 i
 49.1  33.8712  28.3076 i
 49.15  31.7099  28.3154 i
 49.2  33.0921  28.3231 i
 49.25  36.3854  28.3309 i
 49.3  23.8398  28.3387 i
 49.35  34.8406  28.3465 i
 49.4  34.3508  28.3543 i
 49.45  24.09  28.3621 i
 49.5  36.3527  28.3699 i
 49.55  33.6891  28.3778 i
 49.6  31.6449  28.3856 i
 49.65  37.5174  28.3934 i
 49.7  30.4201  28.4013 i
 49.75  27.465  28.4091 i
 49.8  26.6867  28.417 i
 49.85  24.8483  28.4248 i
 49.9  37.221  28.4327 i
 49.95  25.0773  28.4405 i
 50  18.4361  28.4484 i
 50.05  33.1636  28.4563 i
 50.1  32.9176  28.4642 i
 50.15  41.1764  28.4721 i
 50.2  35.5821  28.48 i
 50.25  32.5983  28.4879 i
 50.3  41.0388  28.4958 i
 50.35  48.731  28.5037 i
 50.4  34.1577  28.5116 i
 50.45  35.7899  28.5195 i
 50.5  39.5793  28.5274 i
 50.55  37.8482  28.5354 i
 50.6  27.8029  28.5433 i
 50.65  29.3678  28.5512 i
 50.7  41.4553  28.5592 i
 50.75  52.6161  28.5671 i
 50.8  35.8396  28.5751 i
 50.85  35.7346  28.583 i
 50.9  28.0737  28.591 i
 50.95  35.0516  28.5989 i
 51  35.7444  28.6069 i
 51.05  30.005  28.6149 i
 51.1  22.984  28.6228 i
 51.15  35.6693  28.6308 i
 51.2  35.5324  28.6388 i
 51.25  35.5497  28.6468 i
 51.3  19.1604  28.6548 i
 51.35  22.7842  28.6627 i
 51.4  33.677  28.6707 i
 51.45  27.9124  28.6787 i
 51.5  26.5908  28.6867 i
 51.55  28.3835  28.6947 i
 51.6  35.5099  28.7027 i
 51.65  32.0566  28.7107 i
 51.7  42.6384  28.7187 i
 51.75  38.1596  28.7267 i
 51.8  26.1248  28.7347 i
 51.85  28.5612  28.7427 i
 51.9  24.9543  28.7508 i
 51.95  32.1656  28.7588 i
 52  28.0354  28.7668 i
 52.05  32.5576  28.7748 i
 52.1  25.9237  28.7828 i
 52.15  22.2608  28.7908 i
 52.2  18.3813  28.7989 i
 52.25  31.8822  28.8069 i
 52.3  23.0473  28.8149 i
 52.35  35.9973  28.8229 i
 52.4  33.903  28.831 i
 52.45  34.6542  28.839 i
 52.5  31.3164  28.847 i
 52.55  25.4413  28.855 i
 52.6  34.2617  28.8631 i
 52.65  38.6472  28.8711 i
 52.7  32.2549  28.8791 i
 52.75  31.9038  28.8872 i
 52.8  32.2016  28.8952 i
 52.85  38.7738  28.9032 i
 52.9  22.023  28.9112 i
 52.95  17.4382  28.9193 i
 53  27.1595  28.9273 i
 53.05  28.5527  28.9353 i
 53.1  30.2704  28.9434 i
 53.15  33.3825  28.9514 i
 53.2  28.4977  28.9594 i
 53.25  30.606  28.9674 i
 53.3  23.6575  28.9755 i
 53.35  27.1034  28.9835 i
 53.4  27.6034  28.9915 i
 53.45  29.2561  28.9995 i
 53.5  32.4905  29.0076 i
 53.55  27.2615  29.0156 i
 53.6  23.5012  29.0236 i
 53.65  26.5321  29.0316 i
 53.7  26.6637  29.0396 i
 53.75  31.965  29.0476 i
 53.8  34.2897  29.0557 i
 53.85  25.554  29.0637 i
 53.9  35.4068  29.0717 i
 53.95  30.2825  29.0797 i
 54  23.7218  29.0877 i
 54.05  32.0434  29.0957 i
 54.1  34.8024  29.1037 i
 54.15  27.4832  29.1117 i
 54.2  24.3028  29.1197 i
 54.25  38.1094  29.1277 i
 54.3  39.4693  29.1357 i
 54.35  46.9149  29.1436 i
 54.4  33.7736  29.1516 i
 54.45  42.2222  29.1596 i
 54.5  34.9511  29.1676 i
 54.55  23.3855  29.1756 i
 54.6  34.7055  29.1835 i
 54.65  30.5538  29.1915 i
 54.7  32.8359  29.1995 i
 54.75  41.2753  29.2074 i
 54.8  23.8369  29.2154 i
 54.85  30.8411  29.2233 i
 54.9  43.1432  29.2313 i
 54.95  35.356  29.2392 i
 55  27.9086  29.2472 i
 55.05  28.1334  29.2551 i
 55.1  34.6833  29.263 i
 55.15  28.819  29.271 i
 55.2  24.6401  29.2789 i
 55.25  35.4187  29.2868 i
 55.3  35.7932  29.2947 i
 55.35  26.6578  29.3026 i
 55.4  29.7648  29.3105 i
 55.45  22.5431  29.3185 i
 55.5  25.4467  29.3263 i
 55.55  28.3838  29.3342 i
 55.6  29.0777  29.3421 i
 55.65  34.3471  29.35 i
 55.7  39.2153  29.3579 i
 55.75  28.2105  29.3657 i
 55.8  34.3819  29.3736 i
 55.85  29.4367  29.3815 i
 55.9  30.6546  29.3893 i
 55.95  35.2387  29.3972 i
 56  17.0272  29.405 i
 56.05  30.1544  29.4128 i
 56.1  17.5297  29.4207 i
 56.15  29.3911  29.4285 i
 56.2  26.1053  29.4363 i
 56.25  38.2484  29.4441 i
 56.3  34.5782  29.4519 i
 56.35  26.7864  29.4597 i
 56.4  30.7461  29.4675 i
 56.45  38.8441  29.4753 i
 56.5  35.6936  29.4831 i
 56.55  32.2565  29.4908 i
 56.6  24.2466  29.4986 i
 56.65  32.3309  29.5064 i
 56.7  25.2001  29.5141 i
 56.75  36.9618  29.5219 i
 56.8  27.6543  29.5296 i
 56.85  33.2444  29.5373 i
 56.9  30.8023  29.545 i
 56.95  29.8762  29.5527 i
 57  32.6169  29.5604 i
 57.05  35.5342  29.5681 i
 57.1  29.5889  29.5758 i
 57.15  43.7591  29.5835 i
 57.2  31.541  29.5912 i
 57.25  40.6793  29.5988 i
 57.3  25.8413  29.6065 i
 57.35  15.5405  29.6141 i
 57.4  30.217  29.6218 i
 57.45  16.1498  29.6294 i
 57.5  21.1677  29.637 i
 57.55  30.1588  29.6446 i
 57.6  29.756  29.6522 i
 57.65  32.8089  29.6598 i
 57.7  28.7436  29.6674 i
 57.75  28.2639  29.675 i
 57.8  37.6233  29.6825 i
 57.85  34.8634  29.6901 i
 57.9  31.1489  29.6976 i
 57.95  31.7408  29.7052 i
 58  18.7754  29.7127 i
 58.05  25.1757  29.7202 i
 58.1  32.5294  29.7277 i
 58.15  25.7341  29.7352 i
 58.2  16.7979  29.7427 i
 58.25  26.6828  29.7502 i
 58.3  24.7974  29.7576 i
 58.35  26.7004  29.7651 i
 58.4  26.8662  29.7725 i
 58.45  29.5598  29.78 i
 58.5  35.9594  29.7874 i
 58.55  38.5383  29.7948 i
 58.6  31.2466  29.8022 i
 58.65  29.4644  29.8096 i
 58.7  38.235  29.817 i
 58.75  29.2873  29.8244 i
 58.8  29.9861  29.8317 i
 58.85  29.3686  29.8391 i
 58.9  32.0994  29.8464 i
 58.95  40.6817  29.8537 i
 59  31.5742  29.861 i
 59.05  42.9725  29.8683 i
 59.1  35.6642  29.8756 i
 59.15  41.3237  29.8829 i
 59.2  33.506  29.8902 i
 59.25  31.8079  29.8974 i
 59.3  32.3417  29.9046 i
 59.35  24.6916  29.9119 i
 59.4  29.6589  29.9191 i
 59.45  31.0996  29.9263 i
 59.5  30.3714  29.9335 i
 59.55  29.8726  29.9407 i
 59.6  25.4399  29.9478 i
 59.65  21.2179  29.955 i
 59.7  33.5796  29.9621 i
 59.75  35.1024  29.9692 i
 59.8  37.808  29.9764 i
 59.85  31.5957  29.9834 i
 59.9  33.8034  29.9905 i
 59.95  29.4474  29.9976 i
 60  37.2433  30.0047 i
 60.05  27.441  30.0117 i
 60.1  34.5908  30.0187 i
 60.15  32.9919  30.0258 i
 60.2  32.5289  30.0328 i
 60.25  40.6798  30.0398 i
 60.3  25.967  30.0467 i
 60.35  30.597  30.0537 i
 60.4  28.7849  30.0606 i
 60.45  17.8627  30.0676 i
 60.5  21.3383  30.0745 i
 60.55  29.8729  30.0814 i
 60.6  29.9214  30.0883 i
 60.65  36.4642  30.0952 i
 60.7  26.628  30.102 i
 60.75  29.9671  30.1089 i
 60.8  39.6306  30.1157 i
 60.85  35.8177  30.1225 i
 60.9  37.3352  30.1293 i
 60.95  39.0127  30.1361 i
 61  23.0591  30.1428 i
 61.05  28.9609  30.1496 i
 61.1  21.0368  30.1563 i
 61.15  33.914  30.1631 i
 61.2  45.5104  30.1698 i
 61.25  31.6965  30.1765 i
 61.3  26.7141  30.1831 i
 61.35  34.7994  30.1898 i
 61.4  41.6043  30.1964 i
 61.45  36.0413  30.203 i
 61.5  34.931  30.2097 i
 61.55  29.8177  30.2162 i
 61.6  29.7473  30.2228 i
 61.65  28.0122  30.2294 i
 61.7  26.7147  30.2359 i
 61.75  35.5499  30.2424 i
 61.8  31.273  30.249 i
 61.85  21.4263  30.2554 i
 61.9  34.0777  30.2619 i
 61.95  33.2066  30.2684 i
 62  36.6572  30.2748 i
 62.05  35.0088  30.2812 i
 62.1  28.6669  30.2876 i
 62.15  23.1215  30.294 i
 62.2  38.0178  30.3004 i
 62.25  34.8652  30.3067 i
 62.3  26.6907  30.3131 i
 62.35  30.8277  30.3194 i
 62.4  30.6088  30.3257 i
 62.45  31.9414  30.332 i
 62.5  29.5631  30.3382 i
 62.55  37.5327  30.3445 i
 62.6  28.5518  30.3507 i
 62.65  23.9083  30.3569 i
 62.7  31.5126  30.3631 i
 62.75  21.3822  30.3693 i
 62.8  38.0105  30.3754 i
 62.85  26.618  30.3815 i
 62.9  28.0272  30.3876 i
 62.95  37.0113  30.3937 i
 63  31.8078  30.3998 i
 63.05  36.3406  30.4059 i
 63.1  31.3645  30.4119 i
 63.15  43.3611  30.4179 i
 63.2  25.2117  30.4239 i
 63.25  31.8898  30.4299 i
 63.3  35.933  30.4358 i
 63.35  28.644  30.4418 i
 63.4  30.6136  30.4477 i
 63.45  33.0928  30.4536 i
 63.5  37.355  30.4595 i
 63.55  25.3814  30.4653 i
 63.6  27.6046  30.4711 i
 63.65  30.0218  30.477 i
 63.7  21.9354  30.4828 i
 63.75  33.9409  30.4885 i
 63.8  22.7538  30.4943 i
 63.85  23.2378  30.5 i
 63.9  33.6434  30.5057 i
 63.95  27.5842  30.5114 i
 64  26.659  30.5171 i
 64.05  33.2619  30.5227 i
 64.1  34.8572  30.5283 i
 64.15  20.5684  30.5339 i
 64.2  21.543  30.5395 i
 64.25  27.9756  30.5451 i
 64.3  38.2445  30.5506 i
 64.35  34.7548  30.5561 i
 64.4  27.7506  30.5616 i
 64.45  42.0997  30.5671 i
 64.5  30.3378  30.5726 i
 64.55  42.1449  30.578 i
 64.6  58.4474  30.5834 i
 64.65  63.3706  30.5888 i
 64.7  82.7807  30.5941 i
 64.75  102.603  30.5995 i
 64.8  135.649  30.6048 i
 64.85  149.361  30.6101 i
 64.9  130.858  30.6154 i
 64.95  108.806  30.6206 i
 65  100.373  30.6258 i
 65.05  68.3242  30.631 i
 65.1  65.7894  30.6362 i
 65.15  50.3756  30.6414 i
 65.2  29.8279  30.6465 i
 65.25  36.7409  30.6516 i
 65.3  40.7853  30.6567 i
 65.35  35.0605  30.6618 i
 65.4  35.5205  30.6668 i
 65.45  40.9345  30.6718 i
 65.5  24.1354  30.6768 i
 65.55  35.0711  30.6818 i
 65.6  33.3703  30.6867 i
 65.65  44.446  30.6916 i
 65.7  22.6257  30.6965 i
 65.75  35.1371  30.7014 i
 65.8  36.724  30.7062 i
 65.85  35.6131  30.711 i
 65.9  26.9584  30.7158 i
 65.95  36.5082  30.7206 i
 66  47.1958  30.7253 i
 66.05  34.1294  30.7301 i
 66.1  28.9445  30.7348 i
 66.15  27.4213  30.7394 i
 66.2  32.3694  30.7441 i
 66.25  34.8194  30.7487 i
 66.3  34.4838  30.7533 i
 66.35  31.4067  30.7578 i
 66.4  37.2854  30.7624 i
 66.45  32.1781  30.7669 i
 66.5  24.7274  30.7714 i
 66.55  29.4899  30.7759 i
 66.6  29.2102  30.7803 i
 66.65  29.0114  30.7847 i
 66.7  34.8912  30.7891 i
 66.75  37.9108  30.7934 i
 66.8  27.7566  30.7978 i
 66.85  27.2009  30.8021 i
 66.9  49.2718  30.8064 i
 66.95  82.6398  30.8106 i
 67  57.2129  30.8148 i
 67.05  36.6893  30.819 i
 67.1  25.4369  30.8232 i
 67.15  38.3499  30.8274 i
 67.2  39.0681  30.8315 i
 67.25  20.4217  30.8356 i
 67.3  37.6475  30.8396 i
 67.35  26.4527  30.8437 i
 67.4  31.8022  30.8477 i
 67.45  29.1736  30.8516 i
 67.5  26.5016  30.8556 i
 67.55  27.9331  30.8595 i
 67.6  28.148  30.8634 i
 67.65  32.3449  30.8673 i
 67.7  26.3092  30.8711 i
 67.75  21.3369  30.8749 i
 67.8  28.3208  30.8787 i
 67.85  32.0294  30.8825 i
 67.9  25.1722  30.8862 i
 67.95  29.7973  30.8899 i
 68  19.4615  30.8936 i
 68.05  22.4658  30.8972 i
 68.1  34.1349  30.9008 i
 68.15  39.8425  30.9044 i
 68.2  29.2741  30.9079 i
 68.25  24.9104  30.9115 i
 68.3  22.0618  30.915 i
 68.35  25.6283  30.9184 i
 68.4  25.796  30.9219 i
 68.45  34.606  30.9253 i
 68.5  35.0552  30.9286 i
 68.55  22.6447  30.932 i
 68.6  21.1903  30.9353 i
 68.65  20.464  30.9386 i
 68.7  28.137  30.9418 i
 68.75  37.5853  30.9451 i
 68.8  26.6977  30.9483 i
 68.85  28.7412  30.9514 i
 68.9  23.2442  30.9546 i
 68.95  27.059  30.9577 i
 69  38.5583  30.9607 i
 69.05  36.0947  30.9638 i
 69.1  46.0984  30.9668 i
 69.15  18.1181  30.9698 i
 69.2  26.8449  30.9727 i
 69.25  26.3054  30.9756 i
 69.3  29.9374  30.9785 i
 69.35  29.7689  30.9814 i
 69.4  28.6955  30.9842 i
 69.45  33.9213  30.987 i
 69.5  26.7333  30.9898 i
 69.55  26.059  30.9925 i
 69.6  26.2754  30.9952 i
 69.65  22.8438  30.9979 i
 69.7  23.0771  31.0005 i
 69.75  32.468  31.0031 i
 69.8  34.0765  31.0057 i
 69.85  24.974  31.0082 i
 69.9  27.5592  31.0107 i
 69.95  30.0315  31.0132 i
 70  15.4171  31.0156 i
 70.05  23.0263  31.018 i
 70.1  29.0686  31.0204 i
 70.15  30.2694  31.0227 i
 70.2  15.9326  31.0251 i
 70.25  32.4093  31.0273 i
 70.3  30.3323  31.0296 i
 70.35  30.3063  31.0318 i
 70.4  24.3065  31.034 i
 70.45  25.2417  31.0361 i
 70.5  27.1996  31.0382 i
 70.55  31.6037  31.0403 i
 70.6  35.1086  31.0423 i
 70.65  28.2248  31.0443 i
 70.7  28.7356  31.0463 i
 70.75  24.0555  31.0483 i
 70.8  22.1409  31.0502 i
 70.85  27.5577  31.052 i
 70.9  29.4738  31.0539 i
 70.95  26.2197  31.0557 i
 71  28.9834  31.0574 i
 71.05  27.2757  31.0592 i
 71.1  44.3875  31.0609 i
 71.15  25.0243  31.0625 i
 71.2  20.7918  31.0642 i
 71.25  25.1199  31.0658 i
 71.3  24.2824  31.0673 i
 71.35  29.3978  31.0689 i
 71.4  22.3779  31.0703 i
 71.45  29.1399  31.0718 i
 71.5  24.895  31.0732 i
 71.55  29.642  31.0746 i
 71.6  33.4365  31.076 i
 71.65  21.3308  31.0773 i
 71.7  30.2425  31.0785 i
 71.75  23.2273  31.0798 i
 71.8  28.3339  31.081 i
 71.85  28.732  31.0822 i
 71.9  21.6711  31.0833 i
 71.95  22.1916  31.0844 i
 72  24.7131  31.0855 i
 72.05  22.6431  31.0865 i
 72.1  31.6595  31.0875 i
 72.15  36.5692  31.0884 i
 72.2  24.3035  31.0893 i
 72.25  30.5878  31.0902 i
 72.3  23.2765  31.091 i
 72.35  22.4286  31.0918 i
 72.4  34.6186  31.0926 i
 72.45  23.7162  31.0933 i
 72.5  21.0198  31.094 i
 72.55  23.8403  31.0947 i
 72.6  26.7943  31.0953 i
 72.65  27.1129  31.0959 i
 72.7  26.9273  31.0964 i
 72.75  27.1775  31.0969 i
 72.8  26.9502  31.0974 i
 72.85  36.6194  31.0978 i
 72.9  35.9587  31.0982 i
 72.95  24.2134  31.0986 i
 73  22.5445  31.0989 i
 73.05  27.8025  31.0992 i
 73.1  32.7845  31.0994 i
 73.15  31.2823  31.0996 i
 73.2  21.4202  31.0997 i
 73.25  25.0705  31.0999 i
 73.3  27.1357  31.1 i
 73.35  23.9235  31.1 i
 73.4  25.5421  31.1 i
 73.45  34.0591  31.0999 i
 73.5  30.8273  31.0996 i
 73.55  29.5245  31.0993 i
 73.6  28.233  31.0988 i
 73.65  26.1851  31.0982 i
 73.7  31.718  31.0975 i
 73.75  25.477  31.0967 i
 73.8  31.2499  31.0957 i
 73.85  35.2175  31.0947 i
 73.9  36.7711  31.0935 i
 73.95  29.5307  31.0922 i
 74  32.2288  31.0908 i
 74.05  34.9811  31.0893 i
 74.1  28.5503  31.0876 i
 74.15  34.5003  31.0859 i
 74.2  23.7794  31.084 i
 74.25  23.6033  31.0821 i
 74.3  31.3893  31.08 i
 74.35  22.4866  31.0778 i
 74.4  24.8337  31.0755 i
 74.45  24.52  31.0731 i
 74.5  31.1092  31.0706 i
 74.55  24.9048  31.068 i
 74.6  31.6583  31.0652 i
 74.65  31.3002  31.0624 i
 74.7  32.9591  31.0595 i
 74.75  33.5119  31.0565 i
 74.8  32.9667  31.0533 i
 74.85  26.8179  31.0501 i
 74.9  30.4923  31.0467 i
 74.95  35.4674  31.0433 i
 75  24.3429  31.0398 i
 75.05  19.9704  31.0361 i
 75.1  26.9733  31.0324 i
 75.15  22.4737  31.0286 i
 75.2  26.3779  31.0246 i
 75.25  29.4684  31.0206 i
 75.3  26.0606  31.0165 i
 75.35  27.0861  31.0123 i
 75.4  37.5626  31.008 i
 75.45  34.9681  31.0036 i
 75.5  26.0457  30.9991 i
 75.55  30.4093  30.9945 i
 75.6  22.0652  30.9898 i
 75.65  30.4534  30.9851 i
 75.7  27.424  30.9802 i
 75.75  16.6082  30.9753 i
 75.8  28.4495  30.9703 i
 75.85  30.5525  30.9652 i
 75.9  36.5719  30.96 i
 75.95  34.0858  30.9547 i
 76  28.8846  30.9493 i
 76.05  26.4761  30.9439 i
 76.1  17.3621  30.9383 i
 76.15  25.4097  30.9327 i
 76.2  36.3585  30.927 i
 76.25  24.9562  30.9213 i
 76.3  28.8922  30.9154 i
 76.35  25.5171  30.9095 i
 76.4  27.5581  30.9034 i
 76.45  29.2104  30.8974 i
 76.5  27.8047  30.8912 i
 76.55  27.954  30.8849 i
 76.6  32.1111  30.8786 i
 76.65  27.4863  30.8722 i
 76.7  25.8451  30.8658 i
 76.75  30.1771  30.8592 i
 76.8  36.191  30.8526 i
 76.85  28.342  30.8459 i
 76.9  37.2253  30.8392 i
 76.95  37.7657  30.8323 i
 77  26.0427  30.8254 i
 77.05  35.6095  30.8185 i
 77.1  26.2627  30.8115 i
 77.15  21.2607  30.8044 i
 77.2  29.4722  30.7972 i
 77.25  26.2838  30.79 i
 77.3  30.1199  30.7827 i
 77.35  27.4752  30.7753 i
 77.4  25.7455  30.7679 i
 77.45  25.8655  30.7604 i
 77.5  26.0086  30.7528 i
 77.55  30.6376  30.7452 i
 77.6  37.324  30.7376 i
 77.65  24.4244  30.7298 i
 77.7  22.5368  30.7221 i
 77.75  35.2856  30.7142 i
 77.8  22.9437  30.7063 i
 77.85  27.0891  30.6983 i
 77.9  27.3134  30.6903 i
 77.95  39.3456  30.6823 i
 78  29.7542  30.6741 i
 78.05  26.4098  30.666 i
 78.1  26.1953  30.6577 i
 78.15  35.8253  30.6494 i
 78.2  35.5049  30.6411 i
 78.25  29.9581  30.6327 i
 78.3  32.0425  30.6243 i
 78.35  29.3717  30.6158 i
 78.4  24.5877  30.6073 i
 78.45  17.3071  30.5987 i
 78.5  22.6149  30.5901 i
 78.55  27.7271  30.5814 i
 78.6  25.8572  30.5727 i
 78.65  29.9138  30.5639 i
 78.7  28.8951  30.5551 i
 78.75  24.9419  30.5463 i
 78.8  26.9039  30.5374 i
 78.85  22.1763  30.5284 i
 78.9  29.7848  30.5195 i
 78.95  25.1661  30.5104 i
 79  24.1294  30.5014 i
 79.05  34.2097  30.4923 i
 79.1  31.4071  30.4832 i
 79.15  19.5371  30.474 i
 79.2  32.003  30.4648 i
 79.25  26.1292  30.4556 i
 79.3  44.8541  30.4463 i
 79.35  36.365  30.437 i
 79.4  28.055  30.4276 i
 79.45  24.4877  30.4183 i
 79.5  31.2002  30.4089 i
 79.55  26.9844  30.3994 i
 79.6  35.3108  30.39 i
 79.65  28.5371  30.3805 i
 79.7  32.8532  30.3709 i
 79.75  30.4088  30.3614 i
 79.8  34.7081  30.3518 i
 79.85  30.5066  30.3422 i
 79.9  24.8388  30.3326 i
 79.95  37.2528  30.3229 i
 80  18.8263  30.3132 i
 80.05  31.1504  30.3035 i
 80.1  36.4786  30.2938 i
 80.15  28.4803  30.284 i
 80.2  24.0471  30.2742 i
 80.25  25.5735  30.2645 i
 80.3  22.8703  30.2546 i
 80.35  26.158  30.2448 i
 80.4  36.4286  30.235 i
 80.45  34.6985  30.2251 i
 80.5  35.9301  30.2152 i
 80.55  25.599  30.2053 i
 80.6  34.3046  30.1954 i
 80.65  29.388  30.1855 i
 80.7  25.3452  30.1755 i
 80.75  31.4074  30.1655 i
 80.8  28.9255  30.1556 i
 80.85  39.4212  30.1456 i
 80.9  31.2851  30.1356 i
 80.95  34.307  30.1256 i
 81  29.6752  30.1156 i
 81.05  21.8901  30.1056 i
 81.1  23.5785  30.0955 i
 81.15  32.7865  30.0855 i
 81.2  18.4941  30.0755 i
 81.25  26.8519  30.0654 i
 81.3  26.6023  30.0553 i
 81.35  29.7527  30.0453 i
 81.4  34.2022  30.0352 i
 81.45  37.8907  30.0252 i
 81.5  32.2525  30.0151 i
 81.55  36.5596  30.005 i
 81.6  32.9395  29.995 i
 81.65  25.9721  29.9849 i
 81.7  32.6003  29.9748 i
 81.75  35.3591  29.9648 i
 81.8  34.7179  29.9547 i
 81.85  41.5873  29.9447 i
 81.9  46.5177  29.9346 i
 81.95  65.5576  29.9245 i
 82  86.5727  29.9145 i
 82.05  105.686  29.9045 i
 82.1  127.801  29.8944 i
 82.15  126.256  29.8844 i
 82.2  111.411  29.8744 i
 82.25  94.1025  29.8644 i
 82.3  85.9434  29.8544 i
 82.35  57.6913  29.8444 i
 82.4  48.0139  29.8345 i
 82.45  38.2499  29.8245 i
 82.5  45.8749  29.8145 i
 82.55  32.8902  29.8046 i
 82.6  28.6155  29.7947 i
 82.65  44.1499  29.7848 i
 82.7  39.9435  29.7749 i
 82.75  29.5464  29.765 i
 82.8  42.9182  29.7552 i
 82.85  37.6767  29.7454 i
 82.9  28.4253  29.7355 i
 82.95  30.8734  29.7258 i
 83  33.0628  29.716 i
 83.05  23.2708  29.7062 i
 83.1  26.8489  29.6965 i
 83.15  31.7454  29.6868 i
 83.2  24.519  29.6771 i
 83.25  31.9099  29.6674 i
 83.3  33.4855  29.6578 i
 83.35  23.8922  29.6482 i
 83.4  27.2347  29.6386 i
 83.45  30.3956  29.6291 i
 83.5  24.5054  29.6195 i
 83.55  18.653  29.61 i
 83.6  33.6077  29.6006 i
 83.65  32.6163  29.5911 i
 83.7  34.5042  29.5817 i
 83.75  32.4733  29.5724 i
 83.8  29.3947  29.563 i
 83.85  25.239  29.5537 i
 83.9  24.3296  29.5444 i
 83.95  24.769  29.5352 i
 84  24.7817  29.526 i
 84.05  27.7157  29.5168 i
 84.1  23.5468  29.5077 i
 84.15  33.2767  29.4986 i
 84.2  15.4412  29.4896 i
 84.25  32.251  29.4805 i
 84.3  35.0946  29.4716 i
 84.35  29.9674  29.4626 i
 84.4  29.2566  29.4537 i
 84.45  32.1419  29.4449 i
 84.5  30.1546  29.4361 i
 84.55  28.3124  29.4273 i
 84.6  30.5487  29.4186 i
 84.65  38.535  29.4099 i
 84.7  21.1398  29.4013 i
 84.75  23.8266  29.3927 i
 84.8  40.4576  29.3842 i
 84.85  28.2562  29.3757 i
 84.9  27.5499  29.3673 i
 84.95  27.689  29.3589 i
 85  28.4769  29.3506 i
 85.05  26.9059  29.3423 i
 85.1  33.9048  29.334 i
 85.15  24.7616  29.3259 i
 85.2  20.4597  29.3177 i
 85.25  33.5677  29.3097 i
 85.3  29.5589  29.3017 i
 85.35  23.0553  29.2937 i
 85.4  27.2213  29.2858 i
 85.45  25.7768  29.2779 i
 85.5  33.0241  29.2702 i
 85.55  31.1808  29.2624 i
 85.6  24.3582  29.2548 i
 85.65  28.587  29.2472 i
 85.7  28.0235  29.2396 i
 85.75  32.6504  29.2321 i
 85.8  28.1538  29.2247 i
 85.85  23.3768  29.2173 i
 85.9  29.2742  29.21 i
 85.95  31.1678  29.2028 i
 86  31.4953  29.1956 i
 86.05  31.6545  29.1885 i
 86.1  31.6445  29.1815 i
 86.15  24.9577  29.1746 i
 86.2  29.2583  29.1677 i
 86.25  37.5804  29.1608 i
 86.3  23.9904  29.1541 i
 86.35  29.6203  29.1474 i
 86.4  26.273  29.1408 i
 86.45  32.2933  29.1342 i
 86.5  29.9585  29.1278 i
 86.55  21.2357  29.1214 i
 86.6  22.552  29.1151 i
 86.65  27.331  29.1088 i
 86.7  28.1346  29.1026 i
 86.75  20.4604  29.0966 i
 86.8  35.0105  29.0905 i
 86.85  31.189  29.0846 i
 86.9  38.9069  29.0787 i
 86.95  27.1987  29.073 i
 87  21.5387  29.0673 i
 87.05  31.1592  29.0617 i
 87.1  24.5341  29.0561 i
 87.15  32.0738  29.0507 i
 87.2  26.6801  29.0453 i
 87.25  30.6933  29.04 i
 87.3  30.7841  29.0348 i
 87.35  33.8891  29.0297 i
 87.4  32.982  29.0247 i
 87.45  28.7066  29.0198 i
 87.5  38.4992  29.0149 i
 87.55  31.8888  29.0102 i
 87.6  22.3902  29.0055 i
 87.65  30.5635  29.0009 i
 87.7  29.6761  28.9964 i
 87.75  34.1947  28.992 i
 87.8  26.7164  28.9877 i
 87.85  28.378  28.9835 i
 87.9  31.452  28.9794 i
 87.95  21.1944  28.9754 i
 88  27.5528  28.9714 i
 88.05  28.4868  28.9676 i
 88.1  25.7264  28.9639 i
 88.15  22.3958  28.9602 i
 88.2  29.8147  28.9567 i
 88.25  29.9072  28.9533 i
 88.3  31.3675  28.9499 i
 88.35  22.7591  28.9467 i
 88.4  26.5583  28.9435 i
 88.45  26.797  28.9405 i
 88.5  35.717  28.9376 i
 88.55  31.461  28.9348 i
 88.6  36.4981  28.932 i
 88.65  35.3849  28.9294 i
 88.7  30.4358  28.9269 i
 88.75  34.5093  28.9245 i
 88.8  39.2739  28.9222 i
 88.85  26.4088  28.92 i
 88.9  27.0358  28.9179 i
 88.95  29.3783  28.916 i
 89  29.5667  28.9141 i
 89.05  32.9437  28.9124 i
 89.1  25.0294  28.9107 i
 89.15  23.5376  28.9092 i
 89.2  30.2501  28.9078 i
 89.25  28.6149  28.9065 i
 89.3  23.8721  28.9053 i
 89.35  23.0913  28.9043 i
 89.4  18.2199  28.9033 i
 89.45  38.2235  28.9025 i
 89.5  25.466  28.9018 i
 89.55  30.4391  28.9012 i
 89.6  23.587  28.9007 i
 89.65  27.1315  28.9004 i
 89.7  40.4463  28.9001 i
 89.75  40.8403  28.9 i
 89.8  20.724  28.9 i
 89.85  31.0603  28.9002 i
 89.9  39.021  28.9004 i
 89.95  25.5341  28.9008 i
 90  33.5927  28.9014 i
 90.05  32.4974  28.902 i
 90.1  18.2392  28.9028 i
 90.15  34.4334  28.9037 i
 90.2  27.0057  28.9047 i
 90.25  25.2624  28.9059 i
 90.3  17.1439  28.9072 i
 90.35  24.0478  28.9086 i
 90.4  32.6049  28.9101 i
 90.45  36.0227  28.9117 i
 90.5  36.4745  28.9135 i
 90.55  30.0485  28.9154 i
 90.6  31.4116  28.9174 i
 90.65  35.8518  28.9195 i
 90.7  32.1167  28.9217 i
 90.75  24.5646  28.9241 i
 90.8  26.4464  28.9265 i
 90.85  30.2304  28.9291 i
 90.9  20.1581  28.9318 i
 90.95  29.1309  28.9346 i
 91  26.3414  28.9375 i
 91.05  22.2817  28.9405 i
 91.1  30.3794  28.9437 i
 91.15  31.6429  28.9469 i
 91.2  33.0996  28.9502 i
 91.25  23.6976  28.9537 i
 91.3  29.6722  28.9573 i
 91.35  35.4884  28.9609 i
 91.4  31.1493  28.9647 i
 91.45  27.7493  28.9686 i
 91.5  30.5542  28.9726 i
 91.55  30.6566  28.9766 i
 91.6  27.5512  28.9808 i
 91.65  24.1948  28.9851 i
 91.7  19.8902  28.9895 i
 91.75  27.4674  28.994 i
 91.8  28.8934  28.9985 i
 91.85  30.7489  29.0032 i
 91.9  30.3334  29.008 i
 91.95  28.5802  29.0129 i
 92  32.0294  29.0178 i
 92.05  21.4994  29.0229 i
 92.1  25.627  29.028 i
 92.15  25.4567  29.0333 i
 92.2  13.7457  29.0386 i
 92.25  24.3071  29.044 i
 92.3  24.8311  29.0496 i
 92.35  26.9461  29.0552 i
 92.4  45.4358  29.0609 i
 92.45  29.7721  29.0666 i
 92.5  25.8994  29.0725 i
 92.55  28.0096  29.0785 i
 92.6  21.9456  29.0845 i
 92.65  25.2545  29.0906 i
 92.7  35.5859  29.0968 i
 92.75  33.2454  29.1031 i
 92.8  28.1177  29.1095 i
 92.85  25.3871  29.1159 i
 92.9  36.0558  29.1225 i
 92.95  25.4705  29.1291 i
 93  18.4982  29.1358 i
 93.05  18.8073  29.1425 i
 93.1  34.826  29.1494 i
 93.15  23.7596  29.1563 i
 93.2  29.4687  29.1633 i
 93.25  19.2927  29.1703 i
 93.3  31.5239  29.1775 i
 93.35  23.3991  29.1847 i
 93.4  29.1644  29.192 i
 93.45  25.3894  29.1993 i
 93.5  25.319  29.2068 i
 93.55  22.5727  29.2143 i
 93.6  29.7709  29.2218 i
 93.65  25.5869  29.2295 i
 93.7  29.2774  29.2372 i
 93.75  35.9256  29.2449 i
 93.8  29.0201  29.2527 i
 93.85  34.562  29.2606 i
 93.9  28.8299  29.2686 i
 93.95  21.9493  29.2766 i
 94  21.4191  29.2847 i
 94.05  31.848  29.2928 i
 94.1  37.8915  29.3011 i
 94.15  40.3518  29.3093 i
 94.2  26.2393  29.3176 i
 94.25  29.8153  29.326 i
 94.3  35.6645  29.3345 i
 94.35  24.6206  29.343 i
 94.4  35.9409  29.3515 i
 94.45  22.0083  29.3601 i
 94.5  33.7535  29.3688 i
 94.55  27.051  29.3775 i
 94.6  38.9897  29.3862 i
 94.65  26.9308  29.395 i
 94.7  32.9816  29.4039 i
 94.75  21.3963  29.4128 i
 94.8  37.7115  29.4218 i
 94.85  26.5702  29.4308 i
 94.9  31.0799  29.4399 i
 94.95  26.6333  29.449 i
 95  34.0562  29.4581 i
 95.05  26.6934  29.4673 i
 95.1  27.9231  29.4765 i
 95.15  31.5074  29.4858 i
 95.2  23.006  29.4951 i
 95.25  35.0173  29.5045 i
 95.3  32.7548  29.5139 i
 95.35  19.7755  29.5233 i
 95.4  22.8252  29.5328 i
 95.45  27.9794  29.5424 i
 95.5  19.9154  29.5519 i
 95.55  30.8119  29.5615 i
 95.6  35.2739  29.5711 i
 95.65  39.2374  29.5808 i
 95.7  20.8525  29.5905 i
 95.75  26.995  29.6002 i
 95.8  27.6779  29.61 i
 95.85  31.0937  29.6198 i
 95.9  23.7703  29.6296 i
 95.95  38.7592  29.6395 i
 96  35.6551  29.6494 i
 96.05  32.0878  29.6593 i
 96.1  25.641  29.6692 i
 96.15  24.6005  29.6792 i
 96.2  28.3436  29.6892 i
 96.25  21.9427  29.6992 i
 96.3  35.1318  29.7092 i
 96.35  29.4235  29.7193 i
 96.4  30.6076  29.7294 i
 96.45  29.3571  29.7395 i
 96.5  27.4888  29.7496 i
 96.55  27.9421  29.7598 i
 96.6  28.904  29.77 i
 96.65  33.6141  29.7801 i
 96.7  15.143  29.7904 i
 96.75  34.8352  29.8006 i
 96.8  19.2737  29.8108 i
 96.85  21.5965  29.8211 i
 96.9  30.5982  29.8313 i
 96.95  24.8131  29.8416 i
 97  29.8976  29.8519 i
 97.05  32.2515  29.8622 i
 97.1  39.0496  29.8725 i
 97.15  27.0747  29.8829 i
 97.2  39.8126  29.8932 i
 97.25  25.4833  29.9035 i
 97.3  24.9751  29.9139 i
 97.35  35.2988  29.9243 i
 97.4  25.5579  29.9346 i
 97.45  24.5449  29.945 i
 97.5  24.4168  29.9554 i
 97.55  30.7349  29.9657 i
 97.6  31.7417  29.9761 i
 97.65  27.3502  29.9865 i
 97.7  16.5804  29.9969 i
 97.75  37.4852  30.0073 i
 97.8  22.6009  30.0177 i
 97.85  30.4818  30.028 i
 97.9  32.4137  30.0384 i
 97.95  34.3168  30.0488 i
 98  34.3749  30.0592 i
 98.05  39.5645  30.0695 i
 98.1  29.9241  30.0799 i
 98.15  25.9062  30.0902 i
 98.2  36.0543  30.1006 i
 98.25  38.8036  30.1109 i
 98.3  44.1295  30.1213 i
 98.35  53.3158  30.1316 i
 98.4  51.1079  30.1419 i
 98.45  71.3204  30.1522 i
 98.5  70.0199  30.1625 i
 98.55  96.4733  30.1728 i
 98.6  100.433  30.183 i
 98.65  128.625  30.1933 i
 98.7  131.081  30.2035 i
 98.75  116.084  30.2137 i
 98.8  81.8673  30.2239 i
 98.85  64.5448  30.2341 i
 98.9  64.8591  30.2443 i
 98.95  54.4274  30.2544 i
 99  40.6076  30.2645 i
 99.05  43.3072  30.2746 i
 99.1  34.3028  30.2847 i
 99.15  39.947  30.2948 i
 99.2  41.1407  30.3048 i
 99.25  29.6835  30.3148 i
 99.3  36.5466  30.3248 i
 99.35  34.153  30.3348 i
 99.4  40.4921  30.3447 i
 99.45  30.2198  30.3546 i
 99.5  29.9968  30.3645 i
 99.55  31.8015  30.3743 i
 99.6  42.6401  30.3841 i
 99.65  23.7148  30.3939 i
 99.7  31.2941  30.4037 i
 99.75  30.0256  30.4134 i
 99.8  23.8006  30.4231 i
 99.85  36.6486  30.4327 i
 99.9  24.9432  30.4423 i
 99.95  31.3648  30.4519 i
 100  23.8878  30.4615 i
 100.05  27.2189  30.471 i
 100.1  26.9431  30.4804 i
 100.15  34.9079  30.4899 i
 100.2  24.9471  30.4993 i
 100.25  35.7378  30.5086 i
 100.3  23.6921  30.5179 i
 100.35  32.8671  30.5272 i
 100.4  27.9632  30.5364 i
 100.45  23.3146  30.5456 i
 100.5  28.6861  30.5547 i
 100.55  34.2445  30.5638 i
 100.6  32.9027  30.5728 i
 100.65  30.7901  30.5818 i
 100.7  23.3099  30.5907 i
 100.75  24.9426  30.5996 i
 100.8  28.3196  30.6085 i
 100.85  26.6453  30.6173 i
 100.9  19.9679  30.626 i
 100.95  25.9395  30.6347 i
 101  27.5737  30.6433 i
 101.05  22.5151  30.6519 i
 101.1  30.3039  30.6605 i
 101.15  28.1355  30.6689 i
 101.2  24.7786  30.6773 i
 101.25  27.0283  30.6857 i
 101.3  35.6445  30.694 i
 101.35  24.4011  30.7022 i
 101.4  35.3568  30.7104 i
 101.45  26.1127  30.7185 i
 101.5  33.8415  30.7266 i
 101.55  31.7626  30.7346 i
 101.6  19.6091  30.7425 i
 101.65  18.3737  30.7504 i
 101.7  27.6415  30.7582 i
 101.75  29.8542  30.7659 i
 101.8  28.2778  30.7736 i
 101.85  30.5347  30.7812 i
 101.9  38.2698  30.7887 i
 101.95  33.2593  30.7962 i
 102  25.287  30.8036 i
 102.05  25.1934  30.8109 i
 102.1  37.1353  30.8182 i
 102.15  28.2018  30.8254 i
 102.2  29.4478  30.8325 i
 102.25  34.4949  30.8395 i
 102.3  32.5392  30.8465 i
 102.35  25.7147  30.8534 i
 102.4  32.7021  30.8602 i
 102.45  22.2682  30.8669 i
 102.5  27.2851  30.8736 i
 102.55  32.2022  30.8802 i
 102.6  37.1714  30.8867 i
 102.65  30.4842  30.8931 i
 102.7  26.3745  30.8994 i
 102.75  33.9091  30.9057 i
 102.8  33.3752  30.9118 i
 102.85  24.2175  30.9179 i
 102.9  26.7681  30.9239 i
 102.95  31.5496  30.9299 i
 103  29.2418  30.9357 i
 103.05  16.6645  30.9414 i
 103.1  30.3628  30.9471 i
 103.15  19.4691  30.9527 i
 103.2  33.9053  30.9581 i
 103.25  27.0019  30.9635 i
 103.3  29.1326  30.9688 i
 103.35  34.8907  30.974 i
 103.4  22.2109  30.9791 i
 103.45  33.1648  30.9842 i
 103.5  41.2765  30.9891 i
 103.55  35.4961  30.9939 i
 103.6  23.227  30.9987 i
 103.65  29.9932  31.0033 i
 103.7  29.2697  31.0078 i
 103.75  34.5807  31.0123 i
 103.8  21.6968  31.0166 i
 103.85  19.9029  31.0209 i
 103.9  31.0785  31.025 i
 103.95  29.9077  31.029 i
 104  33.6778  31.033 i
 104.05  22.0817  31.0368 i
 104.1  31.6008  31.0406 i
 104.15  34.2877  31.0442 i
 104.2  34.4353  31.0477 i
 104.25  26.073  31.0511 i
 104.3  35.7201  31.0544 i
 104.35  35.9022  31.0576 i
 104.4  26.1347  31.0607 i
 104.45  25.0996  31.0637 i
 104.5  30.6657  31.0665 i
 104.55  30.5656  31.0693 i
 104.6  32.5087  31.0719 i
 104.65  31.2437  31.0745 i
 104.7  24.1597  31.0769 i
 104.75  30.3604  31.0792 i
 104.8  28.117  31.0814 i
 104.85  30.3388  31.0834 i
 104.9  32.3856  31.0854 i
 104.95  32.5158  31.0872 i
 105  26.4396  31.0889 i
 105.05  18.6311  31.0905 i
 105.1  33.099  31.092 i
 105.15  35.0851  31.0933 i
 105.2  26.4681  31.0946 i
 105.25  18.3353  31.0957 i
 105.3  30.1339  31.0967 i
 105.35  34.7166  31.0975 i
 105.4  25.8701  31.0983 i
 105.45  22.6666  31.0989 i
 105.5  25.8017  31.0993 i
 105.55  29.9947  31.0997 i
 105.6  30.6095  31.0999 i
 105.65  26.3997  31.1 i
 105.7  23.1677  31.1 i
 105.75  33.8752  31.0999 i
 105.8  28.4673  31.0998 i
 105.85  42.7157  31.0996 i
 105.9  31.2917  31.0994 i
 105.95  26.3457  31.0991 i
 106  25.204  31.0987 i
 106.05  21.6985  31.0983 i
 106.1  30.3544  31.0978 i
 106.15  46.2141  31.0973 i
 106.2  21.5733  31.0968 i
 106.25  39.511  31.0961 i
 106.3  30.8405  31.0955 i
 106.35  29.6457  31.0947 i
 106.4  32.2055  31.0939 i
 106.45  26.9464  31.0931 i
 106.5  24.5104  31.0922 i
 106.55  25.067  31.0912 i
 106.6  23.3198  31.0902 i
 106.65  41.6953  31.0892 i
 106.7  24.6613  31.0881 i
 106.75  24.6986  31.0869 i
 106.8  36.9928  31.0857 i
 106.85  33.0788  31.0844 i
 106.9  20.219  31.0831 i
 106.95  20.8577  31.0818 i
 107  29.8174  31.0803 i
 107.05  17.4952  31.0789 i
 107.1  31.3713  31.0773 i
 107.15  33.3574  31.0758 i
 107.2  34.4343  31.0741 i
 107.25  27.3608  31.0724 i
 107.3  31.6781  31.0707 i
 107.35  30.6476  31.0689 i
 107.4  31.7699  31.0671 i
 107.45  22.0698  31.0652 i
 107.5  28.09  31.0633 i
 107.55  29.0226  31.0613 i
 107.6  30.7881  31.0593 i
 107.65  30.3107  31.0572 i
 107.7  30.5109  31.0551 i
 107.75  29.2413  31.0529 i
 107.8  34.3574  31.0506 i
 107.85  29.7264  31.0484 i
 107.9  27.7124  31.046 i
 107.95  32.2218  31.0437 i
 108  27.3406  31.0412 i
 108.05  34.1692  31.0387 i
 108.1  32.736  31.0362 i
 108.15  33.078  31.0337 i
 108.2  32.4663  31.031 i
 108.25  29.5427  31.0284 i
 108.3  26.2736  31.0256 i
 108.35  40.5652  31.0229 i
 108.4  27.0859  31.0201 i
 108.45  26.4289  31.0172 i
 108.5  25.6111  31.0143 i
 108.55  23.0699  31.0114 i
 108.6  21.6136  31.0084 i
 108.65  29.7224  31.0053 i
 108.7  30.3553  31.0022 i
 108.75  36.5711  30.9991 i
 108.8  33.0166  30.9959 i
 108.85  29.1991  30.9927 i
 108.9  25.6801  30.9894 i
 108.95  34.401  30.9861 i
 109  26.1844  30.9827 i
 109.05  26.7282  30.9793 i
 109.1  32.9607  30.9758 i
 109.15  23.162  30.9723 i
 109.2  26.2883  30.9688 i
 109.25  27.7476  30.9652 i
 109.3  27.6769  30.9615 i
 109.35  31.9251  30.9579 i
 109.4  24.2102  30.9541 i
 109.45  28.2283  30.9504 i
 109.5  29.2908  30.9466 i
 109.55  28.1144  30.9427 i
 109.6  34.1194  30.9388 i
 109.65  31.0323  30.9349 i
 109.7  22.0932  30.9309 i
 109.75  25.3722  30.9268 i
 109.8  23.4265  30.9228 i
 109.85  29.412  30.9187 i
 109.9  31.814  30.9145 i
 109.95  25.6423  30.9103 i
 110  28.4938  30.9061 i
 110.05  27.1289  30.9018 i
 110.1  24.3378  30.8975 i
 110.15  24.6045  30.8931 i
 110.2  44.3518  30.8887 i
 110.25  24.9675  30.8842 i
 110.3  18.6286  30.8797 i
 110.35  28.7269  30.8752 i
 110.4  26.9071  30.8706 i
 110.45  33.7246  30.866 i
 110.5  40.2601  30.8614 i
 110.55  26.3668  30.8567 i
 110.6  29.0693  30.8519 i
 110.65  27.4116  30.8472 i
 110.7  30.5442  30.8423 i
 110.75  29.4202  30.8375 i
 110.8  27.5339  30.8326 i
 110.85  26.719  30.8277 i
 110.9  25.1842  30.8227 i
 110.95  35.0468  30.8177 i
 111  37.3238  30.8126 i
 111.05  37.4628  30.8075 i
 111.1  29.6771  30.8024 i
 111.15  30.3558  30.7973 i
 111.2  29.535  30.7921 i
 111.25  23.1206  30.7868 i
 111.3  27.9519  30.7815 i
 111.35  30.4625  30.7762 i
 111.4  39.5511  30.7709 i
 111.45  24.7954  30.7655 i
 111.5  25.3063  30.76 i
 111.55  27.1375  30.7546 i
 111.6  38.0015  30.7491 i
 111.65  36.0848  30.7435 i
 111.7  31.6019  30.7379 i
 111.75  32.986  30.7323 i
 111.8  23.7017  30.7267 i
 111.85  33.267  30.721 i
 111.9  19.6679  30.7153 i
 111.95  42.5349  30.7095 i
 112  28.4958  30.7037 i
 112.05  29.5112  30.6979 i
 112.1  29.7978  30.692 i
 112.15  21.5237  30.6861 i
 112.2  29.1114  30.6802 i
 112.25  25.2792  30.6742 i
 112.3  28.573  30.6682 i
 112.35  37.5944  30.6622 i
 112.4  32.3615  30.6561 i
 112.45  26.644  30.65 i
 112.5  22.5174  30.6439 i
 112.55  21.1465  30.6377 i
 112.6  43.2116  30.6315 i
 112.65  25.4658  30.6253 i
 112.7  38.3586  30.619 i
 112.75  27.6218  30.6127 i
 112.8  29.416  30.6063 i
 112.85  37.7544  30.6 i
 112.9  33.0704  30.5936 i
 112.95  34.954  30.5871 i
 113  25.9459  30.5807 i
 113.05  28.2187  30.5741 i
 113.1  26.6454  30.5676 i
 113.15  25.4845  30.561 i
 113.2  37.4876  30.5545 i
 113.25  33.4446  30.5478 i
 113.3  31.4983  30.5412 i
 113.35  33.649  30.5345 i
 113.4  30.3328  30.5277 i
 113.45  24.2464  30.521 i
 113.5  28.2647  30.5142 i
 113.55  21.2588  30.5074 i
 113.6  40.9797  30.5006 i
 113.65  25.9686  30.4937 i
 113.7  29.4643  30.4868 i
 113.75  31.4223  30.4798 i
 113.8  33.0487  30.4729 i
 113.85  27.3165  30.4659 i
 113.9  25.4627  30.4589 i
 113.95  35.8195  30.4518 i
 114  37.6669  30.4447 i
 114.05  28.3783  30.4376 i
 114.1  39.5864  30.4305 i
 114.15  34.4142  30.4233 i
 114.2  30.9362  30.4161 i
 114.25  38.0094  30.4089 i
 114.3  27.6599  30.4016 i
 114.35  42.0457  30.3944 i
 114.4  22.3106  30.387 i
 114.45  25.4021  30.3797 i
 114.5  36.6376  30.3723 i
 114.55  37.5246  30.365 i
 114.6  30.6795  30.3575 i
 114.65  31.8336  30.3501 i
 114.7  33.0691  30.3426 i
 114.75  31.1641  30.3351 i
 114.8  22.1012  30.3276 i
 114.85  34.0875  30.3201 i
 114.9  27.0482  30.3125 i
 114.95  35.257  30.3049 i
 115  24.1502  30.2972 i
 115.05  38.0362  30.2896 i
 115.1  32.3012  30.2819 i
 115.15  24.897  30.2742 i
 115.2  42.4905  30.2665 i
 115.25  35.1979  30.2587 i
 115.3  41.0576  30.251 i
 115.35  50.1675  30.2432 i
 115.4  25.2257  30.2353 i
 115.45  37.3705  30.2275 i
 115.5  40.0831  30.2196 i
 115.55  44.7661  30.2117 i
 115.6  49.0652  30.2038 i
 115.65  53.6735  30.1958 i
 115.7  56.5909  30.1879 i
 115.75  70.9771  30.1799 i
 115.8  60.3547  30.1718 i
 115.85  70.5336  30.1638 i
 115.9  76.0337  30.1557 i
 115.95  78.9103  30.1477 i
 116  65.8899  30.1395 i
 116.05  71.8161  30.1314 i
 116.1  74.8607  30.1233 i
 116.15  66.811  30.1151 i
 116.2  70.9241  30.1069 i
 116.25  62.2262  30.0987 i
 116.3  37.102  30.0904 i
 116.35  51.0493  30.0822 i
 116.4  46.2376  30.0739 i
 116.45  48.965  30.0656 i
 116.5  50.3464  30.0573 i
 116.55  34.1345  30.0489 i
 116.6  37.5447  30.0406 i
 116.65  33.3252  30.0322 i
 116.7  38.7327  30.0238 i
 116.75  28.2721  30.0154 i
 116.8  40.4077  30.0069 i
 116.85  31.0617  29.9984 i
 116.9  33.111  29.99 i
 116.95  26.4027  29.9815 i
 117  29.604  29.9729 i
 117.05  34.6034  29.9644 i
 117.1  20.2479  29.9558 i
 117.15  26.4605  29.9473 i
 117.2  22.083  29.9387 i
 117.25  26.5313  29.93 i
 117.3  25.1914  29.9214 i
 117.35  29.1021  29.9128 i
 117.4  38.2066  29.9041 i
 117.45  34.8688  29.8954 i
 117.5  22.0923  29.8867 i
 117.55  23.4321  29.878 i
 117.6  29.98  29.8692 i
 117.65  40.3994  29.8605 i
 117.7  41.4263  29.8517 i
 117.75  38.2412  29.8429 i
 117.8  39.883  29.8341 i
 117.85  29.7499  29.8253 i
 117.9  29.6567  29.8164 i
 117.95  35.5834  29.8076 i
 118  27.9421  29.7987 i
 118.05  35.7174  29.7898 i
 118.1  28.6667  29.7809 i
 118.15  24.5857  29.772 i
 118.2  27.8216  29.7631 i
 118.25  33.8938  29.7541 i
 118.3  20.9475  29.7452 i
 118.35  28.5533  29.7362 i
 118.4  33.7835  29.7272 i
 118.45  25.0835  29.7182 i
 118.5  27.0422  29.7092 i
 118.55  26.4091  29.7001 i
 118.6  27.1524  29.6911 i
 118.65  29.1075  29.682 i
 118.7  27.4784  29.6729 i
 118.75  40.0351  29.6639 i
 118.8  28.6588  29.6548 i
 118.85  32.1066  29.6456 i
 118.9  23.2823  29.6365 i
 118.95  37.4298  29.6274 i
 119  33.3902  29.6182 i
 119.05  30.0222  29.609 i
 119.1  41.5146  29.5999 i
 119.15  28.8327  29.5907 i
 119.2  42.016  29.5815 i
 119.25  24.2099  29.5723 i
 119.3  26.6147  29.563 i
 119.35  28.0983  29.5538 i
 119.4  30.1926  29.5445 i
 119.45  30.5052  29.5353 i
 119.5  26.7238  29.526 i
 119.55  40.908  29.5167 i
 119.6  31.6631  29.5074 i
 119.65  22.2058  29.4981 i
 119.7  33.5862  29.4888 i
 119.75  26.6097  29.4795 i
 119.8  29.6432  29.4702 i
 119.85  30.9173  29.4608 i
 119.9  27.5523  29.4515 i
 119.95  27.6271  29.4421 i
 120  27.5653  29.4327 i
 120.05  27.7258  29.4233 i
 120.1  36.7824  29.414 i
 120.15  24.184  29.4046 i
 120.2  24.7156  29.3951 i
 120.25  36.5814  29.3857 i
 120.3  38.5652  29.3763 i
 120.35  35.5214  29.3669 i
 120.4  45.3067  29.3574 i
 120.45  32.6679  29.348 i
 120.5  33.7325  29.3385 i
 120.55  23.0343  29.3291 i
 120.6  22.8123  29.3196 i
 120.65  27.5859  29.3101 i
 120.7  24.3457  29.3006 i
 120.75  35.2404  29.2911 i
 120.8  28.1419  29.2816 i
 120.85  28.3195  29.2721 i
 120.9  32.5699  29.2626 i
 120.95  29.2547  29.2531 i
 121  27.8657  29.2436 i
 121.05  22.4546  29.234 i
 121.1  23.9257  29.2245 i
 121.15  25.6446  29.215 i
 121.2  26.9385  29.2054 i
 121.25  24.473  29.1959 i
 121.3  24.9076  29.1863 i
 121.35  25.9332  29.1768 i
 121.4  34.3067  29.1672 i
 121.45  29.7478  29.1576 i
 121.5  23.4114  29.148 i
 121.55  24.4842  29.1385 i
 121.6  44.2196  29.1289 i
 121.65  28.2854  29.1193 i
 121.7  29.8745  29.1097 i
 121.75  32.6073  29.1001 i
 121.8  32.2125  29.0905 i
 121.85  26.6514  29.0809 i
 121.9  20.9768  29.0713 i
 121.95  24.0222  29.0617 i
 122  28.0093  29.0521 i
 122.05  36.2066  29.0425 i
 122.1  31.7597  29.0329 i
 122.15  29.0807  29.0232 i
 122.2  33.7169  29.0136 i
 122.25  30.4139  29.004 i
 122.3  37.3914  28.9944 i
 122.35  28.4765  28.9847 i
 122.4  22.4077  28.9751 i
 122.45  34.462  28.9655 i
 122.5  24.7988  28.9559 i
 122.55  28.6987  28.9462 i
 122.6  26.711  28.9366 i
 122.65  18.4874  28.927 i
 122.7  24.4308  28.9173 i
 122.75  33.4399  28.9077 i
 122.8  25.8384  28.8981 i
 122.85  35.0178  28.8884 i
 122.9  22.2925  28.8788 i
 122.95  29.2722  28.8692 i
 123  26.86  28.8595 i
 123.05  25.1125  28.8499 i
 123.1  36.777  28.8403 i
 123.15  26.7701  28.8307 i
 123.2  25.0359  28.821 i
 123.25  24.3055  28.8114 i
 123.3  37.023  28.8018 i
 123.35  30.6482  28.7922 i
 123.4  32.8033  28.7825 i
 123.45  30.3912  28.7729 i
 123.5  28.1585  28.7633 i
 123.55  23.7393  28.7537 i
 123.6  28.6756  28.7441 i
 123.65  37.4991  28.7345 i
 123.7  26.5799  28.7249 i
 123.75  24.552  28.7153 i
 123.8  33.1725  28.7057 i
 123.85  30.8342  28.6961 i
 123.9  29.3224  28.6865 i
 123.95  33.4897  28.6769 i
 124  32.681  28.6673 i
 124.05  32.2963  28.6577 i
 124.1  27.0117  28.6481 i
 124.15  26.3945  28.6386 i
 124.2  43.8734  28.629 i
 124.25  30.8365  28.6194 i
 124.3  17.9594  28.6099 i
 124.35  30.6225  28.6003 i
 124.4  28.4835  28.5908 i
 124.45  27.2979  28.5812 i
 124.5  38.5671  28.5717 i
 124.55  21.8177  28.5621 i
 124.6  31.541  28.5526 i
 124.65  26.2579  28.5431 i
 124.7  27.0858  28.5336 i
 124.75  23.7591  28.5241 i
 124.8  24.8683  28.5146 i
 124.85  26.8708  28.5051 i
 124.9  29.255  28.4956 i
 124.95  25.7637  28.4861 i
 125  34.6183  28.4766 i
 125.05  28.3962  28.4671 i
 125.1  41.455  28.4577 i
 125.15  25.8962  28.4482 i
 125.2  29.5994  28.4388 i
 125.25  27.2343  28.4294 i
 125.3  19.0795  28.4199 i
 125.35  28.0921  28.4105 i
 125.4  32.5127  28.4011 i
 125.45  29.9052  28.3917 i
 125.5  30.2721  28.3823 i
 125.55  24.1677  28.3729 i
 125.6  26.0696  28.3635 i
 125.65  22.9776  28.3542 i
 125.7  30.2799  28.3448 i
 125.75  36.4078  28.3354 i
 125.8  29.4564  28.3261 i
 125.85  28.2048  28.3168 i
 125.9  19.4553  28.3075 i
 125.95  26.2176  28.2981 i
 126  35.5025  28.2888 i
 126.05  39.2959  28.2796 i
 126.1  31.0593  28.2703 i
 126.15  25.5197  28.261 i
 126.2  28.728  28.2518 i
 126.25  20.7748  28.2425 i
 126.3  30.9176  28.2333 i
 126.35  24.5021  28.2241 i
 126.4  28.5449  28.2148 i
 126.45  35.81  28.2057 i
 126.5  30.9268  28.1965 i
 126.55  31.9657  28.1873 i
 126.6  28.6603  28.1781 i
 126.65  34.1361  28.169 i
 126.7  29.7626  28.1598 i
 126.75  32.7838  28.1507 i
 126.8  23.9319  28.1416 i
 126.85  26.7313  28.1325 i
 126.9  32.8057  28.1234 i
 126.95  37.4295  28.1144 i
 127  31.1929  28.1053 i
 127.05  31.7737  28.0963 i
 127.1  25.8085  28.0872 i
 127.15  25.7523  28.0782 i
 127.2  25.8387  28.0692 i
 127.25  38.0973  28.0602 i
 127.3  30.1364  28.0512 i
 127.35  26.1083  28.0423 i
 127.4  29.9819  28.0333 i
 127.45  33.5839  28.0244 i
 127.5  25.6763  28.0155 i
 127.55  31.6199  28.0066 i
 127.6  33.5534  27.9977 i
 127.65  28.864  27.9889 i
 127.7  21.3766  27.98 i
 127.75  25.4543  27.9712 i
 127.8  28.2729  27.9624 i
 127.85  29.0836  27.9536 i
 127.9  29.8608  27.9448 i
 127.95  28.1066  27.936 i
 128  37.2269  27.9273 i
 128.05  27.7655  27.9185 i
 128.1  33.1005  27.9098 i
 128.15  17.4442  27.9011 i
 128.2  25.9392  27.8924 i
 128.25  29.3906  27.8838 i
 128.3  33.5214  27.8751 i
 128.35  32.6701  27.8665 i
 128.4  36.5034  27.8579 i
 128.45  27.7698  27.8493 i
 128.5  34.9757  27.8407 i
 128.55  30.3881  27.8322 i
 128.6  30.9553  27.8237 i
 128.65  20.1778  27.8151 i
 128.7  35.0777  27.8066 i
 128.75  33.6807  27.7982 i
 128.8  36.5717  27.7897 i
 128.85  31.338  27.7813 i
 128.9  27.2655  27.7729 i
 128.95  29.3485  27.7645 i
 129  26.7323  27.7561 i
 129.05  24.3664  27.7477 i
 129.1  36.08  27.7394 i
 129.15  36.1416  27.7311 i
 129.2  36.9345  27.7228 i
 129.25  36.8403  27.7145 i
 129.3  32.7166  27.7063 i
 129.35  40.3173  27.698 i
 129.4  23.3142  27.6898 i
 129.45  29.2798  27.6816 i
 129.5  33.1056  27.6735 i
 129.55  34.9496  27.6653 i
 129.6  35.2761  27.6572 i
 129.65  23.1164  27.6491 i
 129.7  30.5117  27.641 i
 129.75  21.7229  27.633 i
 129.8  27.2816  27.6249 i
 129.85  24.9366  27.6169 i
 129.9  26.9891  27.609 i
 129.95  27.8748  27.601 i
 130  22.3582  27.5931 i

