40 35.9534 27.2671 8.6863
40.05 49.3036 27.2753 22.0283
40.1 29.351 27.2837 2.0673
40.15 19.4918 27.2922 -7.8004
40.2 40.1044 27.3008 12.8036
40.25 37.7786 27.3095 10.4691
40.3 43.2514 27.3185 15.9329
40.35 47.9477 27.3276 20.6201
40.4 42.8697 27.3369 15.5328
40.45 31.3926 27.3464 4.0462
40.5 38.5006 27.356 11.1446
40.55 38.5652 27.3658 11.1994
40.6 42.9458 27.3758 15.57
40.65 32.4879 27.3861 5.1018
40.7 45.4255 27.3965 18.029
40.75 38.8654 27.4072 11.4582
40.8 43.899 27.4182 16.4808
40.85 43.2753 27.4294 15.8459
40.9 24.9307 27.4408 -2.5101
40.95 33.5764 27.4527 6.1237
41 43.2525 27.4646 15.7879
41.05 53.7805 27.477 26.3035
41.1 30.3844 27.4896 2.8948
41.15 41.8174 27.5027 14.3147
41.2 42.6187 27.516 15.1027
41.25 36.5769 27.53 9.0469
41.3 34.9481 27.544 7.4041
41.35 35.1574 27.5588 7.5986
41.4 30.5596 27.5737 2.9859
41.45 38.5239 27.5895 10.9344
41.5 36.0489 27.6053 8.4436
41.55 38.4193 27.6222 10.7971
41.6 29.5316 27.6392 1.8924
41.65 31.7821 27.6573 4.1248
41.7 31.6532 27.6755 3.9777
41.75 41.5305 27.6947 13.8358
41.8 39.8351 27.7147 12.1204
41.85 38.3954 27.7359 10.6595
41.9 31.3759 27.7572 3.6187
41.95 28.2577 27.7803 0.4774
42 37.9984 27.8034 10.195
42.05 29.8663 27.8288 2.0375
42.1 39.3122 27.8541 11.4581
42.15 30.8236 27.8821 2.9415
42.2 34.4917 27.91 6.5817
42.25 26.7828 27.9409 -1.1581
42.3 41.7582 27.9719 13.7863
42.35 41.4468 28.0055 13.4413
42.4 29.0013 28.0411 0.9602
42.45 32.7547 28.08 4.6747
42.5 41.7816 28.1189 13.6627
42.55 33.7565 28.1616 5.5949
42.6 49.3202 28.2072 21.113
42.65 34.1417 28.2578 5.8839
42.7 29.565 28.3083 1.2567
42.75 45.3565 28.3646 16.9919
42.8 33.7901 28.4252 5.3649
42.85 37.7794 28.4936 9.2858
42.9 40.2087 28.562 11.6467
42.95 35.9351 28.6431 7.292
43 34.4615 28.7242 5.7373
43.05 30.141 28.8219 1.3191
43.1 29.9336 28.9195 1.0141
43.15 40.9904 29.0332 11.9572
43.2 46.4895 29.1601 17.3294
43.25 28.6286 29.316 -0.6874
43.3 33.2123 29.4719 3.7404
43.35 33.357 29.7348 3.6222
43.4 35.9536 29.9977 5.9559
43.45 35.7296 30.3859 5.3437
43.5 37.5791 30.7741 6.805
43.55 39.5269 31.149 8.3779
43.6 35.8882 31.5505 4.3377
43.65 43.556 32.01 11.546
43.7 47.585 32.5459 15.0391
43.75 34.7925 33.1803 1.6122
43.8 41.279 33.9395 7.3395
43.85 45.0038 34.8622 10.1416
43.9 44.506 35.9974 8.5086
43.95 44.6922 37.4217 7.2705
44 43.5094 39.2411 4.2683
44.05 43.8252 41.6234 2.2018
44.1 46.2304 44.8419 1.3885
44.15 54.5537 49.4597 5.094
44.2 56.4172 56.0184 0.3988
44.25 72.0402 66.6562 5.384
44.3 74.7581 86.1213 -11.3632
44.35 107.441 128.201 -20.76
44.4 196.096 227.975 -31.879
44.45 388.118 453.077 -64.959
44.5 933.633 857.75 75.883
44.55 1535.36 1350.18 185.18
44.6 1805.85 1585.03 220.82
44.65 1332.36 1285.97 46.39
44.7 695.835 705.277 -9.442
44.75 299.937 297.444 2.493
44.8 153.483 143.128 10.355
44.85 104.766 92.5924 12.1736
44.9 63.6463 69.4549 -5.8086
44.95 52.3047 57.5557 -5.251
45 63.0349 49.7482 13.2867
45.05 54.2844 44.9542 9.3302
45.1 41.4708 41.4483 0.0225
45.15 49.9978 38.9863 11.0115
45.2 31.9184 37.1402 -5.2218
45.25 33.9643 35.8757 -1.9114
45.3 42.6439 34.6112 8.0327
45.35 30.4026 33.8058 -3.4032
45.4 35.8088 33.0004 2.8084
45.45 31.4839 32.4565 -0.9726
45.5 24.9257 31.9126 -6.9869
45.55 35.6105 31.5284 4.0821
45.6 33.1593 31.1443 2.015
45.65 32.7227 30.8619 1.8608
45.7 29.2811 30.5795 -1.2984
45.75 28.9902 30.3505 -1.3603
45.8 35.1032 30.1216 4.9816
45.85 41.5432 29.9143 11.6289
45.9 37.2482 29.7391 7.5091
45.95 47.2041 29.5978 17.6063
46 29.7113 29.4785 0.2328
46.05 27.1491 29.3795 -2.2304
46.1 30.9123 29.2805 1.6318
46.15 54.4322 29.1973 25.2349
46.2 30.7181 29.1227 1.5954
46.25 38.6025 29.0588 9.5437
46.3 35.1552 28.9949 6.1603
46.35 21.0294 28.9427 -7.9133
46.4 20.2039 28.8905 -8.6866
46.45 38.3328 28.8476 9.4852
46.5 24.7301 28.8046 -4.0745
46.55 25.5284 28.7691 -3.2407
46.6 24.4974 28.7335 -4.2361
46.65 35.4523 28.704 6.7483
46.7 35.0095 28.6745 6.335
46.75 28.01 28.65 -0.64
46.8 23.1775 28.6254 -5.4479
46.85 31.7144 28.605 3.1094
46.9 36.1548 28.5845 7.5703
46.95 36.7447 28.5675 8.1772
47 33.9529 28.5505 5.4024
47.05 30.581 28.5364 2.0446
47.1 38.4029 28.5223 9.8806
47.15 34.3291 28.5106 5.8185
47.2 27.0902 28.499 -1.4088
47.25 33.5909 28.4894 5.1015
47.3 33.4702 28.4799 4.9903
47.35 26.9467 28.4722 -1.5255
47.4 29.0786 28.4644 0.6142
47.45 37.3651 28.4583 8.9068
47.5 24.3114 28.4521 -4.1407
47.55 33.4045 28.4473 4.9572
47.6 49.4399 28.4425 20.9974
47.65 38.2053 28.4386 9.7667
47.7 35.7026 28.4353 7.2673
47.75 34.7815 28.4327 6.3488
47.8 42.1992 28.4301 13.7691
47.85 24.1757 28.4285 -4.2528
47.9 33.3117 28.4269 4.8848
47.95 37.0695 28.4261 8.6434
48 30.1618 28.4252 1.7366
48.05 31.1592 28.4252 2.734
48.1 31.0074 28.4251 2.5823
48.15 30.9875 28.4256 2.5619
48.2 41.1467 28.4262 12.7205
48.25 44.082 28.4272 15.6548
48.3 27.3278 28.4285 -1.1007
48.35 25.1238 28.4301 -3.3063
48.4 25.5835 28.4318 -2.8483
48.45 35.6291 28.434 7.1951
48.5 30.2138 28.4361 1.7777
48.55 30.1269 28.4387 1.6882
48.6 37.169 28.4412 8.7278
48.65 37.5491 28.4442 9.1049
48.7 30.308 28.4471 1.8609
48.75 36.201 28.4504 7.7506
48.8 36.7494 28.4537 8.2957
48.85 38.5004 28.4574 10.043
48.9 22.4033 28.461 -6.0577
48.95 21.8485 28.4649 -6.6164
49 29.7056 28.4688 1.2368
49.05 34.5606 28.473 6.0876
49.1 33.8712 28.4772 5.394
49.15 31.7099 28.4816 3.2283
49.2 33.0921 28.486 4.6061
49.25 36.3854 28.4925 7.8929
49.3 23.8398 28.499 -4.6592
49.35 34.8406 28.5039 6.3367
49.4 34.3508 28.5087 5.8421
49.45 24.09 28.5138 -4.4238
49.5 36.3527 28.5188 7.8339
49.55 33.6891 28.5241 5.165
49.6 31.6449 28.5293 3.1156
49.65 37.5174 28.5347 8.9827
49.7 30.4201 28.5401 1.88
49.75 27.465 28.5457 -1.0807
49.8 26.6867 28.5512 -1.8645
49.85 24.8483 28.5569 -3.7086
49.9 37.221 28.5626 8.6584
49.95 25.0773 28.5684 -3.4911
50 18.4361 28.5742 -10.1381
50.05 33.1636 28.5802 4.5834
50.1 32.9176 28.5861 4.3315
50.15 41.1764 28.5922 12.5842
50.2 35.5821 28.5982 6.9839
50.25 32.5983 28.6044 3.9939
50.3 41.0388 28.6106 12.4282
50.35 48.731 28.6168 20.1142
50.4 34.1577 28.6231 5.5346
50.45 35.7899 28.6295 7.1604
50.5 39.5793 28.6358 10.9435
50.55 37.8482 28.6423 9.2059
50.6 27.8029 28.6487 -0.8458
50.65 29.3678 28.6553 0.7125
50.7 41.4553 28.6618 12.7935
50.75 52.6161 28.6684 23.9477
50.8 35.8396 28.675 7.1646
50.85 35.7346 28.6817 7.0529
50.9 28.0737 28.6884 -0.6147
50.95 35.0516 28.6951 6.3565
51 35.7444 28.7019 7.0425
51.05 30.005 28.7087 1.2963
51.1 22.984 28.7155 -5.7315
51.15 35.6693 28.7224 6.9469
51.2 35.5324 28.7293 6.8031
51.25 35.5497 28.7362 6.8135
51.3 19.1604 28.7431 -9.5827
51.35 22.7842 28.7501 -5.9659
51.4 33.677 28.7571 4.9199
51.45 27.9124 28.7641 -0.8517
51.5 26.5908 28.7712 -2.1804
51.55 28.3835 28.7783 -0.3948
51.6 35.5099 28.7853 6.7246
51.65 32.0566 28.7925 3.2641
51.7 42.6384 28.7996 13.8388
51.75 38.1596 28.8068 9.3528
51.8 26.1248 28.8139 -2.6891
51.85 28.5612 28.8212 -0.26
51.9 24.9543 28.8284 -3.8741
51.95 32.1656 28.8356 3.33
52 28.0354 28.8429 -0.8075
52.05 32.5576 28.8501 3.7075
52.1 25.9237 28.8574 -2.9337
52.15 22.2608 28.8648 -6.604
52.2 18.3813 28.8721 -10.4908
52.25 31.8822 28.8794 3.0028
52.3 23.0473 28.8868 -5.8395
52.35 35.9973 28.8942 7.1031
52.4 33.903 28.9015 5.0015
52.45 34.6542 28.9089 5.7453
52.5 31.3164 28.9164 2.4
52.55 25.4413 28.9238 -3.4825
52.6 34.2617 28.9312 5.3305
52.65 38.6472 28.9387 9.7085
52.7 32.2549 28.9461 3.3088
52.75 31.9038 28.9536 2.9502
52.8 32.2016 28.9611 3.2405
52.85 38.7738 28.9686 9.8052
52.9 22.023 28.9761 -6.9531
52.95 17.4382 28.9837 -11.5455
53 27.1595 28.9912 -1.8317
53.05 28.5527 28.9987 -0.446
53.1 30.2704 29.0063 1.2641
53.15 33.3825 29.0138 4.3687
53.2 28.4977 29.0214 -0.5237
53.25 30.606 29.029 1.577
53.3 23.6575 29.0366 -5.3791
53.35 27.1034 29.0442 -1.9408
53.4 27.6034 29.0518 -1.4484
53.45 29.2561 29.0594 0.1967
53.5 32.4905 29.067 3.4235
53.55 27.2615 29.0746 -1.8131
53.6 23.5012 29.0823 -5.5811
53.65 26.5321 29.0899 -2.5578
53.7 26.6637 29.0975 -2.4338
53.75 31.965 29.1052 2.8598
53.8 34.2897 29.1128 5.1769
53.85 25.554 29.1205 -3.5665
53.9 35.4068 29.1282 6.2786
53.95 30.2825 29.1358 1.1467
54 23.7218 29.1435 -5.4217
54.05 32.0434 29.1512 2.8922
54.1 34.8024 29.1589 5.6435
54.15 27.4832 29.1666 -1.6834
54.2 24.3028 29.1743 -4.8715
54.25 38.1094 29.182 8.9274
54.3 39.4693 29.1897 10.2796
54.35 46.9149 29.1974 17.7175
54.4 33.7736 29.2051 4.5685
54.45 42.2222 29.2128 13.0094
54.5 34.9511 29.2205 5.7306
54.55 23.3855 29.2282 -5.8427
54.6 34.7055 29.2359 5.4696
54.65 30.5538 29.2437 1.3101
54.7 32.8359 29.2514 3.5845
54.75 41.2753 29.2591 12.0162
54.8 23.8369 29.2668 -5.4299
54.85 30.8411 29.2746 1.5665
54.9 43.1432 29.2823 13.8609
54.95 35.356 29.29 6.066
55 27.9086 29.2977 -1.3891
55.05 28.1334 29.3055 -1.1721
55.1 34.6833 29.3132 5.3701
55.15 28.819 29.3209 -0.5019
55.2 24.6401 29.3287 -4.6886
55.25 35.4187 29.3364 6.0823
55.3 35.7932 29.3441 6.4491
55.35 26.6578 29.3519 -2.6941
55.4 29.7648 29.3596 0.4052
55.45 22.5431 29.3673 -6.8242
55.5 25.4467 29.3751 -3.9284
55.55 28.3838 29.3828 -0.999
55.6 29.0777 29.3905 -0.3128
55.65 34.3471 29.3983 4.9488
55.7 39.2153 29.406 9.8093
55.75 28.2105 29.4137 -1.2032
55.8 34.3819 29.4215 4.9604
55.85 29.4367 29.4292 0.0075
55.9 30.6546 29.4369 1.2177
55.95 35.2387 29.4446 5.7941
56 17.0272 29.4524 -12.4252
56.05 30.1544 29.4601 0.6943
56.1 17.5297 29.4678 -11.9381
56.15 29.3911 29.4755 -0.0844
56.2 26.1053 29.4832 -3.3779
56.25 38.2484 29.4909 8.7575
56.3 34.5782 29.4986 5.0796
56.35 26.7864 29.5064 -2.72
56.4 30.7461 29.5141 1.232
56.45 38.8441 29.5218 9.3223
56.5 35.6936 29.5295 6.1641
56.55 32.2565 29.5372 2.7193
56.6 24.2466 29.5448 -5.2982
56.65 32.3309 29.5525 2.7784
56.7 25.2001 29.5602 -4.3601
56.75 36.9618 29.5679 7.3939
56.8 27.6543 29.5756 -1.9213
56.85 33.2444 29.5833 3.6611
56.9 30.8023 29.5909 1.2114
56.95 29.8762 29.5986 0.2776
57 32.6169 29.6063 3.0106
57.05 35.5342 29.6139 5.9203
57.1 29.5889 29.6216 -0.0327
57.15 43.7591 29.6292 14.1299
57.2 31.541 29.6369 1.9041
57.25 40.6793 29.6445 11.0348
57.3 25.8413 29.6522 -3.8109
57.35 15.5405 29.6598 -14.1193
57.4 30.217 29.6674 0.5496
57.45 16.1498 29.6751 -13.5253
57.5 21.1677 29.6827 -8.515
57.55 30.1588 29.6903 0.4685
57.6 29.756 29.6979 0.0581
57.65 32.8089 29.7055 3.1034
57.7 28.7436 29.7131 -0.9695
57.75 28.2639 29.7207 -1.4568
57.8 37.6233 29.7283 7.895
57.85 34.8634 29.7359 5.1275
57.9 31.1489 29.7435 1.4054
57.95 31.7408 29.7511 1.9897
58 18.7754 29.7587 -10.9833
58.05 25.1757 29.7662 -4.5905
58.1 32.5294 29.7738 2.7556
58.15 25.7341 29.7814 -4.0473
58.2 16.7979 29.7889 -12.991
58.25 26.6828 29.7965 -3.1137
58.3 24.7974 29.804 -5.0066
58.35 26.7004 29.8115 -3.1111
58.4 26.8662 29.8191 -2.9529
58.45 29.5598 29.8266 -0.2668
58.5 35.9594 29.8341 6.1253
58.55 38.5383 29.8417 8.6966
58.6 31.2466 29.8492 1.3974
58.65 29.4644 29.8567 -0.3923
58.7 38.235 29.8642 8.3708
58.75 29.2873 29.8717 -0.5844
58.8 29.9861 29.8792 0.1069
58.85 29.3686 29.8867 -0.5181
58.9 32.0994 29.8941 2.2053
58.95 40.6817 29.9016 10.7801
59 31.5742 29.9091 1.6651
59.05 42.9725 29.9166 13.0559
59.1 35.6642 29.924 5.7402
59.15 41.3237 29.9315 11.3922
59.2 33.506 29.939 3.567
59.25 31.8079 29.9464 1.8615
59.3 32.3417 29.9539 2.3878
59.35 24.6916 29.9613 -5.2697
59.4 29.6589 29.9687 -0.3098
59.45 31.0996 29.9762 1.1234
59.5 30.3714 29.9836 0.3878
59.55 29.8726 29.991 -0.1184
59.6 25.4399 29.9985 -4.5586
59.65 21.2179 30.0059 -8.788
59.7 33.5796 30.0133 3.5663
59.75 35.1024 30.0207 5.0817
59.8 37.808 30.0281 7.7799
59.85 31.5957 30.0355 1.5602
59.9 33.8034 30.043 3.7604
59.95 29.4474 30.0328 -0.5854
60 37.2433 30.0226 7.2207
60.05 27.441 30.03 -2.589
60.1 34.5908 30.0374 4.5534
60.15 32.9919 30.0448 2.9471
60.2 32.5289 30.0522 2.4767
60.25 40.6798 30.0596 10.6202
60.3 25.967 30.067 -4.1
60.35 30.597 30.0744 0.5226
60.4 28.7849 30.0818 -1.2969
60.45 17.8627 30.0892 -12.2265
60.5 21.3383 30.0966 -8.7583
60.55 29.8729 30.104 -0.2311
60.6 29.9214 30.1114 -0.19
60.65 36.4642 30.1188 6.3454
60.7 26.628 30.1262 -3.4982
60.75 29.9671 30.1336 -0.1665
60.8 39.6306 30.1411 9.4895
60.85 35.8177 30.1485 5.6692
60.9 37.3352 30.156 7.1792
60.95 39.0127 30.1634 8.8493
61 23.0591 30.1709 -7.1118
61.05 28.9609 30.1784 -1.2175
61.1 21.0368 30.1859 -9.1491
61.15 33.914 30.1934 3.7206
61.2 45.5104 30.2009 15.3095
61.25 31.6965 30.2085 1.488
61.3 26.7141 30.2161 -3.502
61.35 34.7994 30.2237 4.5757
61.4 41.6043 30.2313 11.373
61.45 36.0413 30.239 5.8023
61.5 34.931 30.2466 4.6844
61.55 29.8177 30.2544 -0.4367
61.6 29.7473 30.2621 -0.5148
61.65 28.0122 30.2699 -2.2577
61.7 26.7147 30.2778 -3.5631
61.75 35.5499 30.2857 5.2642
61.8 31.273 30.2936 0.9794
61.85 21.4263 30.3017 -8.8754
61.9 34.0777 30.3097 3.768
61.95 33.2066 30.3179 2.8887
62 36.6572 30.3261 6.3311
62.05 35.0088 30.3344 4.6744
62.1 28.6669 30.3428 -1.6759
62.15 23.1215 30.3513 -7.2298
62.2 38.0178 30.3598 7.658
62.25 34.8652 30.3686 4.4966
62.3 26.6907 30.3774 -3.6867
62.35 30.8277 30.3865 0.4412
62.4 30.6088 30.3955 0.2133
62.45 31.9414 30.405 1.5364
62.5 29.5631 30.4144 -0.8513
62.55 37.5327 30.4242 7.1085
62.6 28.5518 30.434 -1.8822
62.65 23.9083 30.4444 -6.5361
62.7 31.5126 30.4547 1.0579
62.75 21.3822 30.4657 -9.0835
62.8 38.0105 30.4766 7.5339
62.85 26.618 30.4884 -3.8704
62.9 28.0272 30.5001 -2.4729
62.95 37.0113 30.5128 6.4985
63 31.8078 30.5256 1.2822
63.05 36.3406 30.5396 5.801
63.1 31.3645 30.5536 0.8109
63.15 43.3611 30.5692 12.7919
63.2 25.2117 30.5849 -5.3732
63.25 31.8898 30.6028 1.287
63.3 35.933 30.6208 5.3122
63.35 28.644 30.6423 -1.9983
63.4 30.6136 30.6638 -0.0502
63.45 33.0928 30.692 2.4008
63.5 37.355 30.7202 6.6348
63.55 25.3814 30.7615 -5.3801
63.6 27.6046 30.8028 -3.1982
63.65 30.0218 30.8598 -0.838
63.7 21.9354 30.9167 -8.9813
63.75 33.9409 30.9831 2.9578
63.8 22.7538 31.0494 -8.2956
63.85 23.2378 31.1275 -7.8897
63.9 33.6434 31.2056 2.4378
63.95 27.5842 31.3091 -3.7249
64 26.659 31.4126 -4.7536
64.05 33.2619 31.5626 1.6993
64.1 34.8572 31.7125 3.1447
64.15 20.5684 31.9473 -11.3789
64.2 21.543 32.1822 -10.6392
64.25 27.9756 32.5889 -4.6133
64.3 38.2445 32.9957 5.2488
64.35 34.7548 33.8132 0.9416
64.4 27.7506 34.6308 -6.8802
64.45 42.0997 36.6662 5.4335
64.5 30.3378 38.7017 -8.3639
64.55 42.1449 43.1236 -0.9787
64.6 58.4474 50.8778 7.5696
64.65 63.3706 63.8509 -0.4803
64.7 82.7807 83.2796 -0.4989
64.75 102.603 107.559 -4.956
64.8 135.649 130.501 5.148
64.85 149.361 142.957 6.404
64.9 130.858 138.949 -8.091
64.95 108.806 120.004 -11.198
65 100.373 94.6349 5.7381
65.05 68.3242 71.7741 -3.4499
65.1 65.7894 55.2558 10.5336
65.15 50.3756 45.2908 5.0848
65.2 29.8279 39.7012 -9.8733
65.25 36.7409 37.2641 -0.5232
65.3 40.7853 34.827 5.9583
65.35 35.0605 33.9345 1.126
65.4 35.5205 33.0419 2.4786
65.45 40.9345 32.6318 8.3027
65.5 24.1354 32.2217 -8.0863
65.55 35.0711 32.0003 3.0708
65.6 33.3703 31.779 1.5913
65.65 44.446 31.6463 12.7997
65.7 22.6257 31.5137 -8.888
65.75 35.1371 31.4282 3.7089
65.8 36.724 31.3427 5.3813
65.85 35.6131 31.2838 4.3293
65.9 26.9584 31.2249 -4.2665
65.95 36.5082 31.1804 5.3278
66 47.1958 31.1358 16.06
66.05 34.1294 31.0998 3.0296
66.1 28.9445 31.0638 -2.1193
66.15 27.4213 31.0377 -3.6164
66.2 32.3694 31.0115 1.3579
66.25 34.8194 30.9947 3.8247
66.3 34.4838 30.978 3.5058
66.35 31.4067 30.9669 0.4398
66.4 37.2854 30.9559 6.3295
66.45 32.1781 30.9482 1.2299
66.5 24.7274 30.9405 -6.2131
66.55 29.4899 30.9351 -1.4452
66.6 29.2102 30.9297 -1.7195
66.65 29.0114 30.9259 -1.9145
66.7 34.8912 30.9222 3.969
66.75 37.9108 30.9197 6.9911
66.8 27.7566 30.9172 -3.1606
66.85 27.2009 30.9157 -3.7148
66.9 49.2718 30.9142 18.3576
66.95 82.6398 30.9133 51.7265
67 57.2129 30.9127 26.3002
67.05 36.6893 30.9125 5.7768
67.1 25.4369 30.9126 -5.4757
67.15 38.3499 30.913 7.4369
67.2 39.0681 30.9134 8.1547
67.25 20.4217 30.9143 -10.4926
67.3 37.6475 30.9151 6.7324
67.35 26.4527 30.9163 -4.4636
67.4 31.8022 30.9175 0.8847
67.45 29.1736 30.9189 -1.7453
67.5 26.5016 30.9204 -4.4188
67.55 27.9331 30.9221 -2.989
67.6 28.148 30.9237 -2.7757
67.65 32.3449 30.9256 1.4193
67.7 26.3092 30.9275 -4.6183
67.75 21.3369 30.9295 -9.5926
67.8 28.3208 30.9315 -2.6107
67.85 32.0294 30.9336 1.0958
67.9 25.1722 30.9358 -5.7636
67.95 29.7973 30.938 -1.1407
68 19.4615 30.9402 -11.4787
68.05 22.4658 30.9425 -8.4767
68.1 34.1349 30.9449 3.19
68.15 39.8425 30.9472 8.8953
68.2 29.2741 30.9496 -1.6755
68.25 24.9104 30.952 -6.0416
68.3 22.0618 30.9545 -8.8927
68.35 25.6283 30.9569 -5.3286
68.4 25.796 30.9594 -5.1634
68.45 34.606 30.9619 3.6441
68.5 35.0552 30.9644 4.0908
68.55 22.6447 30.9669 -8.3222
68.6 21.1903 30.9694 -9.7791
68.65 20.464 30.9719 -10.5079
68.7 28.137 30.9744 -2.8374
68.75 37.5853 30.9769 6.6084
68.8 26.6977 30.9794 -4.2817
68.85 28.7412 30.9819 -2.2407
68.9 23.2442 30.9844 -7.7402
68.95 27.059 30.9869 -3.9279
69 38.5583 30.9894 7.5689
69.05 36.0947 30.9918 5.1029
69.1 46.0984 30.9943 15.1041
69.15 18.1181 30.9967 -12.8786
69.2 26.8449 30.9992 -4.1543
69.25 26.3054 31.0016 -4.6962
69.3 29.9374 31.004 -1.0666
69.35 29.7689 31.0064 -1.2375
69.4 28.6955 31.0088 -2.3133
69.45 33.9213 31.0112 2.9101
69.5 26.7333 31.0135 -4.2802
69.55 26.059 31.0159 -4.9569
69.6 26.2754 31.0182 -4.7428
69.65 22.8438 31.0205 -8.1767
69.7 23.0771 31.0228 -7.9457
69.75 32.468 31.025 1.443
69.8 34.0765 31.0273 3.0492
69.85 24.974 31.0295 -6.0555
69.9 27.5592 31.0317 -3.4725
69.95 30.0315 31.0338 -1.0023
70 15.4171 31.036 -15.6189
70.05 23.0263 31.0381 -8.0118
70.1 29.0686 31.0402 -1.9716
70.15 30.2694 31.0423 -0.7729
70.2 15.9326 31.0443 -15.1117
70.25 32.4093 31.0464 1.3629
70.3 30.3323 31.0484 -0.7161
70.35 30.3063 31.0503 -0.744
70.4 24.3065 31.0523 -6.7458
70.45 25.2417 31.0542 -5.8125
70.5 27.1996 31.0561 -3.8565
70.55 31.6037 31.058 0.5457
70.6 35.1086 31.0598 4.0488
70.65 28.2248 31.0616 -2.8368
70.7 28.7356 31.0634 -2.3278
70.75 24.0555 31.0652 -7.0097
70.8 22.1409 31.0669 -8.926
70.85 27.5577 31.0686 -3.5109
70.9 29.4738 31.0703 -1.5965
70.95 26.2197 31.0719 -4.8522
71 28.9834 31.0735 -2.0901
71.05 27.2757 31.0751 -3.7994
71.1 44.3875 31.0767 13.3108
71.15 25.0243 31.0782 -6.0539
71.2 20.7918 31.0797 -10.2879
71.25 25.1199 31.0811 -5.9612
71.3 24.2824 31.0826 -6.8002
71.35 29.3978 31.084 -1.6862
71.4 22.3779 31.0854 -8.7075
71.45 29.1399 31.0867 -1.9468
71.5 24.895 31.088 -6.193
71.55 29.642 31.0893 -1.4473
71.6 33.4365 31.0905 2.346
71.65 21.3308 31.0917 -9.7609
71.7 30.2425 31.0929 -0.8504
71.75 23.2273 31.094 -7.8667
71.8 28.3339 31.0952 -2.7613
71.85 28.732 31.0962 -2.3642
71.9 21.6711 31.0973 -9.4262
71.95 22.1916 31.0983 -8.9067
72 24.7131 31.0993 -6.3862
72.05 22.6431 31.1002 -8.4571
72.1 31.6595 31.1011 0.5584
72.15 36.5692 31.102 5.4672
72.2 24.3035 31.1029 -6.7994
72.25 30.5878 31.1037 -0.5159
72.3 23.2765 31.1045 -7.828
72.35 22.4286 31.1052 -8.6766
72.4 34.6186 31.1059 3.5127
72.45 23.7162 31.1066 -7.3904
72.5 21.0198 31.1072 -10.0874
72.55 23.8403 31.1078 -7.2675
72.6 26.7943 31.1084 -4.3141
72.65 27.1129 31.1089 -3.996
72.7 26.9273 31.1094 -4.1821
72.75 27.1775 31.1099 -3.9324
72.8 26.9502 31.1103 -4.1601
72.85 36.6194 31.1107 5.5087
72.9 35.9587 31.111 4.8477
72.95 24.2134 31.1113 -6.8979
73 22.5445 31.1117 -8.5672
73.05 27.8025 31.1119 -3.3094
73.1 32.7845 31.1121 1.6724
73.15 31.2823 31.1123 0.17
73.2 21.4202 31.1124 -9.6922
73.25 25.0705 31.1125 -6.042
73.3 27.1357 31.1126 -3.9769
73.35 23.9235 31.1126 -7.1891
73.4 25.5421 31.1126 -5.5705
73.45 34.0591 31.1124 2.9467
73.5 30.8273 31.1122 -0.2849
73.55 29.5245 31.1118 -1.5873
73.6 28.233 31.1114 -2.8784
73.65 26.1851 31.1107 -4.9256
73.7 31.718 31.1101 0.6079
73.75 25.477 31.1092 -5.6322
73.8 31.2499 31.1083 0.1416
73.85 35.2175 31.1072 4.1103
73.9 36.7711 31.1061 5.665
73.95 29.5307 31.1047 -1.574
74 32.2288 31.1034 1.1254
74.05 34.9811 31.1018 3.8793
74.1 28.5503 31.1003 -2.55
74.15 34.5003 31.0985 3.4018
74.2 23.7794 31.0967 -7.3173
74.25 23.6033 31.0947 -7.4914
74.3 31.3893 31.0927 0.2966
74.35 22.4866 31.0905 -8.6039
74.4 24.8337 31.0883 -6.2546
74.45 24.52 31.0859 -6.5659
74.5 31.1092 31.0834 0.0258
74.55 24.9048 31.0808 -6.176
74.6 31.6583 31.0782 0.5801
74.65 31.3002 31.0753 0.2249
74.7 32.9591 31.0725 1.8866
74.75 33.5119 31.0695 2.4424
74.8 32.9667 31.0664 1.9003
74.85 26.8179 31.0632 -4.2453
74.9 30.4923 31.06 -0.5677
74.95 35.4674 31.0565 4.4109
75 24.3429 31.0531 -6.7102
75.05 19.9704 31.0495 -11.0791
75.1 26.9733 31.0459 -4.0726
75.15 22.4737 31.0421 -8.5684
75.2 26.3779 31.0382 -4.6603
75.25 29.4684 31.0343 -1.5659
75.3 26.0606 31.0303 -4.9697
75.35 27.0861 31.0261 -3.94
75.4 37.5626 31.0219 6.5407
75.45 34.9681 31.0175 3.9506
75.5 26.0457 31.0132 -4.9675
75.55 30.4093 31.0087 -0.5994
75.6 22.0652 31.0041 -8.9389
75.65 30.4534 30.9994 -0.546
75.7 27.424 30.9947 -3.5707
75.75 16.6082 30.9899 -14.3817
75.8 28.4495 30.985 -2.5355
75.85 30.5525 30.9799 -0.4274
75.9 36.5719 30.9749 5.597
75.95 34.0858 30.9697 3.1161
76 28.8846 30.9645 -2.0799
76.05 26.4761 30.9591 -4.483
76.1 17.3621 30.9538 -13.5917
76.15 25.4097 30.9483 -5.5386
76.2 36.3585 30.9428 5.4157
76.25 24.9562 30.9371 -5.9809
76.3 28.8922 30.9314 -2.0392
76.35 25.5171 30.9256 -5.4085
76.4 27.5581 30.9198 -3.3617
76.45 29.2104 30.9139 -1.7035
76.5 27.8047 30.9079 -3.1032
76.55 27.954 30.9018 -2.9478
76.6 32.1111 30.8957 1.2154
76.65 27.4863 30.8895 -3.4032
76.7 25.8451 30.8832 -5.0381
76.75 30.1771 30.8769 -0.6998
76.8 36.191 30.8705 5.3205
76.85 28.342 30.864 -2.522
76.9 37.2253 30.8575 6.3678
76.95 37.7657 30.8509 6.9148
77 26.0427 30.8443 -4.8016
77.05 35.6095 30.8375 4.772
77.1 26.2627 30.8308 -4.5681
77.15 21.2607 30.8239 -9.5632
77.2 29.4722 30.8171 -1.3449
77.25 26.2838 30.8101 -4.5263
77.3 30.1199 30.8031 -0.6832
77.35 27.4752 30.7961 -3.3209
77.4 25.7455 30.789 -5.0435
77.45 25.8655 30.7818 -4.9163
77.5 26.0086 30.7746 -4.766
77.55 30.6376 30.7674 -0.1298
77.6 37.324 30.7601 6.5639
77.65 24.4244 30.7527 -6.3283
77.7 22.5368 30.7454 -8.2086
77.75 35.2856 30.7379 4.5477
77.8 22.9437 30.7304 -7.7867
77.85 27.0891 30.7229 -3.6338
77.9 27.3134 30.7154 -3.402
77.95 39.3456 30.7078 8.6378
78 29.7542 30.7002 -0.946
78.05 26.4098 30.6925 -4.2827
78.1 26.1953 30.6848 -4.4895
78.15 35.8253 30.6771 5.1482
78.2 35.5049 30.6693 4.8356
78.25 29.9581 30.6615 -0.7034
78.3 32.0425 30.6537 1.3888
78.35 29.3717 30.6459 -1.2742
78.4 24.5877 30.6381 -6.0504
78.45 17.3071 30.6302 -13.3231
78.5 22.6149 30.6223 -8.0074
78.55 27.7271 30.6144 -2.8873
78.6 25.8572 30.6065 -4.7493
78.65 29.9138 30.5986 -0.6848
78.7 28.8951 30.5907 -1.6956
78.75 24.9419 30.5828 -5.6409
78.8 26.9039 30.5748 -3.6709
78.85 22.1763 30.5669 -8.3906
78.9 29.7848 30.559 -0.7742
78.95 25.1661 30.5511 -5.385
79 24.1294 30.5433 -6.4139
79.05 34.2097 30.5354 3.6743
79.1 31.4071 30.5276 0.8795
79.15 19.5371 30.5198 -10.9827
79.2 32.003 30.512 1.491
79.25 26.1292 30.5043 -4.3751
79.3 44.8541 30.4966 14.3575
79.35 36.365 30.489 5.876
79.4 28.055 30.4815 -2.4265
79.45 24.4877 30.4754 -5.9877
79.5 31.2002 30.4693 0.7309
79.55 26.9844 30.462 -3.4776
79.6 35.3108 30.4547 4.8561
79.65 28.5371 30.4477 -1.9106
79.7 32.8532 30.4407 2.4125
79.75 30.4088 30.434 -0.0252
79.8 34.7081 30.4272 4.2809
79.85 30.5066 30.4208 0.0858
79.9 24.8388 30.4144 -5.5756
79.95 37.2528 30.4085 6.8443
80 18.8263 30.4025 -11.5762
80.05 31.1504 30.3971 0.7533
80.1 36.4786 30.3917 6.0869
80.15 28.4803 30.387 -1.9067
80.2 24.0471 30.3823 -6.3352
80.25 25.5735 30.3784 -4.8049
80.3 22.8703 30.3745 -7.5042
80.35 26.158 30.3718 -4.2138
80.4 36.4286 30.369 6.0596
80.45 34.6985 30.3677 4.3308
80.5 35.9301 30.3663 5.5638
80.55 25.599 30.3669 -4.7679
80.6 34.3046 30.3675 3.9371
80.65 29.388 30.3709 -0.9829
80.7 25.3452 30.3742 -5.029
80.75 31.4074 30.3824 1.025
80.8 28.9255 30.3906 -1.4651
80.85 39.4212 30.41 9.0112
80.9 31.2851 30.4295 0.8556
80.95 34.307 30.4656 3.8414
81 29.6752 30.5017 -0.8265
81.05 21.8901 30.545 -8.6549
81.1 23.5785 30.5883 -7.0098
81.15 32.7865 30.6392 2.1473
81.2 18.4941 30.6902 -12.1961
81.25 26.8519 30.7623 -3.9104
81.3 26.6023 30.8345 -4.2322
81.35 29.7527 30.9447 -1.192
81.4 34.2022 31.0549 3.1473
81.45 37.8907 31.2333 6.6574
81.5 32.2525 31.4116 0.8409
81.55 36.5596 31.7237 4.8359
81.6 32.9395 32.0358 0.9037
81.65 25.9721 32.654 -6.6819
81.7 32.6003 33.2723 -0.672
81.75 35.3591 34.7898 0.5693
81.8 34.7179 36.3073 -1.5894
81.85 41.5873 39.7536 1.8337
81.9 46.5177 46.3814 0.1363
81.95 65.5576 58.8821 6.6755
82 86.5727 79.5909 6.9818
82.05 105.686 106.411 -0.725
82.1 127.801 129.629 -1.828
82.15 126.256 136.412 -10.156
82.2 111.411 122.525 -11.114
82.25 94.1025 95.8543 -1.7518
82.3 85.9434 69.7947 16.1487
82.35 57.6913 51.9697 5.7216
82.4 48.0139 42.2013 5.8126
82.45 38.2499 37.2953 0.9546
82.5 45.8749 34.7518 11.1231
82.55 32.8902 33.5911 -0.7009
82.6 28.6155 32.4304 -3.8149
82.65 44.1499 31.9303 12.2196
82.7 39.9435 31.4301 8.5134
82.75 29.5464 31.1644 -1.618
82.8 42.9182 30.8987 12.0195
82.85 37.6767 30.7378 6.9389
82.9 28.4253 30.577 -2.1517
82.95 30.8734 30.4703 0.4031
83 33.0628 30.3635 2.6993
83.05 23.2708 30.2874 -7.0166
83.1 26.8489 30.2113 -3.3624
83.15 31.7454 30.1528 1.5926
83.2 24.519 30.0943 -5.5753
83.25 31.9099 30.0441 1.8658
83.3 33.4855 29.9938 3.4917
83.35 23.8922 29.9505 -6.0583
83.4 27.2347 29.9071 -2.6724
83.45 30.3956 29.8744 0.5212
83.5 24.5054 29.8417 -5.3363
83.55 18.653 29.8162 -11.1632
83.6 33.6077 29.7907 3.817
83.65 32.6163 29.7691 2.8472
83.7 34.5042 29.7474 4.7568
83.75 32.4733 29.7281 2.7452
83.8 29.3947 29.7089 -0.3142
83.85 25.239 29.6915 -4.4525
83.9 24.3296 29.6741 -5.3445
83.95 24.769 29.6581 -4.8891
84 24.7817 29.6421 -4.8604
84.05 27.7157 29.6272 -1.9115
84.1 23.5468 29.6124 -6.0656
84.15 33.2767 29.5984 3.6783
84.2 15.4412 29.5845 -14.1433
84.25 32.251 29.5713 2.6797
84.3 35.0946 29.5581 5.5365
84.35 29.9674 29.5456 0.4218
84.4 29.2566 29.5331 -0.2765
84.45 32.1419 29.5211 2.6208
84.5 30.1546 29.5091 0.6455
84.55 28.3124 29.4976 -1.1852
84.6 30.5487 29.4861 1.0626
84.65 38.535 29.475 9.06
84.7 21.1398 29.4639 -8.3241
84.75 23.8266 29.4532 -5.6266
84.8 40.4576 29.4424 11.0152
84.85 28.2562 29.4321 -1.1759
84.9 27.5499 29.4217 -1.8718
84.95 27.689 29.4116 -1.7226
85 28.4769 29.4015 -0.9246
85.05 26.9059 29.3917 -2.4858
85.1 33.9048 29.3819 4.5229
85.15 24.7616 29.3724 -4.6108
85.2 20.4597 29.3628 -8.9031
85.25 33.5677 29.3535 4.2142
85.3 29.5589 29.3442 0.2147
85.35 23.0553 29.3351 -6.2798
85.4 27.2213 29.3261 -2.1048
85.45 25.7768 29.3172 -3.5404
85.5 33.0241 29.3084 3.7157
85.55 31.1808 29.2997 1.8811
85.6 24.3582 29.2911 -4.9329
85.65 28.587 29.2826 -0.6956
85.7 28.0235 29.2742 -1.2507
85.75 32.6504 29.266 3.3844
85.8 28.1538 29.2577 -1.1039
85.85 23.3768 29.2497 -5.8729
85.9 29.2742 29.2416 0.0326
85.95 31.1678 29.2337 1.9341
86 31.4953 29.2259 2.2694
86.05 31.6545 29.2182 2.4363
86.1 31.6445 29.2105 2.434
86.15 24.9577 29.203 -4.2453
86.2 29.2583 29.1955 0.0628
86.25 37.5804 29.1882 8.3922
86.3 23.9904 29.1809 -5.1905
86.35 29.6203 29.1737 0.4466
86.4 26.273 29.1666 -2.8936
86.45 32.2933 29.1597 3.1336
86.5 29.9585 29.1527 0.8058
86.55 21.2357 29.1459 -7.9102
86.6 22.552 29.1392 -6.5872
86.65 27.331 29.1326 -1.8016
86.7 28.1346 29.126 -0.9914
86.75 20.4604 29.1196 -8.6592
86.8 35.0105 29.1131 5.8974
86.85 31.189 29.1069 2.0821
86.9 38.9069 29.1007 9.8062
86.95 27.1987 29.0946 -1.8959
87 21.5387 29.0886 -7.5499
87.05 31.1592 29.0827 2.0765
87.1 24.5341 29.0768 -4.5427
87.15 32.0738 29.0712 3.0026
87.2 26.6801 29.0655 -2.3854
87.25 30.6933 29.06 1.6333
87.3 30.7841 29.0545 1.7296
87.35 33.8891 29.0492 4.8399
87.4 32.982 29.0439 3.9381
87.45 28.7066 29.0388 -0.3322
87.5 38.4992 29.0337 9.4655
87.55 31.8888 29.0287 2.8601
87.6 22.3902 29.0238 -6.6336
87.65 30.5635 29.0191 1.5444
87.7 29.6761 29.0144 0.6617
87.75 34.1947 29.0098 5.1849
87.8 26.7164 29.0053 -2.2889
87.85 28.378 29.001 -0.623
87.9 31.452 28.9966 2.4554
87.95 21.1944 28.9925 -7.7981
88 27.5528 28.9884 -1.4356
88.05 28.4868 28.9844 -0.4976
88.1 25.7264 28.9805 -3.2541
88.15 22.3958 28.9768 -6.581
88.2 29.8147 28.9731 0.8416
88.25 29.9072 28.9696 0.9376
88.3 31.3675 28.966 2.4015
88.35 22.7591 28.9627 -6.2036
88.4 26.5583 28.9594 -2.4011
88.45 26.797 28.9563 -2.1593
88.5 35.717 28.9533 6.7637
88.55 31.461 28.9504 2.5106
88.6 36.4981 28.9475 7.5506
88.65 35.3849 28.9449 6.44
88.7 30.4358 28.9422 1.4936
88.75 34.5093 28.9398 5.5695
88.8 39.2739 28.9373 10.3366
88.85 26.4088 28.9351 -2.5263
88.9 27.0358 28.9329 -1.8971
88.95 29.3783 28.9309 0.4474
89 29.5667 28.9289 0.6378
89.05 32.9437 28.9272 4.0165
89.1 25.0294 28.9254 -3.896
89.15 23.5376 28.9239 -5.3863
89.2 30.2501 28.9224 1.3277
89.25 28.6149 28.9211 -0.3062
89.3 23.8721 28.9198 -5.0477
89.35 23.0913 28.9188 -5.8275
89.4 18.2199 28.9177 -10.6978
89.45 38.2235 28.9169 9.3066
89.5 25.466 28.9161 -3.4501
89.55 30.4391 28.9155 1.5236
89.6 23.587 28.915 -5.328
89.65 27.1315 28.9147 -1.7832
89.7 40.4463 28.9143 11.532
89.75 40.8403 28.9142 11.9261
89.8 20.724 28.9142 -8.1902
89.85 31.0603 28.9144 2.1459
89.9 39.021 28.9146 10.1064
89.95 25.5341 28.915 -3.3809
90 33.5927 28.9155 4.6772
90.05 32.4974 28.9162 3.5812
90.1 18.2392 28.9169 -10.6777
90.15 34.4334 28.9179 5.5155
90.2 27.0057 28.9189 -1.9132
90.25 25.2624 28.9201 -3.6577
90.3 17.1439 28.9213 -11.7774
90.35 24.0478 28.9228 -4.875
90.4 32.6049 28.9243 3.6806
90.45 36.0227 28.926 7.0967
90.5 36.4745 28.9277 7.5468
90.55 30.0485 28.9297 1.1188
90.6 31.4116 28.9316 2.48
90.65 35.8518 28.9338 6.918
90.7 32.1167 28.936 3.1807
90.75 24.5646 28.9385 -4.3739
90.8 26.4464 28.9409 -2.4945
90.85 30.2304 28.9436 1.2868
90.9 20.1581 28.9462 -8.7881
90.95 29.1309 28.9491 0.1818
91 26.3414 28.952 -2.6106
91.05 22.2817 28.9552 -6.6735
91.1 30.3794 28.9583 1.4211
91.15 31.6429 28.9617 2.6812
91.2 33.0996 28.965 4.1346
91.25 23.6976 28.9686 -5.271
91.3 29.6722 28.9722 0.7
91.35 35.4884 28.9759 6.5125
91.4 31.1493 28.9797 2.1696
91.45 27.7493 28.9837 -1.2344
91.5 30.5542 28.9877 1.5665
91.55 30.6566 28.992 1.6646
91.6 27.5512 28.9962 -1.445
91.65 24.1948 29.0006 -4.8058
91.7 19.8902 29.005 -9.1148
91.75 27.4674 29.0097 -1.5423
91.8 28.8934 29.0143 -0.1209
91.85 30.7489 29.0191 1.7298
91.9 30.3334 29.024 1.3094
91.95 28.5802 29.029 -0.4488
92 32.0294 29.034 2.9954
92.05 21.4994 29.0392 -7.5398
92.1 25.627 29.0445 -3.4175
92.15 25.4567 29.0499 -3.5932
92.2 13.7457 29.0553 -15.3096
92.25 24.3071 29.0609 -4.7538
92.3 24.8311 29.0665 -4.2354
92.35 26.9461 29.0723 -2.1262
92.4 45.4358 29.0781 16.3577
92.45 29.7721 29.0841 0.688
92.5 25.8994 29.0901 -3.1907
92.55 28.0096 29.0963 -1.0867
92.6 21.9456 29.1025 -7.1569
92.65 25.2545 29.1088 -3.8543
92.7 35.5859 29.1152 6.4707
92.75 33.2454 29.1217 4.1237
92.8 28.1177 29.1282 -1.0105
92.85 25.3871 29.1349 -3.7478
92.9 36.0558 29.1416 6.9142
92.95 25.4705 29.1485 -3.678
93 18.4982 29.1554 -10.6572
93.05 18.8073 29.1624 -10.3551
93.1 34.826 29.1694 5.6566
93.15 23.7596 29.1767 -5.4171
93.2 29.4687 29.1839 0.2848
93.25 19.2927 29.1912 -9.8985
93.3 31.5239 29.1986 2.3253
93.35 23.3991 29.2062 -5.8071
93.4 29.1644 29.2137 -0.0493
93.45 25.3894 29.2224 -3.833
93.5 25.319 29.231 -3.912
93.55 22.5727 29.2389 -6.6662
93.6 29.7709 29.2468 0.5241
93.65 25.5869 29.2548 -3.6679
93.7 29.2774 29.2628 0.0146
93.75 35.9256 29.271 6.6546
93.8 29.0201 29.2792 -0.2591
93.85 34.562 29.2875 5.2745
93.9 28.8299 29.2958 -0.4659
93.95 21.9493 29.3043 -7.355
94 21.4191 29.3128 -7.8937
94.05 31.848 29.3215 2.5265
94.1 37.8915 29.3301 8.5614
94.15 40.3518 29.3389 11.0129
94.2 26.2393 29.3477 -3.1084
94.25 29.8153 29.3567 0.4586
94.3 35.6645 29.3656 6.2989
94.35 24.6206 29.3747 -4.7541
94.4 35.9409 29.3838 6.5571
94.45 22.0083 29.3931 -7.3848
94.5 33.7535 29.4023 4.3512
94.55 27.051 29.4117 -2.3607
94.6 38.9897 29.4212 9.5685
94.65 26.9308 29.4307 -2.4999
94.7 32.9816 29.4403 3.5413
94.75 21.3963 29.45 -8.0537
94.8 37.7115 29.4598 8.2517
94.85 26.5702 29.4697 -2.8995
94.9 31.0799 29.4796 1.6003
94.95 26.6333 29.4896 -2.8563
95 34.0562 29.4997 4.5565
95.05 26.6934 29.5099 -2.8165
95.1 27.9231 29.5202 -1.5971
95.15 31.5074 29.5306 1.9768
95.2 23.006 29.541 -6.535
95.25 35.0173 29.5516 5.4657
95.3 32.7548 29.5622 3.1926
95.35 19.7755 29.573 -9.7975
95.4 22.8252 29.5839 -6.7587
95.45 27.9794 29.5949 -1.6155
95.5 19.9154 29.6059 -9.6905
95.55 30.8119 29.6171 1.1948
95.6 35.2739 29.6284 5.6455
95.65 39.2374 29.6399 9.5975
95.7 20.8525 29.6514 -8.7989
95.75 26.995 29.6631 -2.6681
95.8 27.6779 29.6749 -1.997
95.85 31.0937 29.6869 1.4068
95.9 23.7703 29.699 -5.9287
95.95 38.7592 29.7114 9.0478
96 35.6551 29.7237 5.9314
96.05 32.0878 29.7365 2.3513
96.1 25.641 29.7492 -4.1082
96.15 24.6005 29.7624 -5.1619
96.2 28.3436 29.7756 -1.432
96.25 21.9427 29.7892 -7.8465
96.3 35.1318 29.8029 5.3289
96.35 29.4235 29.8171 -0.3936
96.4 30.6076 29.8313 0.7763
96.45 29.3571 29.8462 -0.4891
96.5 27.4888 29.861 -2.3722
96.55 27.9421 29.8767 -1.9346
96.6 28.904 29.8924 -0.9884
96.65 33.6141 29.909 3.7051
96.7 15.143 29.9256 -14.7826
96.75 34.8352 29.9434 4.8918
96.8 19.2737 29.9612 -10.6875
96.85 21.5965 29.9804 -8.3839
96.9 30.5982 29.9996 0.5986
96.95 24.8131 30.0207 -5.2076
97 29.8976 30.0418 -0.1442
97.05 32.2515 30.0654 2.1861
97.1 39.0496 30.0889 8.9607
97.15 27.0747 30.1158 -3.0411
97.2 39.8126 30.1428 9.6698
97.25 25.4833 30.1751 -4.6918
97.3 24.9751 30.2074 -5.2323
97.35 35.2988 30.2491 5.0497
97.4 25.5579 30.2908 -4.7329
97.45 24.5449 30.346 -5.8011
97.5 24.4168 30.4012 -5.9844
97.55 30.7349 30.4692 0.2657
97.6 31.7417 30.5372 1.2045
97.65 27.3502 30.6192 -3.269
97.7 16.5804 30.7012 -14.1208
97.75 37.4852 30.808 6.6772
97.8 22.6009 30.9149 -8.314
97.85 30.4818 31.0663 -0.5845
97.9 32.4137 31.2177 1.196
97.95 34.3168 31.4498 2.867
98 34.3749 31.6819 2.693
98.05 39.5645 32.0742 7.4903
98.1 29.9241 32.4665 -2.5424
98.15 25.9062 33.2286 -7.3224
98.2 36.0543 33.9907 2.0636
98.25 38.8036 35.7926 3.011
98.3 44.1295 37.5945 6.535
98.35 53.3158 41.3551 11.9607
98.4 51.1079 47.7907 3.3172
98.45 71.3204 58.3783 12.9421
98.5 70.0199 74.1039 -4.084
98.55 96.4733 93.8628 2.6105
98.6 100.433 113.268 -12.835
98.65 128.625 125.676 2.949
98.7 131.081 126.221 4.86
98.75 116.084 114.541 1.543
98.8 81.8673 95.6322 -13.7649
98.85 64.5448 76.051 -11.5062
98.9 64.8591 60.2807 4.5784
98.95 54.4274 49.7582 4.6692
99 40.6076 42.8789 -2.2713
99.05 43.3072 39.68 3.6272
99.1 34.3028 36.4812 -2.1784
99.15 39.947 35.2055 4.7415
99.2 41.1407 33.9298 7.2109
99.25 29.6835 33.3197 -3.6362
99.3 36.5466 32.7097 3.8369
99.35 34.153 32.3739 1.7791
99.4 40.4921 32.0381 8.454
99.45 30.2198 31.8347 -1.6149
99.5 29.9968 31.6312 -1.6344
99.55 31.8015 31.4988 0.3027
99.6 42.6401 31.3663 11.2738
99.65 23.7148 31.2728 -7.558
99.7 31.2941 31.1792 0.1149
99.75 30.0256 31.1044 -1.0788
99.8 23.8006 31.0296 -7.229
99.85 36.6486 30.9674 5.6812
99.9 24.9432 30.9052 -5.962
99.95 31.3648 30.8625 0.5023
100 23.8878 30.8198 -6.932
100.05 27.2189 30.7963 -3.5774
100.1 26.9431 30.7729 -3.8298
100.15 34.9079 30.7603 4.1476
100.2 24.9471 30.7478 -5.8007
100.25 35.7378 30.7408 4.997
100.3 23.6921 30.7338 -7.0417
100.35 32.8671 30.7301 2.137
100.4 27.9632 30.7264 -2.7632
100.45 23.3146 30.725 -7.4104
100.5 28.6861 30.7236 -2.0375
100.55 34.2445 30.7239 3.5206
100.6 32.9027 30.7242 2.1785
100.65 30.7901 30.7258 0.0643
100.7 23.3099 30.7274 -7.4175
100.75 24.9426 30.73 -5.7874
100.8 28.3196 30.7326 -2.413
100.85 26.6453 30.7359 -4.0906
100.9 19.9679 30.7393 -10.7714
100.95 25.9395 30.7433 -4.8038
101 27.5737 30.7473 -3.1736
101.05 22.5151 30.7518 -8.2367
101.1 30.3039 30.7563 -0.4524
101.15 28.1355 30.7611 -2.6256
101.2 24.7786 30.766 -5.9874
101.25 27.0283 30.7712 -3.7429
101.3 35.6445 30.7764 4.8681
101.35 24.4011 30.7818 -6.3807
101.4 35.3568 30.7872 4.5696
101.45 26.1127 30.7928 -4.6801
101.5 33.8415 30.7984 3.0431
101.55 31.7626 30.8041 0.9585
101.6 19.6091 30.8099 -11.2008
101.65 18.3737 30.8157 -12.442
101.7 27.6415 30.8215 -3.18
101.75 29.8542 30.8274 -0.9732
101.8 28.2778 30.8333 -2.5555
101.85 30.5347 30.8393 -0.3046
101.9 38.2698 30.8452 7.4246
101.95 33.2593 30.8498 2.4095
102 25.287 30.8544 -5.5674
102.05 25.1934 30.8604 -5.667
102.1 37.1353 30.8663 6.269
102.15 28.2018 30.8722 -2.6704
102.2 29.4478 30.8782 -1.4304
102.25 34.4949 30.884 3.6109
102.3 32.5392 30.8899 1.6493
102.35 25.7147 30.8957 -5.181
102.4 32.7021 30.9015 1.8006
102.45 22.2682 30.9073 -8.6391
102.5 27.2851 30.913 -3.6279
102.55 32.2022 30.9187 1.2835
102.6 37.1714 30.9244 6.247
102.65 30.4842 30.9299 -0.4457
102.7 26.3745 30.9355 -4.561
102.75 33.9091 30.941 2.9681
102.8 33.3752 30.9465 2.4287
102.85 24.2175 30.9518 -6.7343
102.9 26.7681 30.9572 -4.1891
102.95 31.5496 30.9624 0.5872
103 29.2418 30.9676 -1.7258
103.05 16.6645 30.9727 -14.3082
103.1 30.3628 30.9779 -0.6151
103.15 19.4691 30.9828 -11.5137
103.2 33.9053 30.9878 2.9175
103.25 27.0019 30.9926 -3.9907
103.3 29.1326 30.9975 -1.8649
103.35 34.8907 31.0021 3.8886
103.4 22.2109 31.0068 -8.7959
103.45 33.1648 31.0113 2.1535
103.5 41.2765 31.0159 10.2606
103.55 35.4961 31.0202 4.4759
103.6 23.227 31.0246 -7.7976
103.65 29.9932 31.0288 -1.0356
103.7 29.2697 31.033 -1.7633
103.75 34.5807 31.037 3.5437
103.8 21.6968 31.0411 -9.3443
103.85 19.9029 31.0449 -11.142
103.9 31.0785 31.0488 0.0297
103.95 29.9077 31.0524 -1.1447
104 33.6778 31.0561 2.6217
104.05 22.0817 31.0596 -8.9779
104.1 31.6008 31.0631 0.5377
104.15 34.2877 31.0663 3.2214
104.2 34.4353 31.0696 3.3657
104.25 26.073 31.0727 -4.9997
104.3 35.7201 31.0758 4.6443
104.35 35.9022 31.0787 4.8235
104.4 26.1347 31.0816 -4.9469
104.45 25.0996 31.0843 -5.9847
104.5 30.6657 31.087 -0.4213
104.55 30.5656 31.0895 -0.5239
104.6 32.5087 31.0919 1.4168
104.65 31.2437 31.0942 0.1495
104.7 24.1597 31.0965 -6.9368
104.75 30.3604 31.0985 -0.7381
104.8 28.117 31.1006 -2.9836
104.85 30.3388 31.1024 -0.7636
104.9 32.3856 31.1042 1.2814
104.95 32.5158 31.1058 1.41
105 26.4396 31.1075 -4.6679
105.05 18.6311 31.1088 -12.4777
105.1 33.099 31.1102 1.9888
105.15 35.0851 31.1113 3.9738
105.2 26.4681 31.1125 -4.6444
105.25 18.3353 31.1134 -12.7781
105.3 30.1339 31.1143 -0.9804
105.35 34.7166 31.115 3.6016
105.4 25.8701 31.1156 -5.2455
105.45 22.6666 31.116 -8.4494
105.5 25.8017 31.1165 -5.3148
105.55 29.9947 31.1166 -1.1219
105.6 30.6095 31.1168 -0.5073
105.65 26.3997 31.1168 -4.7171
105.7 23.1677 31.1167 -7.949
105.75 33.8752 31.1165 2.7587
105.8 28.4673 31.1163 -2.649
105.85 42.7157 31.116 11.5997
105.9 31.2917 31.1157 0.176
105.95 26.3457 31.1153 -4.7696
106 25.204 31.1149 -5.9109
106.05 21.6985 31.1144 -9.4159
106.1 30.3544 31.1139 -0.7595
106.15 46.2141 31.1133 15.1008
106.2 21.5733 31.1126 -9.5393
106.25 39.511 31.1119 8.3991
106.3 30.8405 31.1112 -0.2707
106.35 29.6457 31.1104 -1.4647
106.4 32.2055 31.1096 1.0959
106.45 26.9464 31.1087 -4.1623
106.5 24.5104 31.1078 -6.5974
106.55 25.067 31.1067 -6.0397
106.6 23.3198 31.1057 -7.7859
106.65 41.6953 31.1046 10.5907
106.7 24.6613 31.1035 -6.4422
106.75 24.6986 31.1023 -6.4037
106.8 36.9928 31.1011 5.8917
106.85 33.0788 31.0997 1.9791
106.9 20.219 31.0984 -10.8794
106.95 20.8577 31.097 -10.2393
107 29.8174 31.0956 -1.2782
107.05 17.4952 31.0941 -13.5989
107.1 31.3713 31.0926 0.2787
107.15 33.3574 31.091 2.2664
107.2 34.4343 31.0893 3.345
107.25 27.3608 31.0876 -3.7268
107.3 31.6781 31.0859 0.5922
107.35 30.6476 31.0841 -0.4365
107.4 31.7699 31.0823 0.6876
107.45 22.0698 31.0804 -9.0106
107.5 28.09 31.0785 -2.9885
107.55 29.0226 31.0765 -2.0539
107.6 30.7881 31.0746 -0.2865
107.65 30.3107 31.0725 -0.7618
107.7 30.5109 31.0704 -0.5595
107.75 29.2413 31.0682 -1.8269
107.8 34.3574 31.066 3.2914
107.85 29.7264 31.0637 -1.3373
107.9 27.7124 31.0615 -3.3491
107.95 32.2218 31.0591 1.1627
108 27.3406 31.0567 -3.7161
108.05 34.1692 31.0543 3.1149
108.1 32.736 31.0518 1.6842
108.15 33.078 31.0493 2.0287
108.2 32.4663 31.0468 1.4195
108.25 29.5427 31.0441 -1.5014
108.3 26.2736 31.0415 -4.7679
108.35 40.5652 31.0388 9.5264
108.4 27.0859 31.036 -3.9501
108.45 26.4289 31.0332 -4.6043
108.5 25.6111 31.0304 -5.4193
108.55 23.0699 31.0275 -7.9576
108.6 21.6136 31.0246 -9.411
108.65 29.7224 31.0216 -1.2992
108.7 30.3553 31.0187 -0.6634
108.75 36.5711 31.0156 5.5555
108.8 33.0166 31.0125 2.0041
108.85 29.1991 31.0094 -1.8103
108.9 25.6801 31.0062 -5.3261
108.95 34.401 31.003 3.398
109 26.1844 30.9998 -4.8154
109.05 26.7282 30.9964 -4.2682
109.1 32.9607 30.9931 1.9676
109.15 23.162 30.9897 -7.8277
109.2 26.2883 30.9863 -4.698
109.25 27.7476 30.9829 -3.2353
109.3 27.6769 30.9794 -3.3025
109.35 31.9251 30.9758 0.9493
109.4 24.2102 30.9723 -6.7621
109.45 28.2283 30.9686 -2.7403
109.5 29.2908 30.965 -1.6742
109.55 28.1144 30.9613 -2.8469
109.6 34.1194 30.9576 3.1618
109.65 31.0323 30.9538 0.0785
109.7 22.0932 30.95 -8.8568
109.75 25.3722 30.9462 -5.574
109.8 23.4265 30.9423 -7.5158
109.85 29.412 30.9384 -1.5264
109.9 31.814 30.9344 0.8796
109.95 25.6423 30.9304 -5.2881
110 28.4938 30.9264 -2.4326
110.05 27.1289 30.9224 -3.7935
110.1 24.3378 30.9183 -6.5805
110.15 24.6045 30.9142 -6.3097
110.2 44.3518 30.91 13.4418
110.25 24.9675 30.9058 -5.9383
110.3 18.6286 30.9016 -12.273
110.35 28.7269 30.8974 -2.1705
110.4 26.9071 30.8931 -3.986
110.45 33.7246 30.8888 2.8358
110.5 40.2601 30.8845 9.3756
110.55 26.3668 30.8801 -4.5133
110.6 29.0693 30.8757 -1.8064
110.65 27.4116 30.8712 -3.4596
110.7 30.5442 30.8668 -0.3226
110.75 29.4202 30.8623 -1.4421
110.8 27.5339 30.8578 -3.3239
110.85 26.719 30.8532 -4.1342
110.9 25.1842 30.8487 -5.6645
110.95 35.0468 30.8441 4.2027
111 37.3238 30.8395 6.4843
111.05 37.4628 30.8348 6.628
111.1 29.6771 30.8302 -1.1531
111.15 30.3558 30.8255 -0.4697
111.2 29.535 30.8208 -1.2858
111.25 23.1206 30.8161 -7.6955
111.3 27.9519 30.8114 -2.8595
111.35 30.4625 30.8066 -0.3441
111.4 39.5511 30.8018 8.7493
111.45 24.7954 30.797 -6.0016
111.5 25.3063 30.7922 -5.4859
111.55 27.1375 30.7874 -3.6499
111.6 38.0015 30.7826 7.2189
111.65 36.0848 30.7778 5.307
111.7 31.6019 30.7729 0.829
111.75 32.986 30.7681 2.2179
111.8 23.7017 30.7632 -7.0615
111.85 33.267 30.7583 2.5087
111.9 19.6679 30.7535 -11.0856
111.95 42.5349 30.7486 11.7863
112 28.4958 30.7437 -2.2479
112.05 29.5112 30.7389 -1.2277
112.1 29.7978 30.734 -0.9362
112.15 21.5237 30.7292 -9.2055
112.2 29.1114 30.7244 -1.613
112.25 25.2792 30.7196 -5.4404
112.3 28.573 30.7148 -2.1418
112.35 37.5944 30.71 6.8844
112.4 32.3615 30.7053 1.6562
112.45 26.644 30.7006 -4.0566
112.5 22.5174 30.6959 -8.1785
112.55 21.1465 30.6912 -9.5447
112.6 43.2116 30.6866 12.525
112.65 25.4658 30.6821 -5.2163
112.7 38.3586 30.6775 7.6811
112.75 27.6218 30.6731 -3.0513
112.8 29.416 30.6687 -1.2527
112.85 37.7544 30.6645 7.0899
112.9 33.0704 30.6602 2.4102
112.95 34.954 30.6561 4.2979
113 25.9459 30.652 -4.7061
113.05 28.2187 30.6482 -2.4295
113.1 26.6454 30.6443 -3.9989
113.15 25.4845 30.6407 -5.1562
113.2 37.4876 30.6371 6.8505
113.25 33.4446 30.6339 2.8107
113.3 31.4983 30.6306 0.8677
113.35 33.649 30.6278 3.0212
113.4 30.3328 30.6249 -0.2921
113.45 24.2464 30.6225 -6.3761
113.5 28.2647 30.6201 -2.3554
113.55 21.2588 30.6184 -9.3596
113.6 40.9797 30.6166 10.3631
113.65 25.9686 30.6155 -4.6469
113.7 29.4643 30.6145 -1.1502
113.75 31.4223 30.6144 0.8079
113.8 33.0487 30.6143 2.4344
113.85 27.3165 30.6153 -3.2988
113.9 25.4627 30.6163 -5.1536
113.95 35.8195 30.6189 5.2006
114 37.6669 30.6214 7.0455
114.05 28.3783 30.6258 -2.2475
114.1 39.5864 30.6303 8.9561
114.15 34.4142 30.6373 3.7769
114.2 30.9362 30.6444 0.2918
114.25 38.0094 30.6549 7.3545
114.3 27.6599 30.6655 -3.0056
114.35 42.0457 30.681 11.3647
114.4 22.3106 30.6965 -8.3859
114.45 25.4021 30.7191 -5.317
114.5 36.6376 30.7417 5.8959
114.55 37.5246 30.7744 6.7502
114.6 30.6795 30.8071 -0.1276
114.65 31.8336 30.8538 0.9798
114.7 33.0691 30.9006 2.1685
114.75 31.1641 30.967 0.1971
114.8 22.1012 31.0334 -8.9322
114.85 34.0875 31.1288 2.9587
114.9 27.0482 31.2242 -4.176
114.95 35.257 31.3658 3.8912
115 24.1502 31.5073 -7.3571
115.05 38.0362 31.7287 6.3075
115.1 32.3012 31.9501 0.3511
115.15 24.897 32.3177 -7.4207
115.2 42.4905 32.6854 9.8051
115.25 35.1979 33.3294 1.8685
115.3 41.0576 33.9735 7.0841
115.35 50.1675 34.9636 15.2039
115.4 25.2257 36.2941 -11.0684
115.45 37.3705 38.3494 -0.9789
115.5 40.0831 40.4048 -0.3217
115.55 44.7661 43.4075 1.3586
115.6 49.0652 47.149 1.9162
115.65 53.6735 51.6605 2.013
115.7 56.5909 56.7178 -0.1269
115.75 70.9771 62.1597 8.8174
115.8 60.3547 67.538 -7.1833
115.85 70.5336 72.3316 -1.798
115.9 76.0337 75.9936 0.0401
115.95 78.9103 78.0219 0.8884
116 65.8899 78.2531 -12.3632
116.05 71.8161 76.5501 -4.734
116.1 74.8607 73.1856 1.6751
116.15 66.811 68.5953 -1.7843
116.2 70.9241 63.3155 7.6086
116.25 62.2262 57.8898 4.3364
116.3 37.102 52.704 -15.602
116.35 51.0493 48.0966 2.9527
116.4 46.2376 44.1972 2.0404
116.45 48.965 41.0306 7.9344
116.5 50.3464 38.54 11.8064
116.55 34.1345 36.8586 -2.7241
116.6 37.5447 35.1772 2.3675
116.65 33.3252 34.2235 -0.8983
116.7 38.7327 33.2697 5.463
116.75 28.2721 32.7242 -4.4521
116.8 40.4077 32.1787 8.229
116.85 31.0617 31.8519 -0.7902
116.9 33.111 31.525 1.586
116.95 26.4027 31.3159 -4.9132
117 29.604 31.1068 -1.5028
117.05 34.6034 30.9639 3.6395
117.1 20.2479 30.8209 -10.573
117.15 26.4605 30.7178 -4.2573
117.2 22.083 30.6146 -8.5316
117.25 26.5313 30.5375 -4.0062
117.3 25.1914 30.4603 -5.2689
117.35 29.1021 30.4012 -1.2991
117.4 38.2066 30.3422 7.8644
117.45 34.8688 30.2961 4.5727
117.5 22.0923 30.25 -8.1577
117.55 23.4321 30.2131 -6.781
117.6 29.98 30.1762 -0.1962
117.65 40.3994 30.1458 10.2536
117.7 41.4263 30.1154 11.3109
117.75 38.2412 30.0895 8.1517
117.8 39.883 30.0637 9.8193
117.85 29.7499 30.0411 -0.2912
117.9 29.6567 30.0185 -0.3618
117.95 35.5834 29.9984 5.585
118 27.9421 29.9783 -2.0362
118.05 35.7174 29.96 5.7574
118.1 28.6667 29.9417 -1.275
118.15 24.5857 29.9248 -5.3391
118.2 27.8216 29.908 -2.0864
118.25 33.8938 29.8923 4.0015
118.3 20.9475 29.8765 -8.929
118.35 28.5533 29.8617 -1.3084
118.4 33.7835 29.8469 3.9366
118.45 25.0835 29.8329 -4.7494
118.5 27.0422 29.8188 -2.7766
118.55 26.4091 29.8054 -3.3963
118.6 27.1524 29.7919 -2.6395
118.65 29.1075 29.779 -0.6715
118.7 27.4784 29.7661 -2.2877
118.75 40.0351 29.7535 10.2816
118.8 28.6588 29.741 -1.0822
118.85 32.1066 29.7289 2.3777
118.9 23.2823 29.7167 -6.4344
118.95 37.4298 29.7049 7.7249
119 33.3902 29.693 3.6972
119.05 30.0222 29.6814 0.3408
119.1 41.5146 29.6698 11.8448
119.15 28.8327 29.6584 -0.8257
119.2 42.016 29.647 12.369
119.25 24.2099 29.6358 -5.4259
119.3 26.6147 29.6246 -3.0099
119.35 28.0983 29.6136 -1.5153
119.4 30.1926 29.6026 0.59
119.45 30.5052 29.5917 0.9135
119.5 26.7238 29.5808 -2.857
119.55 40.908 29.57 11.338
119.6 31.6631 29.5593 2.1038
119.65 22.2058 29.5486 -7.3428
119.7 33.5862 29.5379 4.0483
119.75 26.6097 29.5274 -2.9177
119.8 29.6432 29.5168 0.1264
119.85 30.9173 29.5063 1.411
119.9 27.5523 29.4958 -1.9435
119.95 27.6271 29.4854 -1.8583
120 27.5653 29.475 -1.9097
120.05 27.7258 29.4646 -1.7388
120.1 36.7824 29.4542 7.3282
120.15 24.184 29.4439 -5.2599
120.2 24.7156 29.4336 -4.718
120.25 36.5814 29.4234 7.158
120.3 38.5652 29.4131 9.1521
120.35 35.5214 29.4029 6.1185
120.4 45.3067 29.3927 15.914
120.45 32.6679 29.3825 3.2854
120.5 33.7325 29.3723 4.3602
120.55 23.0343 29.3622 -6.3279
120.6 22.8123 29.3521 -6.5398
120.65 27.5859 29.342 -1.7561
120.7 24.3457 29.3318 -4.9861
120.75 35.2404 29.3218 5.9186
120.8 28.1419 29.3117 -1.1698
120.85 28.3195 29.3016 -0.9821
120.9 32.5699 29.2916 3.2783
120.95 29.2547 29.2815 -0.0268
121 27.8657 29.2715 -1.4058
121.05 22.4546 29.2615 -6.8069
121.1 23.9257 29.2515 -5.3258
121.15 25.6446 29.2415 -3.5969
121.2 26.9385 29.2315 -2.293
121.25 24.473 29.2215 -4.7485
121.3 24.9076 29.2115 -4.3039
121.35 25.9332 29.2015 -3.2683
121.4 34.3067 29.1915 5.1152
121.45 29.7478 29.1816 0.5662
121.5 23.4114 29.1716 -5.7602
121.55 24.4842 29.1617 -4.6775
121.6 44.2196 29.1517 15.0679
121.65 28.2854 29.1418 -0.8564
121.7 29.8745 29.1319 0.7426
121.75 32.6073 29.122 3.4853
121.8 32.2125 29.112 3.1005
121.85 26.6514 29.1021 -2.4507
121.9 20.9768 29.0922 -8.1154
121.95 24.0222 29.0823 -5.0601
122 28.0093 29.0724 -1.0631
122.05 36.2066 29.0625 7.1441
122.1 31.7597 29.0526 2.7071
122.15 29.0807 29.0428 0.0379
122.2 33.7169 29.0329 4.684
122.25 30.4139 29.023 1.3909
122.3 37.3914 29.0131 8.3783
122.35 28.4765 29.0033 -0.5268
122.4 22.4077 28.9934 -6.5857
122.45 34.462 28.9836 5.4784
122.5 24.7988 28.9737 -4.1749
122.55 28.6987 28.9638 -0.2651
122.6 26.711 28.954 -2.243
122.65 18.4874 28.9442 -10.4568
122.7 24.4308 28.9343 -4.5035
122.75 33.4399 28.9245 4.5154
122.8 25.8384 28.9147 -3.0763
122.85 35.0178 28.9035 6.1143
122.9 22.2925 28.8924 -6.5999
122.95 29.2722 28.8826 0.3896
123 26.86 28.8727 -2.0127
123.05 25.1125 28.8629 -3.7504
123.1 36.777 28.8531 7.9239
123.15 26.7701 28.8434 -2.0733
123.2 25.0359 28.8336 -3.7977
123.25 24.3055 28.8238 -4.5183
123.3 37.023 28.814 8.209
123.35 30.6482 28.8042 1.844
123.4 32.8033 28.7944 4.0089
123.45 30.3912 28.7847 1.6065
123.5 28.1585 28.7749 -0.6164
123.55 23.7393 28.7652 -5.0259
123.6 28.6756 28.7554 -0.0798
123.65 37.4991 28.7457 8.7534
123.7 26.5799 28.7359 -2.156
123.75 24.552 28.7262 -4.1742
123.8 33.1725 28.7165 4.456
123.85 30.8342 28.7068 2.1274
123.9 29.3224 28.697 0.6254
123.95 33.4897 28.6873 4.8024
124 32.681 28.6776 4.0034
124.05 32.2963 28.6679 3.6284
124.1 27.0117 28.6582 -1.6465
124.15 26.3945 28.6485 -2.254
124.2 43.8734 28.6389 15.2345
124.25 30.8365 28.6292 2.2073
124.3 17.9594 28.6195 -10.6601
124.35 30.6225 28.6099 2.0126
124.4 28.4835 28.6002 -0.1167
124.45 27.2979 28.5906 -1.2927
124.5 38.5671 28.5809 9.9862
124.55 21.8177 28.5713 -6.7536
124.6 31.541 28.5617 2.9793
124.65 26.2579 28.5521 -2.2942
124.7 27.0858 28.5425 -1.4567
124.75 23.7591 28.5329 -4.7738
124.8 24.8683 28.5233 -3.655
124.85 26.8708 28.5137 -1.6429
124.9 29.255 28.5041 0.7509
124.95 25.7637 28.4946 -2.7309
125 34.6183 28.485 6.1333
125.05 28.3962 28.4754 -0.0792
125.1 41.455 28.4659 12.9891
125.15 25.8962 28.4564 -2.5602
125.2 29.5994 28.4468 1.1526
125.25 27.2343 28.4373 -1.203
125.3 19.0795 28.4278 -9.3483
125.35 28.0921 28.4183 -0.3262
125.4 32.5127 28.4089 4.1038
125.45 29.9052 28.3994 1.5058
125.5 30.2721 28.3899 1.8822
125.55 24.1677 28.3805 -4.2128
125.6 26.0696 28.371 -2.3014
125.65 22.9776 28.3616 -5.384
125.7 30.2799 28.3522 1.9277
125.75 36.4078 28.3427 8.0651
125.8 29.4564 28.3333 1.1231
125.85 28.2048 28.3239 -0.1191
125.9 19.4553 28.3146 -8.8593
125.95 26.2176 28.3052 -2.0876
126 35.5025 28.2958 7.2067
126.05 39.2959 28.2865 11.0094
126.1 31.0593 28.2771 2.7822
126.15 25.5197 28.2678 -2.7481
126.2 28.728 28.2585 0.4695
126.25 20.7748 28.2492 -7.4744
126.3 30.9176 28.2399 2.6777
126.35 24.5021 28.2307 -3.7286
126.4 28.5449 28.2214 0.3235
126.45 35.81 28.2121 7.5979
126.5 30.9268 28.2029 2.7239
126.55 31.9657 28.1937 3.772
126.6 28.6603 28.1845 0.4758
126.65 34.1361 28.1753 5.9608
126.7 29.7626 28.1661 1.5965
126.75 32.7838 28.1569 4.6269
126.8 23.9319 28.1477 -4.2158
126.85 26.7313 28.1386 -1.4073
126.9 32.8057 28.1295 4.6762
126.95 37.4295 28.1204 9.3091
127 31.1929 28.1113 3.0816
127.05 31.7737 28.1022 3.6715
127.1 25.8085 28.0931 -2.2846
127.15 25.7523 28.084 -2.3317
127.2 25.8387 28.075 -2.2363
127.25 38.0973 28.066 10.0313
127.3 30.1364 28.0569 2.0795
127.35 26.1083 28.048 -1.9397
127.4 29.9819 28.039 1.9429
127.45 33.5839 28.03 5.5539
127.5 25.6763 28.0211 -2.3448
127.55 31.6199 28.0121 3.6078
127.6 33.5534 28.0032 5.5502
127.65 28.864 27.9943 0.8697
127.7 21.3766 27.9854 -6.6088
127.75 25.4543 27.9765 -2.5222
127.8 28.2729 27.9677 0.3052
127.85 29.0836 27.9589 1.1247
127.9 29.8608 27.95 1.9108
127.95 28.1066 27.9412 0.1654
128 37.2269 27.9324 9.2945
128.05 27.7655 27.9237 -0.1582
128.1 33.1005 27.9149 5.1856
128.15 17.4442 27.9062 -10.462
128.2 25.9392 27.8975 -1.9583
128.25 29.3906 27.8888 1.5018
128.3 33.5214 27.8801 5.6413
128.35 32.6701 27.8715 4.7986
128.4 36.5034 27.8628 8.6406
128.45 27.7698 27.8542 -0.0844
128.5 34.9757 27.8456 7.1301
128.55 30.3881 27.837 2.5511
128.6 30.9553 27.8285 3.1268
128.65 20.1778 27.8199 -7.6421
128.7 35.0777 27.8114 7.2663
128.75 33.6807 27.8029 5.8778
128.8 36.5717 27.7944 8.7773
128.85 31.338 27.7859 3.5521
128.9 27.2655 27.7775 -0.512
128.95 29.3485 27.7691 1.5794
129 26.7323 27.7607 -1.0284
129.05 24.3664 27.7523 -3.3859
129.1 36.08 27.7439 8.3361
129.15 36.1416 27.7356 8.406
129.2 36.9345 27.7273 9.2072
129.25 36.8403 27.719 9.1213
129.3 32.7166 27.7107 5.0059
129.35 40.3173 27.7024 12.6149
129.4 23.3142 27.6942 -4.38
129.45 29.2798 27.686 1.5938
129.5 33.1056 27.6778 5.4278
129.55 34.9496 27.6696 7.28
129.6 35.2761 27.6615 7.6146
129.65 23.1164 27.6534 -4.537
129.7 30.5117 27.6453 2.8664
129.75 21.7229 27.6372 -5.9143
129.8 27.2816 27.6291 -0.3475
129.85 24.9366 27.6211 -2.6845
129.9 26.9891 27.6131 -0.624
129.95 27.8748 27.6237 0.2511
130 22.3582 27.6344 -5.2762
