
#Surface 0 of 1 surfaces

#IsoCurve 0, 1801 points
#x y z type
 40  35.9534  27.2671 i
 40.05  49.3036  27.2753 i
 40.1  29.351  27.2837 i
 40.15  19.4918  27.2922 i
 40.2  40.1044  27.3008 i
 40.25  37.7786  27.3095 i
 40.3  43.2514  27.3185 i
 40.35  47.9477  27.3276 i
 40.4  42.8697  27.3369 i
 40.45  31.3926  27.3464 i
 40.5  38.5006  27.356 i
 40.55  38.5652  27.3658 i
 40.6  42.9458  27.3758 i
 40.65  32.4879  27.3861 i
 40.7  45.4255  27.3965 i
 40.75  38.8654  27.4072 i
 40.8  43.899  27.4182 i
 40.85  43.2753  27.4294 i
 40.9  24.9307  27.4408 i
 40.95  33.5764  27.4527 i
 41  43.2525  27.4646 i
 41.05  53.7805  27.477 i
 41.1  30.3844  27.4896 i
 41.15  41.8174  27.5027 i
 41.2  42.6187  27.516 i
 41.25  36.5769  27.53 i
 41.3  34.9481  27.544 i
 41.35  35.1574  27.5588 i
 41.4  30.5596  27.5737 i
 41.45  38.5239  27.5895 i
 41.5  36.0489  27.6053 i
 41.55  38.4193  27.6222 i
 41.6  29.5316  27.6392 i
 41.65  31.7821  27.6573 i
 41.7  31.6532  27.6755 i
 41.75  41.5305  27.6947 i
 41.8  39.8351  27.7147 i
 41.85  38.3954  27.7359 i
 41.9  31.3759  27.7572 i
 41.95  28.2577  27.7803 i
 42  37.9984  27.8034 i
 42.05  29.8663  27.8288 i
 42.1  39.3122  27.8541 i
 42.15  30.8236  27.8821 i
 42.2  34.4917  27.91 i
 42.25  26.7828  27.9409 i
 42.3  41.7582  27.9719 i
 42.35  41.4468  28.0055 i
 42.4  29.0013  28.0411 i
 42.45  32.7547  28.08 i
 42.5  41.7816  28.1189 i
 42.55  33.7565  28.1616 i
 42.6  49.3202  28.2072 i
 42.65  34.1417  28.2578 i
 42.7  29.565  28.3083 i
 42.75  45.3565  28.3646 i
 42.8  33.7901  28.4252 i
 42.85  37.7794  28.4936 i
 42.9  40.2087  28.562 i
 42.95  35.9351  28.6431 i
 43  34.4615  28.7242 i
 43.05  30.141  28.8219 i
 43.1  29.9336  28.9195 i
 43.15  40.9904  29.0332 i
 43.2  46.4895  29.1601 i
 43.25  28.6286  29.316 i
 43.3  33.2123  29.4719 i
 43.35  33.357  29.7348 i
 43.4  35.9536  29.9977 i
 43.45  35.7296  30.3859 i
 43.5  37.5791  30.7741 i
 43.55  39.5269  31.149 i
 43.6  35.8882  31.5505 i
 43.65  43.556  32.01 i
 43.7  47.585  32.5459 i
 43.75  34.7925  33.1803 i
 43.8  41.279  33.9395 i
 43.85  45.0038  34.8622 i
 43.9  44.506  35.9974 i
 43.95  44.6922  37.4217 i
 44  43.5094  39.2411 i
 44.05  43.8252  41.6234 i
 44.1  46.2304  44.8419 i
 44.15  54.5537  49.4597 i
 44.2  56.4172  56.0184 i
 44.25  72.0402  66.6562 i
 44.3  74.7581  86.1213 i
 44.35  107.441  128.201 i
 44.4  196.096  227.975 i
 44.45  388.118  453.077 i
 44.5  933.633  857.75 i
 44.55  1535.36  1350.18 i
 44.6  1805.85  1585.03 i
 44.65  1332.36  1285.97 i
 44.7  695.835  705.277 i
 44.75  299.937  297.444 i
 44.8  153.483  143.128 i
 44.85  104.766  92.5924 i
 44.9  63.6463  69.4549 i
 44.95  52.3047  57.5557 i
 45  63.0349  49.7482 i
 45.05  54.2844  44.9542 i
 45.1  41.4708  41.4483 i
 45.15  49.9978  38.9863 i
 45.2  31.9184  37.1402 i
 45.25  33.9643  35.8757 i
 45.3  42.6439  34.6112 i
 45.35  30.4026  33.8058 i
 45.4  35.8088  33.0004 i
 45.45  31.4839  32.4565 i
 45.5  24.9257  31.9126 i
 45.55  35.6105  31.5284 i
 45.6  33.1593  31.1443 i
 45.65  32.7227  30.8619 i
 45.7  29.2811  30.5795 i
 45.75  28.9902  30.3505 i
 45.8  35.1032  30.1216 i
 45.85  41.5432  29.9143 i
 45.9  37.2482  29.7391 i
 45.95  47.2041  29.5978 i
 46  29.7113  29.4785 i
 46.05  27.1491  29.3795 i
 46.1  30.9123  29.2805 i
 46.15  54.4322  29.1973 i
 46.2  30.7181  29.1227 i
 46.25  38.6025  29.0588 i
 46.3  35.1552  28.9949 i
 46.35  21.0294  28.9427 i
 46.4  20.2039  28.8905 i
 46.45  38.3328  28.8476 i
 46.5  24.7301  28.8046 i
 46.55  25.5284  28.7691 i
 46.6  24.4974  28.7335 i
 46.65  35.4523  28.704 i
 46.7  35.0095  28.6745 i
 46.75  28.01  28.65 i
 46.8  23.1775  28.6254 i
 46.85  31.7144  28.605 i
 46.9  36.1548  28.5845 i
 46.95  36.7447  28.5675 i
 47  33.9529  28.5505 i
 47.05  30.581  28.5364 i
 47.1  38.4029  28.5223 i
 47.15  34.3291  28.5106 i
 47.2  27.0902  28.499 i
 47.25  33.5909  28.4894 i
 47.3  33.4702  28.4799 i
 47.35  26.9467  28.4722 i
 47.4  29.0786  28.4644 i
 47.45  37.3651  28.4583 i
 47.5  24.3114  28.4521 i
 47.55  33.4045  28.4473 i
 47.6  49.4399  28.4425 i
 47.65  38.2053  28.4386 i
 47.7  35.7026  28.4353 i
 47.75  34.7815  28.4327 i
 47.8  42.1992  28.4301 i
 47.85  24.1757  28.4285 i
 47.9  33.3117  28.4269 i
 47.95  37.0695  28.4261 i
 48  30.1618  28.4252 i
 48.05  31.1592  28.4252 i
 48.1  31.0074  28.4251 i
 48.15  30.9875  28.4256 i
 48.2  41.1467  28.4262 i
 48.25  44.082  28.4272 i
 48.3  27.3278  28.4285 i
 48.35  25.1238  28.4301 i
 48.4  25.5835  28.4318 i
 48.45  35.6291  28.434 i
 48.5  30.2138  28.4361 i
 48.55  30.1269  28.4387 i
 48.6  37.169  28.4412 i
 48.65  37.5491  28.4442 i
 48.7  30.308  28.4471 i
 48.75  36.201  28.4504 i
 48.8  36.7494  28.4537 i
 48.85  38.5004  28.4574 i
 48.9  22.4033  28.461 i
 48.95  21.8485  28.4649 i
 49  29.7056  28.4688 i
 49.05  34.5606  28.473 i
 49.1  33.8712  28.4772 i
 49.15  31.7099  28.4816 i
 49.2  33.0921  28.486 i
 49.25  36.3854  28.4925 i
 49.3  23.8398  28.499 i
 49.35  34.8406  28.5039 i
 49.4  34.3508  28.5087 i
 49.45  24.09  28.5138 i
 49.5  36.3527  28.5188 i
 49.55  33.6891  28.5241 i
 49.6  31.6449  28.5293 i
 49.65  37.5174  28.5347 i
 49.7  30.4201  28.5401 i
 49.75  27.465  28.5457 i
 49.8  26.6867  28.5512 i
 49.85  24.8483  28.5569 i
 49.9  37.221  28.5626 i
 49.95  25.0773  28.5684 i
 50  18.4361  28.5742 i
 50.05  33.1636  28.5802 i
 50.1  32.9176  28.5861 i
 50.15  41.1764  28.5922 i
 50.2  35.5821  28.5982 i
 50.25  32.5983  28.6044 i
 50.3  41.0388  28.6106 i
 50.35  48.731  28.6168 i
 50.4  34.1577  28.6231 i
 50.45  35.7899  28.6295 i
 50.5  39.5793  28.6358 i
 50.55  37.8482  28.6423 i
 50.6  27.8029  28.6487 i
 50.65  29.3678  28.6553 i
 50.7  41.4553  28.6618 i
 50.75  52.6161  28.6684 i
 50.8  35.8396  28.675 i
 50.85  35.7346  28.6817 i
 50.9  28.0737  28.6884 i
 50.95  35.0516  28.6951 i
 51  35.7444  28.7019 i
 51.05  30.005  28.7087 i
 51.1  22.984  28.7155 i
 51.15  35.6693  28.7224 i
 51.2  35.5324  28.7293 i
 51.25  35.5497  28.7362 i
 51.3  19.1604  28.7431 i
 51.35  22.7842  28.7501 i
 51.4  33.677  28.7571 i
 51.45  27.9124  28.7641 i
 51.5  26.5908  28.7712 i
 51.55  28.3835  28.7783 i
 51.6  35.5099  28.7853 i
 51.65  32.0566  28.7925 i
 51.7  42.6384  28.7996 i
 51.75  38.1596  28.8068 i
 51.8  26.1248  28.8139 i
 51.85  28.5612  28.8212 i
 51.9  24.9543  28.8284 i
 51.95  32.1656  28.8356 i
 52  28.0354  28.8429 i
 52.05  32.5576  28.8501 i
 52.1  25.9237  28.8574 i
 52.15  22.2608  28.8648 i
 52.2  18.3813  28.8721 i
 52.25  31.8822  28.8794 i
 52.3  23.0473  28.8868 i
 52.35  35.9973  28.8942 i
 52.4  33.903  28.9015 i
 52.45  34.6542  28.9089 i
 52.5  31.3164  28.9164 i
 52.55  25.4413  28.9238 i
 52.6  34.2617  28.9312 i
 52.65  38.6472  28.9387 i
 52.7  32.2549  28.9461 i
 52.75  31.9038  28.9536 i
 52.8  32.2016  28.9611 i
 52.85  38.7738  28.9686 i
 52.9  22.023  28.9761 i
 52.95  17.4382  28.9837 i
 53  27.1595  28.9912 i
 53.05  28.5527  28.9987 i
 53.1  30.2704  29.0063 i
 53.15  33.3825  29.0138 i
 53.2  28.4977  29.0214 i
 53.25  30.606  29.029 i
 53.3  23.6575  29.0366 i
 53.35  27.1034  29.0442 i
 53.4  27.6034  29.0518 i
 53.45  29.2561  29.0594 i
 53.5  32.4905  29.067 i
 53.55  27.2615  29.0746 i
 53.6  23.5012  29.0823 i
 53.65  26.5321  29.0899 i
 53.7  26.6637  29.0975 i
 53.75  31.965  29.1052 i
 53.8  34.2897  29.1128 i
 53.85  25.554  29.1205 i
 53.9  35.4068  29.1282 i
 53.95  30.2825  29.1358 i
 54  23.7218  29.1435 i
 54.05  32.0434  29.1512 i
 54.1  34.8024  29.1589 i
 54.15  27.4832  29.1666 i
 54.2  24.3028  29.1743 i
 54.25  38.1094  29.182 i
 54.3  39.4693  29.1897 i
 54.35  46.9149  29.1974 i
 54.4  33.7736  29.2051 i
 54.45  42.2222  29.2128 i
 54.5  34.9511  29.2205 i
 54.55  23.3855  29.2282 i
 54.6  34.7055  29.2359 i
 54.65  30.5538  29.2437 i
 54.7  32.8359  29.2514 i
 54.75  41.2753  29.2591 i
 54.8  23.8369  29.2668 i
 54.85  30.8411  29.2746 i
 54.9  43.1432  29.2823 i
 54.95  35.356  29.29 i
 55  27.9086  29.2977 i
 55.05  28.1334  29.3055 i
 55.1  34.6833  29.3132 i
 55.15  28.819  29.3209 i
 55.2  24.6401  29.3287 i
 55.25  35.4187  29.3364 i
 55.3  35.7932  29.3441 i
 55.35  26.6578  29.3519 i
 55.4  29.7648  29.3596 i
 55.45  22.5431  29.3673 i
 55.5  25.4467  29.3751 i
 55.55  28.3838  29.3828 i
 55.6  29.0777  29.3905 i
 55.65  34.3471  29.3983 i
 55.7  39.2153  29.406 i
 55.75  28.2105  29.4137 i
 55.8  34.3819  29.4215 i
 55.85  29.4367  29.4292 i
 55.9  30.6546  29.4369 i
 55.95  35.2387  29.4446 i
 56  17.0272  29.4524 i
 56.05  30.1544  29.4601 i
 56.1  17.5297  29.4678 i
 56.15  29.3911  29.4755 i
 56.2  26.1053  29.4832 i
 56.25  38.2484  29.4909 i
 56.3  34.5782  29.4986 i
 56.35  26.7864  29.5064 i
 56.4  30.7461  29.5141 i
 56.45  38.8441  29.5218 i
 56.5  35.6936  29.5295 i
 56.55  32.2565  29.5372 i
 56.6  24.2466  29.5448 i
 56.65  32.3309  29.5525 i
 56.7  25.2001  29.5602 i
 56.75  36.9618  29.5679 i
 56.8  27.6543  29.5756 i
 56.85  33.2444  29.5833 i
 56.9  30.8023  29.5909 i
 56.95  29.8762  29.5986 i
 57  32.6169  29.6063 i
 57.05  35.5342  29.6139 i
 57.1  29.5889  29.6216 i
 57.15  43.7591  29.6292 i
 57.2  31.541  29.6369 i
 57.25  40.6793  29.6445 i
 57.3  25.8413  29.6522 i
 57.35  15.5405  29.6598 i
 57.4  30.217  29.6674 i
 57.45  16.1498  29.6751 i
 57.5  21.1677  29.6827 i
 57.55  30.1588  29.6903 i
 57.6  29.756  29.6979 i
 57.65  32.8089  29.7055 i
 57.7  28.7436  29.7131 i
 57.75  28.2639  29.7207 i
 57.8  37.6233  29.7283 i
 57.85  34.8634  29.7359 i
 57.9  31.1489  29.7435 i
 57.95  31.7408  29.7511 i
 58  18.7754  29.7587 i
 58.05  25.1757  29.7662 i
 58.1  32.5294  29.7738 i
 58.15  25.7341  29.7814 i
 58.2  16.7979  29.7889 i
 58.25  26.6828  29.7965 i
 58.3  24.7974  29.804 i
 58.35  26.7004  29.8115 i
 58.4  26.8662  29.8191 i
 58.45  29.5598  29.8266 i
 58.5  35.9594  29.8341 i
 58.55  38.5383  29.8417 i
 58.6  31.2466  29.8492 i
 58.65  29.4644  29.8567 i
 58.7  38.235  29.8642 i
 58.75  29.2873  29.8717 i
 58.8  29.9861  29.8792 i
 58.85  29.3686  29.8867 i
 58.9  32.0994  29.8941 i
 58.95  40.6817  29.9016 i
 59  31.5742  29.9091 i
 59.05  42.9725  29.9166 i
 59.1  35.6642  29.924 i
 59.15  41.3237  29.9315 i
 59.2  33.506  29.939 i
 59.25  31.8079  29.9464 i
 59.3  32.3417  29.9539 i
 59.35  24.6916  29.9613 i
 59.4  29.6589  29.9687 i
 59.45  31.0996  29.9762 i
 59.5  30.3714  29.9836 i
 59.55  29.8726  29.991 i
 59.6  25.4399  29.9985 i
 59.65  21.2179  30.0059 i
 59.7  33.5796  30.0133 i
 59.75  35.1024  30.0207 i
 59.8  37.808  30.0281 i
 59.85  31.5957  30.0355 i
 59.9  33.8034  30.043 i
 59.95  29.4474  30.0328 i
 60  37.2433  30.0226 i
 60.05  27.441  30.03 i
 60.1  34.5908  30.0374 i
 60.15  32.9919  30.0448 i
 60.2  32.5289  30.0522 i
 60.25  40.6798  30.0596 i
 60.3  25.967  30.067 i
 60.35  30.597  30.0744 i
 60.4  28.7849  30.0818 i
 60.45  17.8627  30.0892 i
 60.5  21.3383  30.0966 i
 60.55  29.8729  30.104 i
 60.6  29.9214  30.1114 i
 60.65  36.4642  30.1188 i
 60.7  26.628  30.1262 i
 60.75  29.9671  30.1336 i
 60.8  39.6306  30.1411 i
 60.85  35.8177  30.1485 i
 60.9  37.3352  30.156 i
 60.95  39.0127  30.1634 i
 61  23.0591  30.1709 i
 61.05  28.9609  30.1784 i
 61.1  21.0368  30.1859 i
 61.15  33.914  30.1934 i
 61.2  45.5104  30.2009 i
 61.25  31.6965  30.2085 i
 61.3  26.7141  30.2161 i
 61.35  34.7994  30.2237 i
 61.4  41.6043  30.2313 i
 61.45  36.0413  30.239 i
 61.5  34.931  30.2466 i
 61.55  29.8177  30.2544 i
 61.6  29.7473  30.2621 i
 61.65  28.0122  30.2699 i
 61.7  26.7147  30.2778 i
 61.75  35.5499  30.2857 i
 61.8  31.273  30.2936 i
 61.85  21.4263  30.3017 i
 61.9  34.0777  30.3097 i
 61.95  33.2066  30.3179 i
 62  36.6572  30.3261 i
 62.05  35.0088  30.3344 i
 62.1  28.6669  30.3428 i
 62.15  23.1215  30.3513 i
 62.2  38.0178  30.3598 i
 62.25  34.8652  30.3686 i
 62.3  26.6907  30.3774 i
 62.35  30.8277  30.3865 i
 62.4  30.6088  30.3955 i
 62.45  31.9414  30.405 i
 62.5  29.5631  30.4144 i
 62.55  37.5327  30.4242 i
 62.6  28.5518  30.434 i
 62.65  23.9083  30.4444 i
 62.7  31.5126  30.4547 i
 62.75  21.3822  30.4657 i
 62.8  38.0105  30.4766 i
 62.85  26.618  30.4884 i
 62.9  28.0272  30.5001 i
 62.95  37.0113  30.5128 i
 63  31.8078  30.5256 i
 63.05  36.3406  30.5396 i
 63.1  31.3645  30.5536 i
 63.15  43.3611  30.5692 i
 63.2  25.2117  30.5849 i
 63.25  31.8898  30.6028 i
 63.3  35.933  30.6208 i
 63.35  28.644  30.6423 i
 63.4  30.6136  30.6638 i
 63.45  33.0928  30.692 i
 63.5  37.355  30.7202 i
 63.55  25.3814  30.7615 i
 63.6  27.6046  30.8028 i
 63.65  30.0218  30.8598 i
 63.7  21.9354  30.9167 i
 63.75  33.9409  30.9831 i
 63.8  22.7538  31.0494 i
 63.85  23.2378  31.1275 i
 63.9  33.6434  31.2056 i
 63.95  27.5842  31.3091 i
 64  26.659  31.4126 i
 64.05  33.2619  31.5626 i
 64.1  34.8572  31.7125 i
 64.15  20.5684  31.9473 i
 64.2  21.543  32.1822 i
 64.25  27.9756  32.5889 i
 64.3  38.2445  32.9957 i
 64.35  34.7548  33.8132 i
 64.4  27.7506  34.6308 i
 64.45  42.0997  36.6662 i
 64.5  30.3378  38.7017 i
 64.55  42.1449  43.1236 i
 64.6  58.4474  50.8778 i
 64.65  63.3706  63.8509 i
 64.7  82.7807  83.2796 i
 64.75  102.603  107.559 i
 64.8  135.649  130.501 i
 64.85  149.361  142.957 i
 64.9  130.858  138.949 i
 64.95  108.806  120.004 i
 65  100.373  94.6349 i
 65.05  68.3242  71.7741 i
 65.1  65.7894  55.2558 i
 65.15  50.3756  45.2908 i
 65.2  29.8279  39.7012 i
 65.25  36.7409  37.2641 i
 65.3  40.7853  34.827 i
 65.35  35.0605  33.9345 i
 65.4  35.5205  33.0419 i
 65.45  40.9345  32.6318 i
 65.5  24.1354  32.2217 i
 65.55  35.0711  32.0003 i
 65.6  33.3703  31.779 i
 65.65  44.446  31.6463 i
 65.7  22.6257  31.5137 i
 65.75  35.1371  31.4282 i
 65.8  36.724  31.3427 i
 65.85  35.6131  31.2838 i
 65.9  26.9584  31.2249 i
 65.95  36.5082  31.1804 i
 66  47.1958  31.1358 i
 66.05  34.1294  31.0998 i
 66.1  28.9445  31.0638 i
 66.15  27.4213  31.0377 i
 66.2  32.3694  31.0115 i
 66.25  34.8194  30.9947 i
 66.3  34.4838  30.978 i
 66.35  31.4067  30.9669 i
 66.4  37.2854  30.9559 i
 66.45  32.1781  30.9482 i
 66.5  24.7274  30.9405 i
 66.55  29.4899  30.9351 i
 66.6  29.2102  30.9297 i
 66.65  29.0114  30.9259 i
 66.7  34.8912  30.9222 i
 66.75  37.9108  30.9197 i
 66.8  27.7566  30.9172 i
 66.85  27.2009  30.9157 i
 66.9  49.2718  30.9142 i
 66.95  82.6398  30.9133 i
 67  57.2129  30.9127 i
 67.05  36.6893  30.9125 i
 67.1  25.4369  30.9126 i
 67.15  38.3499  30.913 i
 67.2  39.0681  30.9134 i
 67.25  20.4217  30.9143 i
 67.3  37.6475  30.9151 i
 67.35  26.4527  30.9163 i
 67.4  31.8022  30.9175 i
 67.45  29.1736  30.9189 i
 67.5  26.5016  30.9204 i
 67.55  27.9331  30.9221 i
 67.6  28.148  30.9237 i
 67.65  32.3449  30.9256 i
 67.7  26.3092  30.9275 i
 67.75  21.3369  30.9295 i
 67.8  28.3208  30.9315 i
 67.85  32.0294  30.9336 i
 67.9  25.1722  30.9358 i
 67.95  29.7973  30.938 i
 68  19.4615  30.9402 i
 68.05  22.4658  30.9425 i
 68.1  34.1349  30.9449 i
 68.15  39.8425  30.9472 i
 68.2  29.2741  30.9496 i
 68.25  24.9104  30.952 i
 68.3  22.0618  30.9545 i
 68.35  25.6283  30.9569 i
 68.4  25.796  30.9594 i
 68.45  34.606  30.9619 i
 68.5  35.0552  30.9644 i
 68.55  22.6447  30.9669 i
 68.6  21.1903  30.9694 i
 68.65  20.464  30.9719 i
 68.7  28.137  30.9744 i
 68.75  37.5853  30.9769 i
 68.8  26.6977  30.9794 i
 68.85  28.7412  30.9819 i
 68.9  23.2442  30.9844 i
 68.95  27.059  30.9869 i
 69  38.5583  30.9894 i
 69.05  36.0947  30.9918 i
 69.1  46.0984  30.9943 i
 69.15  18.1181  30.9967 i
 69.2  26.8449  30.9992 i
 69.25  26.3054  31.0016 i
 69.3  29.9374  31.004 i
 69.35  29.7689  31.0064 i
 69.4  28.6955  31.0088 i
 69.45  33.9213  31.0112 i
 69.5  26.7333  31.0135 i
 69.55  26.059  31.0159 i
 69.6  26.2754  31.0182 i
 69.65  22.8438  31.0205 i
 69.7  23.0771  31.0228 i
 69.75  32.468  31.025 i
 69.8  34.0765  31.0273 i
 69.85  24.974  31.0295 i
 69.9  27.5592  31.0317 i
 69.95  30.0315  31.0338 i
 70  15.4171  31.036 i
 70.05  23.0263  31.0381 i
 70.1  29.0686  31.0402 i
 70.15  30.2694  31.0423 i
 70.2  15.9326  31.0443 i
 70.25  32.4093  31.0464 i
 70.3  30.3323  31.0484 i
 70.35  30.3063  31.0503 i
 70.4  24.3065  31.0523 i
 70.45  25.2417  31.0542 i
 70.5  27.1996  31.0561 i
 70.55  31.6037  31.058 i
 70.6  35.1086  31.0598 i
 70.65  28.2248  31.0616 i
 70.7  28.7356  31.0634 i
 70.75  24.0555  31.0652 i
 70.8  22.1409  31.0669 i
 70.85  27.5577  31.0686 i
 70.9  29.4738  31.0703 i
 70.95  26.2197  31.0719 i
 71  28.9834  31.0735 i
 71.05  27.2757  31.0751 i
 71.1  44.3875  31.0767 i
 71.15  25.0243  31.0782 i
 71.2  20.7918  31.0797 i
 71.25  25.1199  31.0811 i
 71.3  24.2824  31.0826 i
 71.35  29.3978  31.084 i
 71.4  22.3779  31.0854 i
 71.45  29.1399  31.0867 i
 71.5  24.895  31.088 i
 71.55  29.642  31.0893 i
 71.6  33.4365  31.0905 i
 71.65  21.3308  31.0917 i
 71.7  30.2425  31.0929 i
 71.75  23.2273  31.094 i
 71.8  28.3339  31.0952 i
 71.85  28.732  31.0962 i
 71.9  21.6711  31.0973 i
 71.95  22.1916  31.0983 i
 72  24.7131  31.0993 i
 72.05  22.6431  31.1002 i
 72.1  31.6595  31.1011 i
 72.15  36.5692  31.102 i
 72.2  24.3035  31.1029 i
 72.25  30.5878  31.1037 i
 72.3  23.2765  31.1045 i
 72.35  22.4286  31.1052 i
 72.4  34.6186  31.1059 i
 72.45  23.7162  31.1066 i
 72.5  21.0198  31.1072 i
 72.55  23.8403  31.1078 i
 72.6  26.7943  31.1084 i
 72.65  27.1129  31.1089 i
 72.7  26.9273  31.1094 i
 72.75  27.1775  31.1099 i
 72.8  26.9502  31.1103 i
 72.85  36.6194  31.1107 i
 72.9  35.9587  31.111 i
 72.95  24.2134  31.1113 i
 73  22.5445  31.1117 i
 73.05  27.8025  31.1119 i
 73.1  32.7845  31.1121 i
 73.15  31.2823  31.1123 i
 73.2  21.4202  31.1124 i
 73.25  25.0705  31.1125 i
 73.3  27.1357  31.1126 i
 73.35  23.9235  31.1126 i
 73.4  25.5421  31.1126 i
 73.45  34.0591  31.1124 i
 73.5  30.8273  31.1122 i
 73.55  29.5245  31.1118 i
 73.6  28.233  31.1114 i
 73.65  26.1851  31.1107 i
 73.7  31.718  31.1101 i
 73.75  25.477  31.1092 i
 73.8  31.2499  31.1083 i
 73.85  35.2175  31.1072 i
 73.9  36.7711  31.1061 i
 73.95  29.5307  31.1047 i
 74  32.2288  31.1034 i
 74.05  34.9811  31.1018 i
 74.1  28.5503  31.1003 i
 74.15  34.5003  31.0985 i
 74.2  23.7794  31.0967 i
 74.25  23.6033  31.0947 i
 74.3  31.3893  31.0927 i
 74.35  22.4866  31.0905 i
 74.4  24.8337  31.0883 i
 74.45  24.52  31.0859 i
 74.5  31.1092  31.0834 i
 74.55  24.9048  31.0808 i
 74.6  31.6583  31.0782 i
 74.65  31.3002  31.0753 i
 74.7  32.9591  31.0725 i
 74.75  33.5119  31.0695 i
 74.8  32.9667  31.0664 i
 74.85  26.8179  31.0632 i
 74.9  30.4923  31.06 i
 74.95  35.4674  31.0565 i
 75  24.3429  31.0531 i
 75.05  19.9704  31.0495 i
 75.1  26.9733  31.0459 i
 75.15  22.4737  31.0421 i
 75.2  26.3779  31.0382 i
 75.25  29.4684  31.0343 i
 75.3  26.0606  31.0303 i
 75.35  27.0861  31.0261 i
 75.4  37.5626  31.0219 i
 75.45  34.9681  31.0175 i
 75.5  26.0457  31.0132 i
 75.55  30.4093  31.0087 i
 75.6  22.0652  31.0041 i
 75.65  30.4534  30.9994 i
 75.7  27.424  30.9947 i
 75.75  16.6082  30.9899 i
 75.8  28.4495  30.985 i
 75.85  30.5525  30.9799 i
 75.9  36.5719  30.9749 i
 75.95  34.0858  30.9697 i
 76  28.8846  30.9645 i
 76.05  26.4761  30.9591 i
 76.1  17.3621  30.9538 i
 76.15  25.4097  30.9483 i
 76.2  36.3585  30.9428 i
 76.25  24.9562  30.9371 i
 76.3  28.8922  30.9314 i
 76.35  25.5171  30.9256 i
 76.4  27.5581  30.9198 i
 76.45  29.2104  30.9139 i
 76.5  27.8047  30.9079 i
 76.55  27.954  30.9018 i
 76.6  32.1111  30.8957 i
 76.65  27.4863  30.8895 i
 76.7  25.8451  30.8832 i
 76.75  30.1771  30.8769 i
 76.8  36.191  30.8705 i
 76.85  28.342  30.864 i
 76.9  37.2253  30.8575 i
 76.95  37.7657  30.8509 i
 77  26.0427  30.8443 i
 77.05  35.6095  30.8375 i
 77.1  26.2627  30.8308 i
 77.15  21.2607  30.8239 i
 77.2  29.4722  30.8171 i
 77.25  26.2838  30.8101 i
 77.3  30.1199  30.8031 i
 77.35  27.4752  30.7961 i
 77.4  25.7455  30.789 i
 77.45  25.8655  30.7818 i
 77.5  26.0086  30.7746 i
 77.55  30.6376  30.7674 i
 77.6  37.324  30.7601 i
 77.65  24.4244  30.7527 i
 77.7  22.5368  30.7454 i
 77.75  35.2856  30.7379 i
 77.8  22.9437  30.7304 i
 77.85  27.0891  30.7229 i
 77.9  27.3134  30.7154 i
 77.95  39.3456  30.7078 i
 78  29.7542  30.7002 i
 78.05  26.4098  30.6925 i
 78.1  26.1953  30.6848 i
 78.15  35.8253  30.6771 i
 78.2  35.5049  30.6693 i
 78.25  29.9581  30.6615 i
 78.3  32.0425  30.6537 i
 78.35  29.3717  30.6459 i
 78.4  24.5877  30.6381 i
 78.45  17.3071  30.6302 i
 78.5  22.6149  30.6223 i
 78.55  27.7271  30.6144 i
 78.6  25.8572  30.6065 i
 78.65  29.9138  30.5986 i
 78.7  28.8951  30.5907 i
 78.75  24.9419  30.5828 i
 78.8  26.9039  30.5748 i
 78.85  22.1763  30.5669 i
 78.9  29.7848  30.559 i
 78.95  25.1661  30.5511 i
 79  24.1294  30.5433 i
 79.05  34.2097  30.5354 i
 79.1  31.4071  30.5276 i
 79.15  19.5371  30.5198 i
 79.2  32.003  30.512 i
 79.25  26.1292  30.5043 i
 79.3  44.8541  30.4966 i
 79.35  36.365  30.489 i
 79.4  28.055  30.4815 i
 79.45  24.4877  30.4754 i
 79.5  31.2002  30.4693 i
 79.55  26.9844  30.462 i
 79.6  35.3108  30.4547 i
 79.65  28.5371  30.4477 i
 79.7  32.8532  30.4407 i
 79.75  30.4088  30.434 i
 79.8  34.7081  30.4272 i
 79.85  30.5066  30.4208 i
 79.9  24.8388  30.4144 i
 79.95  37.2528  30.4085 i
 80  18.8263  30.4025 i
 80.05  31.1504  30.3971 i
 80.1  36.4786  30.3917 i
 80.15  28.4803  30.387 i
 80.2  24.0471  30.3823 i
 80.25  25.5735  30.3784 i
 80.3  22.8703  30.3745 i
 80.35  26.158  30.3718 i
 80.4  36.4286  30.369 i
 80.45  34.6985  30.3677 i
 80.5  35.9301  30.3663 i
 80.55  25.599  30.3669 i
 80.6  34.3046  30.3675 i
 80.65  29.388  30.3709 i
 80.7  25.3452  30.3742 i
 80.75  31.4074  30.3824 i
 80.8  28.9255  30.3906 i
 80.85  39.4212  30.41 i
 80.9  31.2851  30.4295 i
 80.95  34.307  30.4656 i
 81  29.6752  30.5017 i
 81.05  21.8901  30.545 i
 81.1  23.5785  30.5883 i
 81.15  32.7865  30.6392 i
 81.2  18.4941  30.6902 i
 81.25  26.8519  30.7623 i
 81.3  26.6023  30.8345 i
 81.35  29.7527  30.9447 i
 81.4  34.2022  31.0549 i
 81.45  37.8907  31.2333 i
 81.5  32.2525  31.4116 i
 81.55  36.5596  31.7237 i
 81.6  32.9395  32.0358 i
 81.65  25.9721  32.654 i
 81.7  32.6003  33.2723 i
 81.75  35.3591  34.7898 i
 81.8  34.7179  36.3073 i
 81.85  41.5873  39.7536 i
 81.9  46.5177  46.3814 i
 81.95  65.5576  58.8821 i
 82  86.5727  79.5909 i
 82.05  105.686  106.411 i
 82.1  127.801  129.629 i
 82.15  126.256  136.412 i
 82.2  111.411  122.525 i
 82.25  94.1025  95.8543 i
 82.3  85.9434  69.7947 i
 82.35  57.6913  51.9697 i
 82.4  48.0139  42.2013 i
 82.45  38.2499  37.2953 i
 82.5  45.8749  34.7518 i
 82.55  32.8902  33.5911 i
 82.6  28.6155  32.4304 i
 82.65  44.1499  31.9303 i
 82.7  39.9435  31.4301 i
 82.75  29.5464  31.1644 i
 82.8  42.9182  30.8987 i
 82.85  37.6767  30.7378 i
 82.9  28.4253  30.577 i
 82.95  30.8734  30.4703 i
 83  33.0628  30.3635 i
 83.05  23.2708  30.2874 i
 83.1  26.8489  30.2113 i
 83.15  31.7454  30.1528 i
 83.2  24.519  30.0943 i
 83.25  31.9099  30.0441 i
 83.3  33.4855  29.9938 i
 83.35  23.8922  29.9505 i
 83.4  27.2347  29.9071 i
 83.45  30.3956  29.8744 i
 83.5  24.5054  29.8417 i
 83.55  18.653  29.8162 i
 83.6  33.6077  29.7907 i
 83.65  32.6163  29.7691 i
 83.7  34.5042  29.7474 i
 83.75  32.4733  29.7281 i
 83.8  29.3947  29.7089 i
 83.85  25.239  29.6915 i
 83.9  24.3296  29.6741 i
 83.95  24.769  29.6581 i
 84  24.7817  29.6421 i
 84.05  27.7157  29.6272 i
 84.1  23.5468  29.6124 i
 84.15  33.2767  29.5984 i
 84.2  15.4412  29.5845 i
 84.25  32.251  29.5713 i
 84.3  35.0946  29.5581 i
 84.35  29.9674  29.5456 i
 84.4  29.2566  29.5331 i
 84.45  32.1419  29.5211 i
 84.5  30.1546  29.5091 i
 84.55  28.3124  29.4976 i
 84.6  30.5487  29.4861 i
 84.65  38.535  29.475 i
 84.7  21.1398  29.4639 i
 84.75  23.8266  29.4532 i
 84.8  40.4576  29.4424 i
 84.85  28.2562  29.4321 i
 84.9  27.5499  29.4217 i
 84.95  27.689  29.4116 i
 85  28.4769  29.4015 i
 85.05  26.9059  29.3917 i
 85.1  33.9048  29.3819 i
 85.15  24.7616  29.3724 i
 85.2  20.4597  29.3628 i
 85.25  33.5677  29.3535 i
 85.3  29.5589  29.3442 i
 85.35  23.0553  29.3351 i
 85.4  27.2213  29.3261 i
 85.45  25.7768  29.3172 i
 85.5  33.0241  29.3084 i
 85.55  31.1808  29.2997 i
 85.6  24.3582  29.2911 i
 85.65  28.587  29.2826 i
 85.7  28.0235  29.2742 i
 85.75  32.6504  29.266 i
 85.8  28.1538  29.2577 i
 85.85  23.3768  29.2497 i
 85.9  29.2742  29.2416 i
 85.95  31.1678  29.2337 i
 86  31.4953  29.2259 i
 86.05  31.6545  29.2182 i
 86.1  31.6445  29.2105 i
 86.15  24.9577  29.203 i
 86.2  29.2583  29.1955 i
 86.25  37.5804  29.1882 i
 86.3  23.9904  29.1809 i
 86.35  29.6203  29.1737 i
 86.4  26.273  29.1666 i
 86.45  32.2933  29.1597 i
 86.5  29.9585  29.1527 i
 86.55  21.2357  29.1459 i
 86.6  22.552  29.1392 i
 86.65  27.331  29.1326 i
 86.7  28.1346  29.126 i
 86.75  20.4604  29.1196 i
 86.8  35.0105  29.1131 i
 86.85  31.189  29.1069 i
 86.9  38.9069  29.1007 i
 86.95  27.1987  29.0946 i
 87  21.5387  29.0886 i
 87.05  31.1592  29.0827 i
 87.1  24.5341  29.0768 i
 87.15  32.0738  29.0712 i
 87.2  26.6801  29.0655 i
 87.25  30.6933  29.06 i
 87.3  30.7841  29.0545 i
 87.35  33.8891  29.0492 i
 87.4  32.982  29.0439 i
 87.45  28.7066  29.0388 i
 87.5  38.4992  29.0337 i
 87.55  31.8888  29.0287 i
 87.6  22.3902  29.0238 i
 87.65  30.5635  29.0191 i
 87.7  29.6761  29.0144 i
 87.75  34.1947  29.0098 i
 87.8  26.7164  29.0053 i
 87.85  28.378  29.001 i
 87.9  31.452  28.9966 i
 87.95  21.1944  28.9925 i
 88  27.5528  28.9884 i
 88.05  28.4868  28.9844 i
 88.1  25.7264  28.9805 i
 88.15  22.3958  28.9768 i
 88.2  29.8147  28.9731 i
 88.25  29.9072  28.9696 i
 88.3  31.3675  28.966 i
 88.35  22.7591  28.9627 i
 88.4  26.5583  28.9594 i
 88.45  26.797  28.9563 i
 88.5  35.717  28.9533 i
 88.55  31.461  28.9504 i
 88.6  36.4981  28.9475 i
 88.65  35.3849  28.9449 i
 88.7  30.4358  28.9422 i
 88.75  34.5093  28.9398 i
 88.8  39.2739  28.9373 i
 88.85  26.4088  28.9351 i
 88.9  27.0358  28.9329 i
 88.95  29.3783  28.9309 i
 89  29.5667  28.9289 i
 89.05  32.9437  28.9272 i
 89.1  25.0294  28.9254 i
 89.15  23.5376  28.9239 i
 89.2  30.2501  28.9224 i
 89.25  28.6149  28.9211 i
 89.3  23.8721  28.9198 i
 89.35  23.0913  28.9188 i
 89.4  18.2199  28.9177 i
 89.45  38.2235  28.9169 i
 89.5  25.466  28.9161 i
 89.55  30.4391  28.9155 i
 89.6  23.587  28.915 i
 89.65  27.1315  28.9147 i
 89.7  40.4463  28.9143 i
 89.75  40.8403  28.9142 i
 89.8  20.724  28.9142 i
 89.85  31.0603  28.9144 i
 89.9  39.021  28.9146 i
 89.95  25.5341  28.915 i
 90  33.5927  28.9155 i
 90.05  32.4974  28.9162 i
 90.1  18.2392  28.9169 i
 90.15  34.4334  28.9179 i
 90.2  27.0057  28.9189 i
 90.25  25.2624  28.9201 i
 90.3  17.1439  28.9213 i
 90.35  24.0478  28.9228 i
 90.4  32.6049  28.9243 i
 90.45  36.0227  28.926 i
 90.5  36.4745  28.9277 i
 90.55  30.0485  28.9297 i
 90.6  31.4116  28.9316 i
 90.65  35.8518  28.9338 i
 90.7  32.1167  28.936 i
 90.75  24.5646  28.9385 i
 90.8  26.4464  28.9409 i
 90.85  30.2304  28.9436 i
 90.9  20.1581  28.9462 i
 90.95  29.1309  28.9491 i
 91  26.3414  28.952 i
 91.05  22.2817  28.9552 i
 91.1  30.3794  28.9583 i
 91.15  31.6429  28.9617 i
 91.2  33.0996  28.965 i
 91.25  23.6976  28.9686 i
 91.3  29.6722  28.9722 i
 91.35  35.4884  28.9759 i
 91.4  31.1493  28.9797 i
 91.45  27.7493  28.9837 i
 91.5  30.5542  28.9877 i
 91.55  30.6566  28.992 i
 91.6  27.5512  28.9962 i
 91.65  24.1948  29.0006 i
 91.7  19.8902  29.005 i
 91.75  27.4674  29.0097 i
 91.8  28.8934  29.0143 i
 91.85  30.7489  29.0191 i
 91.9  30.3334  29.024 i
 91.95  28.5802  29.029 i
 92  32.0294  29.034 i
 92.05  21.4994  29.0392 i
 92.1  25.627  29.0445 i
 92.15  25.4567  29.0499 i
 92.2  13.7457  29.0553 i
 92.25  24.3071  29.0609 i
 92.3  24.8311  29.0665 i
 92.35  26.9461  29.0723 i
 92.4  45.4358  29.0781 i
 92.45  29.7721  29.0841 i
 92.5  25.8994  29.0901 i
 92.55  28.0096  29.0963 i
 92.6  21.9456  29.1025 i
 92.65  25.2545  29.1088 i
 92.7  35.5859  29.1152 i
 92.75  33.2454  29.1217 i
 92.8  28.1177  29.1282 i
 92.85  25.3871  29.1349 i
 92.9  36.0558  29.1416 i
 92.95  25.4705  29.1485 i
 93  18.4982  29.1554 i
 93.05  18.8073  29.1624 i
 93.1  34.826  29.1694 i
 93.15  23.7596  29.1767 i
 93.2  29.4687  29.1839 i
 93.25  19.2927  29.1912 i
 93.3  31.5239  29.1986 i
 93.35  23.3991  29.2062 i
 93.4  29.1644  29.2137 i
 93.45  25.3894  29.2224 i
 93.5  25.319  29.231 i
 93.55  22.5727  29.2389 i
 93.6  29.7709  29.2468 i
 93.65  25.5869  29.2548 i
 93.7  29.2774  29.2628 i
 93.75  35.9256  29.271 i
 93.8  29.0201  29.2792 i
 93.85  34.562  29.2875 i
 93.9  28.8299  29.2958 i
 93.95  21.9493  29.3043 i
 94  21.4191  29.3128 i
 94.05  31.848  29.3215 i
 94.1  37.8915  29.3301 i
 94.15  40.3518  29.3389 i
 94.2  26.2393  29.3477 i
 94.25  29.8153  29.3567 i
 94.3  35.6645  29.3656 i
 94.35  24.6206  29.3747 i
 94.4  35.9409  29.3838 i
 94.45  22.0083  29.3931 i
 94.5  33.7535  29.4023 i
 94.55  27.051  29.4117 i
 94.6  38.9897  29.4212 i
 94.65  26.9308  29.4307 i
 94.7  32.9816  29.4403 i
 94.75  21.3963  29.45 i
 94.8  37.7115  29.4598 i
 94.85  26.5702  29.4697 i
 94.9  31.0799  29.4796 i
 94.95  26.6333  29.4896 i
 95  34.0562  29.4997 i
 95.05  26.6934  29.5099 i
 95.1  27.9231  29.5202 i
 95.15  31.5074  29.5306 i
 95.2  23.006  29.541 i
 95.25  35.0173  29.5516 i
 95.3  32.7548  29.5622 i
 95.35  19.7755  29.573 i
 95.4  22.8252  29.5839 i
 95.45  27.9794  29.5949 i
 95.5  19.9154  29.6059 i
 95.55  30.8119  29.6171 i
 95.6  35.2739  29.6284 i
 95.65  39.2374  29.6399 i
 95.7  20.8525  29.6514 i
 95.75  26.995  29.6631 i
 95.8  27.6779  29.6749 i
 95.85  31.0937  29.6869 i
 95.9  23.7703  29.699 i
 95.95  38.7592  29.7114 i
 96  35.6551  29.7237 i
 96.05  32.0878  29.7365 i
 96.1  25.641  29.7492 i
 96.15  24.6005  29.7624 i
 96.2  28.3436  29.7756 i
 96.25  21.9427  29.7892 i
 96.3  35.1318  29.8029 i
 96.35  29.4235  29.8171 i
 96.4  30.6076  29.8313 i
 96.45  29.3571  29.8462 i
 96.5  27.4888  29.861 i
 96.55  27.9421  29.8767 i
 96.6  28.904  29.8924 i
 96.65  33.6141  29.909 i
 96.7  15.143  29.9256 i
 96.75  34.8352  29.9434 i
 96.8  19.2737  29.9612 i
 96.85  21.5965  29.9804 i
 96.9  30.5982  29.9996 i
 96.95  24.8131  30.0207 i
 97  29.8976  30.0418 i
 97.05  32.2515  30.0654 i
 97.1  39.0496  30.0889 i
 97.15  27.0747  30.1158 i
 97.2  39.8126  30.1428 i
 97.25  25.4833  30.1751 i
 97.3  24.9751  30.2074 i
 97.35  35.2988  30.2491 i
 97.4  25.5579  30.2908 i
 97.45  24.5449  30.346 i
 97.5  24.4168  30.4012 i
 97.55  30.7349  30.4692 i
 97.6  31.7417  30.5372 i
 97.65  27.3502  30.6192 i
 97.7  16.5804  30.7012 i
 97.75  37.4852  30.808 i
 97.8  22.6009  30.9149 i
 97.85  30.4818  31.0663 i
 97.9  32.4137  31.2177 i
 97.95  34.3168  31.4498 i
 98  34.3749  31.6819 i
 98.05  39.5645  32.0742 i
 98.1  29.9241  32.4665 i
 98.15  25.9062  33.2286 i
 98.2  36.0543  33.9907 i
 98.25  38.8036  35.7926 i
 98.3  44.1295  37.5945 i
 98.35  53.3158  41.3551 i
 98.4  51.1079  47.7907 i
 98.45  71.3204  58.3783 i
 98.5  70.0199  74.1039 i
 98.55  96.4733  93.8628 i
 98.6  100.433  113.268 i
 98.65  128.625  125.676 i
 98.7  131.081  126.221 i
 98.75  116.084  114.541 i
 98.8  81.8673  95.6322 i
 98.85  64.5448  76.051 i
 98.9  64.8591  60.2807 i
 98.95  54.4274  49.7582 i
 99  40.6076  42.8789 i
 99.05  43.3072  39.68 i
 99.1  34.3028  36.4812 i
 99.15  39.947  35.2055 i
 99.2  41.1407  33.9298 i
 99.25  29.6835  33.3197 i
 99.3  36.5466  32.7097 i
 99.35  34.153  32.3739 i
 99.4  40.4921  32.0381 i
 99.45  30.2198  31.8347 i
 99.5  29.9968  31.6312 i
 99.55  31.8015  31.4988 i
 99.6  42.6401  31.3663 i
 99.65  23.7148  31.2728 i
 99.7  31.2941  31.1792 i
 99.75  30.0256  31.1044 i
 99.8  23.8006  31.0296 i
 99.85  36.6486  30.9674 i
 99.9  24.9432  30.9052 i
 99.95  31.3648  30.8625 i
 100  23.8878  30.8198 i
 100.05  27.2189  30.7963 i
 100.1  26.9431  30.7729 i
 100.15  34.9079  30.7603 i
 100.2  24.9471  30.7478 i
 100.25  35.7378  30.7408 i
 100.3  23.6921  30.7338 i
 100.35  32.8671  30.7301 i
 100.4  27.9632  30.7264 i
 100.45  23.3146  30.725 i
 100.5  28.6861  30.7236 i
 100.55  34.2445  30.7239 i
 100.6  32.9027  30.7242 i
 100.65  30.7901  30.7258 i
 100.7  23.3099  30.7274 i
 100.75  24.9426  30.73 i
 100.8  28.3196  30.7326 i
 100.85  26.6453  30.7359 i
 100.9  19.9679  30.7393 i
 100.95  25.9395  30.7433 i
 101  27.5737  30.7473 i
 101.05  22.5151  30.7518 i
 101.1  30.3039  30.7563 i
 101.15  28.1355  30.7611 i
 101.2  24.7786  30.766 i
 101.25  27.0283  30.7712 i
 101.3  35.6445  30.7764 i
 101.35  24.4011  30.7818 i
 101.4  35.3568  30.7872 i
 101.45  26.1127  30.7928 i
 101.5  33.8415  30.7984 i
 101.55  31.7626  30.8041 i
 101.6  19.6091  30.8099 i
 101.65  18.3737  30.8157 i
 101.7  27.6415  30.8215 i
 101.75  29.8542  30.8274 i
 101.8  28.2778  30.8333 i
 101.85  30.5347  30.8393 i
 101.9  38.2698  30.8452 i
 101.95  33.2593  30.8498 i
 102  25.287  30.8544 i
 102.05  25.1934  30.8604 i
 102.1  37.1353  30.8663 i
 102.15  28.2018  30.8722 i
 102.2  29.4478  30.8782 i
 102.25  34.4949  30.884 i
 102.3  32.5392  30.8899 i
 102.35  25.7147  30.8957 i
 102.4  32.7021  30.9015 i
 102.45  22.2682  30.9073 i
 102.5  27.2851  30.913 i
 102.55  32.2022  30.9187 i
 102.6  37.1714  30.9244 i
 102.65  30.4842  30.9299 i
 102.7  26.3745  30.9355 i
 102.75  33.9091  30.941 i
 102.8  33.3752  30.9465 i
 102.85  24.2175  30.9518 i
 102.9  26.7681  30.9572 i
 102.95  31.5496  30.9624 i
 103  29.2418  30.9676 i
 103.05  16.6645  30.9727 i
 103.1  30.3628  30.9779 i
 103.15  19.4691  30.9828 i
 103.2  33.9053  30.9878 i
 103.25  27.0019  30.9926 i
 103.3  29.1326  30.9975 i
 103.35  34.8907  31.0021 i
 103.4  22.2109  31.0068 i
 103.45  33.1648  31.0113 i
 103.5  41.2765  31.0159 i
 103.55  35.4961  31.0202 i
 103.6  23.227  31.0246 i
 103.65  29.9932  31.0288 i
 103.7  29.2697  31.033 i
 103.75  34.5807  31.037 i
 103.8  21.6968  31.0411 i
 103.85  19.9029  31.0449 i
 103.9  31.0785  31.0488 i
 103.95  29.9077  31.0524 i
 104  33.6778  31.0561 i
 104.05  22.0817  31.0596 i
 104.1  31.6008  31.0631 i
 104.15  34.2877  31.0663 i
 104.2  34.4353  31.0696 i
 104.25  26.073  31.0727 i
 104.3  35.7201  31.0758 i
 104.35  35.9022  31.0787 i
 104.4  26.1347  31.0816 i
 104.45  25.0996  31.0843 i
 104.5  30.6657  31.087 i
 104.55  30.5656  31.0895 i
 104.6  32.5087  31.0919 i
 104.65  31.2437  31.0942 i
 104.7  24.1597  31.0965 i
 104.75  30.3604  31.0985 i
 104.8  28.117  31.1006 i
 104.85  30.3388  31.1024 i
 104.9  32.3856  31.1042 i
 104.95  32.5158  31.1058 i
 105  26.4396  31.1075 i
 105.05  18.6311  31.1088 i
 105.1  33.099  31.1102 i
 105.15  35.0851  31.1113 i
 105.2  26.4681  31.1125 i
 105.25  18.3353  31.1134 i
 105.3  30.1339  31.1143 i
 105.35  34.7166  31.115 i
 105.4  25.8701  31.1156 i
 105.45  22.6666  31.116 i
 105.5  25.8017  31.1165 i
 105.55  29.9947  31.1166 i
 105.6  30.6095  31.1168 i
 105.65  26.3997  31.1168 i
 105.7  23.1677  31.1167 i
 105.75  33.8752  31.1165 i
 105.8  28.4673  31.1163 i
 105.85  42.7157  31.116 i
 105.9  31.2917  31.1157 i
 105.95  26.3457  31.1153 i
 106  25.204  31.1149 i
 106.05  21.6985  31.1144 i
 106.1  30.3544  31.1139 i
 106.15  46.2141  31.1133 i
 106.2  21.5733  31.1126 i
 106.25  39.511  31.1119 i
 106.3  30.8405  31.1112 i
 106.35  29.6457  31.1104 i
 106.4  32.2055  31.1096 i
 106.45  26.9464  31.1087 i
 106.5  24.5104  31.1078 i
 106.55  25.067  31.1067 i
 106.6  23.3198  31.1057 i
 106.65  41.6953  31.1046 i
 106.7  24.6613  31.1035 i
 106.75  24.6986  31.1023 i
 106.8  36.9928  31.1011 i
 106.85  33.0788  31.0997 i
 106.9  20.219  31.0984 i
 106.95  20.8577  31.097 i
 107  29.8174  31.0956 i
 107.05  17.4952  31.0941 i
 107.1  31.3713  31.0926 i
 107.15  33.3574  31.091 i
 107.2  34.4343  31.0893 i
 107.25  27.3608  31.0876 i
 107.3  31.6781  31.0859 i
 107.35  30.6476  31.0841 i
 107.4  31.7699  31.0823 i
 107.45  22.0698  31.0804 i
 107.5  28.09  31.0785 i
 107.55  29.0226  31.0765 i
 107.6  30.7881  31.0746 i
 107.65  30.3107  31.0725 i
 107.7  30.5109  31.0704 i
 107.75  29.2413  31.0682 i
 107.8  34.3574  31.066 i
 107.85  29.7264  31.0637 i
 107.9  27.7124  31.0615 i
 107.95  32.2218  31.0591 i
 108  27.3406  31.0567 i
 108.05  34.1692  31.0543 i
 108.1  32.736  31.0518 i
 108.15  33.078  31.0493 i
 108.2  32.4663  31.0468 i
 108.25  29.5427  31.0441 i
 108.3  26.2736  31.0415 i
 108.35  40.5652  31.0388 i
 108.4  27.0859  31.036 i
 108.45  26.4289  31.0332 i
 108.5  25.6111  31.0304 i
 108.55  23.0699  31.0275 i
 108.6  21.6136  31.0246 i
 108.65  29.7224  31.0216 i
 108.7  30.3553  31.0187 i
 108.75  36.5711  31.0156 i
 108.8  33.0166  31.0125 i
 108.85  29.1991  31.0094 i
 108.9  25.6801  31.0062 i
 108.95  34.401  31.003 i
 109  26.1844  30.9998 i
 109.05  26.7282  30.9964 i
 109.1  32.9607  30.9931 i
 109.15  23.162  30.9897 i
 109.2  26.2883  30.9863 i
 109.25  27.7476  30.9829 i
 109.3  27.6769  30.9794 i
 109.35  31.9251  30.9758 i
 109.4  24.2102  30.9723 i
 109.45  28.2283  30.9686 i
 109.5  29.2908  30.965 i
 109.55  28.1144  30.9613 i
 109.6  34.1194  30.9576 i
 109.65  31.0323  30.9538 i
 109.7  22.0932  30.95 i
 109.75  25.3722  30.9462 i
 109.8  23.4265  30.9423 i
 109.85  29.412  30.9384 i
 109.9  31.814  30.9344 i
 109.95  25.6423  30.9304 i
 110  28.4938  30.9264 i
 110.05  27.1289  30.9224 i
 110.1  24.3378  30.9183 i
 110.15  24.6045  30.9142 i
 110.2  44.3518  30.91 i
 110.25  24.9675  30.9058 i
 110.3  18.6286  30.9016 i
 110.35  28.7269  30.8974 i
 110.4  26.9071  30.8931 i
 110.45  33.7246  30.8888 i
 110.5  40.2601  30.8845 i
 110.55  26.3668  30.8801 i
 110.6  29.0693  30.8757 i
 110.65  27.4116  30.8712 i
 110.7  30.5442  30.8668 i
 110.75  29.4202  30.8623 i
 110.8  27.5339  30.8578 i
 110.85  26.719  30.8532 i
 110.9  25.1842  30.8487 i
 110.95  35.0468  30.8441 i
 111  37.3238  30.8395 i
 111.05  37.4628  30.8348 i
 111.1  29.6771  30.8302 i
 111.15  30.3558  30.8255 i
 111.2  29.535  30.8208 i
 111.25  23.1206  30.8161 i
 111.3  27.9519  30.8114 i
 111.35  30.4625  30.8066 i
 111.4  39.5511  30.8018 i
 111.45  24.7954  30.797 i
 111.5  25.3063  30.7922 i
 111.55  27.1375  30.7874 i
 111.6  38.0015  30.7826 i
 111.65  36.0848  30.7778 i
 111.7  31.6019  30.7729 i
 111.75  32.986  30.7681 i
 111.8  23.7017  30.7632 i
 111.85  33.267  30.7583 i
 111.9  19.6679  30.7535 i
 111.95  42.5349  30.7486 i
 112  28.4958  30.7437 i
 112.05  29.5112  30.7389 i
 112.1  29.7978  30.734 i
 112.15  21.5237  30.7292 i
 112.2  29.1114  30.7244 i
 112.25  25.2792  30.7196 i
 112.3  28.573  30.7148 i
 112.35  37.5944  30.71 i
 112.4  32.3615  30.7053 i
 112.45  26.644  30.7006 i
 112.5  22.5174  30.6959 i
 112.55  21.1465  30.6912 i
 112.6  43.2116  30.6866 i
 112.65  25.4658  30.6821 i
 112.7  38.3586  30.6775 i
 112.75  27.6218  30.6731 i
 112.8  29.416  30.6687 i
 112.85  37.7544  30.6645 i
 112.9  33.0704  30.6602 i
 112.95  34.954  30.6561 i
 113  25.9459  30.652 i
 113.05  28.2187  30.6482 i
 113.1  26.6454  30.6443 i
 113.15  25.4845  30.6407 i
 113.2  37.4876  30.6371 i
 113.25  33.4446  30.6339 i
 113.3  31.4983  30.6306 i
 113.35  33.649  30.6278 i
 113.4  30.3328  30.6249 i
 113.45  24.2464  30.6225 i
 113.5  28.2647  30.6201 i
 113.55  21.2588  30.6184 i
 113.6  40.9797  30.6166 i
 113.65  25.9686  30.6155 i
 113.7  29.4643  30.6145 i
 113.75  31.4223  30.6144 i
 113.8  33.0487  30.6143 i
 113.85  27.3165  30.6153 i
 113.9  25.4627  30.6163 i
 113.95  35.8195  30.6189 i
 114  37.6669  30.6214 i
 114.05  28.3783  30.6258 i
 114.1  39.5864  30.6303 i
 114.15  34.4142  30.6373 i
 114.2  30.9362  30.6444 i
 114.25  38.0094  30.6549 i
 114.3  27.6599  30.6655 i
 114.35  42.0457  30.681 i
 114.4  22.3106  30.6965 i
 114.45  25.4021  30.7191 i
 114.5  36.6376  30.7417 i
 114.55  37.5246  30.7744 i
 114.6  30.6795  30.8071 i
 114.65  31.8336  30.8538 i
 114.7  33.0691  30.9006 i
 114.75  31.1641  30.967 i
 114.8  22.1012  31.0334 i
 114.85  34.0875  31.1288 i
 114.9  27.0482  31.2242 i
 114.95  35.257  31.3658 i
 115  24.1502  31.5073 i
 115.05  38.0362  31.7287 i
 115.1  32.3012  31.9501 i
 115.15  24.897  32.3177 i
 115.2  42.4905  32.6854 i
 115.25  35.1979  33.3294 i
 115.3  41.0576  33.9735 i
 115.35  50.1675  34.9636 i
 115.4  25.2257  36.2941 i
 115.45  37.3705  38.3494 i
 115.5  40.0831  40.4048 i
 115.55  44.7661  43.4075 i
 115.6  49.0652  47.149 i
 115.65  53.6735  51.6605 i
 115.7  56.5909  56.7178 i
 115.75  70.9771  62.1597 i
 115.8  60.3547  67.538 i
 115.85  70.5336  72.3316 i
 115.9  76.0337  75.9936 i
 115.95  78.9103  78.0219 i
 116  65.8899  78.2531 i
 116.05  71.8161  76.5501 i
 116.1  74.8607  73.1856 i
 116.15  66.811  68.5953 i
 116.2  70.9241  63.3155 i
 116.25  62.2262  57.8898 i
 116.3  37.102  52.704 i
 116.35  51.0493  48.0966 i
 116.4  46.2376  44.1972 i
 116.45  48.965  41.0306 i
 116.5  50.3464  38.54 i
 116.55  34.1345  36.8586 i
 116.6  37.5447  35.1772 i
 116.65  33.3252  34.2235 i
 116.7  38.7327  33.2697 i
 116.75  28.2721  32.7242 i
 116.8  40.4077  32.1787 i
 116.85  31.0617  31.8519 i
 116.9  33.111  31.525 i
 116.95  26.4027  31.3159 i
 117  29.604  31.1068 i
 117.05  34.6034  30.9639 i
 117.1  20.2479  30.8209 i
 117.15  26.4605  30.7178 i
 117.2  22.083  30.6146 i
 117.25  26.5313  30.5375 i
 117.3  25.1914  30.4603 i
 117.35  29.1021  30.4012 i
 117.4  38.2066  30.3422 i
 117.45  34.8688  30.2961 i
 117.5  22.0923  30.25 i
 117.55  23.4321  30.2131 i
 117.6  29.98  30.1762 i
 117.65  40.3994  30.1458 i
 117.7  41.4263  30.1154 i
 117.75  38.2412  30.0895 i
 117.8  39.883  30.0637 i
 117.85  29.7499  30.0411 i
 117.9  29.6567  30.0185 i
 117.95  35.5834  29.9984 i
 118  27.9421  29.9783 i
 118.05  35.7174  29.96 i
 118.1  28.6667  29.9417 i
 118.15  24.5857  29.9248 i
 118.2  27.8216  29.908 i
 118.25  33.8938  29.8923 i
 118.3  20.9475  29.8765 i
 118.35  28.5533  29.8617 i
 118.4  33.7835  29.8469 i
 118.45  25.0835  29.8329 i
 118.5  27.0422  29.8188 i
 118.55  26.4091  29.8054 i
 118.6  27.1524  29.7919 i
 118.65  29.1075  29.779 i
 118.7  27.4784  29.7661 i
 118.75  40.0351  29.7535 i
 118.8  28.6588  29.741 i
 118.85  32.1066  29.7289 i
 118.9  23.2823  29.7167 i
 118.95  37.4298  29.7049 i
 119  33.3902  29.693 i
 119.05  30.0222  29.6814 i
 119.1  41.5146  29.6698 i
 119.15  28.8327  29.6584 i
 119.2  42.016  29.647 i
 119.25  24.2099  29.6358 i
 119.3  26.6147  29.6246 i
 119.35  28.0983  29.6136 i
 119.4  30.1926  29.6026 i
 119.45  30.5052  29.5917 i
 119.5  26.7238  29.5808 i
 119.55  40.908  29.57 i
 119.6  31.6631  29.5593 i
 119.65  22.2058  29.5486 i
 119.7  33.5862  29.5379 i
 119.75  26.6097  29.5274 i
 119.8  29.6432  29.5168 i
 119.85  30.9173  29.5063 i
 119.9  27.5523  29.4958 i
 119.95  27.6271  29.4854 i
 120  27.5653  29.475 i
 120.05  27.7258  29.4646 i
 120.1  36.7824  29.4542 i
 120.15  24.184  29.4439 i
 120.2  24.7156  29.4336 i
 120.25  36.5814  29.4234 i
 120.3  38.5652  29.4131 i
 120.35  35.5214  29.4029 i
 120.4  45.3067  29.3927 i
 120.45  32.6679  29.3825 i
 120.5  33.7325  29.3723 i
 120.55  23.0343  29.3622 i
 120.6  22.8123  29.3521 i
 120.65  27.5859  29.342 i
 120.7  24.3457  29.3318 i
 120.75  35.2404  29.3218 i
 120.8  28.1419  29.3117 i
 120.85  28.3195  29.3016 i
 120.9  32.5699  29.2916 i
 120.95  29.2547  29.2815 i
 121  27.8657  29.2715 i
 121.05  22.4546  29.2615 i
 121.1  23.9257  29.2515 i
 121.15  25.6446  29.2415 i
 121.2  26.9385  29.2315 i
 121.25  24.473  29.2215 i
 121.3  24.9076  29.2115 i
 121.35  25.9332  29.2015 i
 121.4  34.3067  29.1915 i
 121.45  29.7478  29.1816 i
 121.5  23.4114  29.1716 i
 121.55  24.4842  29.1617 i
 121.6  44.2196  29.1517 i
 121.65  28.2854  29.1418 i
 121.7  29.8745  29.1319 i
 121.75  32.6073  29.122 i
 121.8  32.2125  29.112 i
 121.85  26.6514  29.1021 i
 121.9  20.9768  29.0922 i
 121.95  24.0222  29.0823 i
 122  28.0093  29.0724 i
 122.05  36.2066  29.0625 i
 122.1  31.7597  29.0526 i
 122.15  29.0807  29.0428 i
 122.2  33.7169  29.0329 i
 122.25  30.4139  29.023 i
 122.3  37.3914  29.0131 i
 122.35  28.4765  29.0033 i
 122.4  22.4077  28.9934 i
 122.45  34.462  28.9836 i
 122.5  24.7988  28.9737 i
 122.55  28.6987  28.9638 i
 122.6  26.711  28.954 i
 122.65  18.4874  28.9442 i
 122.7  24.4308  28.9343 i
 122.75  33.4399  28.9245 i
 122.8  25.8384  28.9147 i
 122.85  35.0178  28.9035 i
 122.9  22.2925  28.8924 i
 122.95  29.2722  28.8826 i
 123  26.86  28.8727 i
 123.05  25.1125  28.8629 i
 123.1  36.777  28.8531 i
 123.15  26.7701  28.8434 i
 123.2  25.0359  28.8336 i
 123.25  24.3055  28.8238 i
 123.3  37.023  28.814 i
 123.35  30.6482  28.8042 i
 123.4  32.8033  28.7944 i
 123.45  30.3912  28.7847 i
 123.5  28.1585  28.7749 i
 123.55  23.7393  28.7652 i
 123.6  28.6756  28.7554 i
 123.65  37.4991  28.7457 i
 123.7  26.5799  28.7359 i
 123.75  24.552  28.7262 i
 123.8  33.1725  28.7165 i
 123.85  30.8342  28.7068 i
 123.9  29.3224  28.697 i
 123.95  33.4897  28.6873 i
 124  32.681  28.6776 i
 124.05  32.2963  28.6679 i
 124.1  27.0117  28.6582 i
 124.15  26.3945  28.6485 i
 124.2  43.8734  28.6389 i
 124.25  30.8365  28.6292 i
 124.3  17.9594  28.6195 i
 124.35  30.6225  28.6099 i
 124.4  28.4835  28.6002 i
 124.45  27.2979  28.5906 i
 124.5  38.5671  28.5809 i
 124.55  21.8177  28.5713 i
 124.6  31.541  28.5617 i
 124.65  26.2579  28.5521 i
 124.7  27.0858  28.5425 i
 124.75  23.7591  28.5329 i
 124.8  24.8683  28.5233 i
 124.85  26.8708  28.5137 i
 124.9  29.255  28.5041 i
 124.95  25.7637  28.4946 i
 125  34.6183  28.485 i
 125.05  28.3962  28.4754 i
 125.1  41.455  28.4659 i
 125.15  25.8962  28.4564 i
 125.2  29.5994  28.4468 i
 125.25  27.2343  28.4373 i
 125.3  19.0795  28.4278 i
 125.35  28.0921  28.4183 i
 125.4  32.5127  28.4089 i
 125.45  29.9052  28.3994 i
 125.5  30.2721  28.3899 i
 125.55  24.1677  28.3805 i
 125.6  26.0696  28.371 i
 125.65  22.9776  28.3616 i
 125.7  30.2799  28.3522 i
 125.75  36.4078  28.3427 i
 125.8  29.4564  28.3333 i
 125.85  28.2048  28.3239 i
 125.9  19.4553  28.3146 i
 125.95  26.2176  28.3052 i
 126  35.5025  28.2958 i
 126.05  39.2959  28.2865 i
 126.1  31.0593  28.2771 i
 126.15  25.5197  28.2678 i
 126.2  28.728  28.2585 i
 126.25  20.7748  28.2492 i
 126.3  30.9176  28.2399 i
 126.35  24.5021  28.2307 i
 126.4  28.5449  28.2214 i
 126.45  35.81  28.2121 i
 126.5  30.9268  28.2029 i
 126.55  31.9657  28.1937 i
 126.6  28.6603  28.1845 i
 126.65  34.1361  28.1753 i
 126.7  29.7626  28.1661 i
 126.75  32.7838  28.1569 i
 126.8  23.9319  28.1477 i
 126.85  26.7313  28.1386 i
 126.9  32.8057  28.1295 i
 126.95  37.4295  28.1204 i
 127  31.1929  28.1113 i
 127.05  31.7737  28.1022 i
 127.1  25.8085  28.0931 i
 127.15  25.7523  28.084 i
 127.2  25.8387  28.075 i
 127.25  38.0973  28.066 i
 127.3  30.1364  28.0569 i
 127.35  26.1083  28.048 i
 127.4  29.9819  28.039 i
 127.45  33.5839  28.03 i
 127.5  25.6763  28.0211 i
 127.55  31.6199  28.0121 i
 127.6  33.5534  28.0032 i
 127.65  28.864  27.9943 i
 127.7  21.3766  27.9854 i
 127.75  25.4543  27.9765 i
 127.8  28.2729  27.9677 i
 127.85  29.0836  27.9589 i
 127.9  29.8608  27.95 i
 127.95  28.1066  27.9412 i
 128  37.2269  27.9324 i
 128.05  27.7655  27.9237 i
 128.1  33.1005  27.9149 i
 128.15  17.4442  27.9062 i
 128.2  25.9392  27.8975 i
 128.25  29.3906  27.8888 i
 128.3  33.5214  27.8801 i
 128.35  32.6701  27.8715 i
 128.4  36.5034  27.8628 i
 128.45  27.7698  27.8542 i
 128.5  34.9757  27.8456 i
 128.55  30.3881  27.837 i
 128.6  30.9553  27.8285 i
 128.65  20.1778  27.8199 i
 128.7  35.0777  27.8114 i
 128.75  33.6807  27.8029 i
 128.8  36.5717  27.7944 i
 128.85  31.338  27.7859 i
 128.9  27.2655  27.7775 i
 128.95  29.3485  27.7691 i
 129  26.7323  27.7607 i
 129.05  24.3664  27.7523 i
 129.1  36.08  27.7439 i
 129.15  36.1416  27.7356 i
 129.2  36.9345  27.7273 i
 129.25  36.8403  27.719 i
 129.3  32.7166  27.7107 i
 129.35  40.3173  27.7024 i
 129.4  23.3142  27.6942 i
 129.45  29.2798  27.686 i
 129.5  33.1056  27.6778 i
 129.55  34.9496  27.6696 i
 129.6  35.2761  27.6615 i
 129.65  23.1164  27.6534 i
 129.7  30.5117  27.6453 i
 129.75  21.7229  27.6372 i
 129.8  27.2816  27.6291 i
 129.85  24.9366  27.6211 i
 129.9  26.9891  27.6131 i
 129.95  27.8748  27.6237 i
 130  22.3582  27.6344 i

