
#Surface 0 of 1 surfaces

#IsoCurve 0, 1801 points
#x y z type
 40  57.5254  0 i
 40.05  34.3527  0 i
 40.1  49.5959  0 i
 40.15  47.885  0 i
 40.2  35.155  0 i
 40.25  45.5188  0 i
 40.3  38.6086  0 i
 40.35  29.8787  0 i
 40.4  39.1922  0 i
 40.45  48.3261  0 i
 40.5  41.5998  0 i
 40.55  33.8735  0 i
 40.6  39.0184  0 i
 40.65  45.3372  0 i
 40.7  32.0546  0 i
 40.75  37.4853  0 i
 40.8  38.9496  0 i
 40.85  39.9426  0 i
 40.9  34.4947  0 i
 40.95  48.6896  0 i
 41  43.8506  0 i
 41.05  31.9394  0 i
 41.1  43.627  0 i
 41.15  42.016  0 i
 41.2  38.0647  0 i
 41.25  46.9545  0 i
 41.3  35.902  0 i
 41.35  34.0033  0 i
 41.4  40.5717  0 i
 41.45  31.3438  0 i
 41.5  48.9253  0 i
 41.55  38.2962  0 i
 41.6  42.9157  0 i
 41.65  32.5399  0 i
 41.7  39.3687  0 i
 41.75  39.418  0 i
 41.8  43.8501  0 i
 41.85  30.3285  0 i
 41.9  31.9887  0 i
 41.95  33.5008  0 i
 42  43.9887  0 i
 42.05  35.6741  0 i
 42.1  33.323  0 i
 42.15  31.7018  0 i
 42.2  41.7041  0 i
 42.25  31.6578  0 i
 42.3  33.2558  0 i
 42.35  35.1101  0 i
 42.4  45.7089  0 i
 42.45  37.425  0 i
 42.5  41.9598  0 i
 42.55  46.1452  0 i
 42.6  41.571  0 i
 42.65  40.6113  0 i
 42.7  33.6982  0 i
 42.75  40.6332  0 i
 42.8  37.9018  0 i
 42.85  33.2462  0 i
 42.9  29.6192  0 i
 42.95  45.0809  0 i
 43  29.0607  0 i
 43.05  36.4628  0 i
 43.1  30.369  0 i
 43.15  40.8136  0 i
 43.2  41.8197  0 i
 43.25  33.515  0 i
 43.3  25.3594  0 i
 43.35  54.6313  0 i
 43.4  30.3328  0 i
 43.45  38.757  0 i
 43.5  46.7538  0 i
 43.55  48.6759  0 i
 43.6  27.3411  0 i
 43.65  31.6461  0 i
 43.7  40.7157  0 i
 43.75  52.7029  0 i
 43.8  32.4422  0 i
 43.85  49.1542  0 i
 43.9  53.0063  0 i
 43.95  65.4408  0 i
 44  50.7173  0 i
 44.05  63.6656  0 i
 44.1  72.3144  0 i
 44.15  101.032  0 i
 44.2  136.577  0 i
 44.25  418.121  0 i
 44.3  1198.82  0 i
 44.35  2101.32  0 i
 44.4  2332.54  0 i
 44.45  1449.85  0 i
 44.5  480.286  0 i
 44.55  191.965  0 i
 44.6  84.8427  0 i
 44.65  72.2283  0 i
 44.7  58.3532  0 i
 44.75  51.7929  0 i
 44.8  56.1028  0 i
 44.85  52.5244  0 i
 44.9  40.0066  0 i
 44.95  30.4237  0 i
 45  44.8902  0 i
 45.05  34.0632  0 i
 45.1  41.4135  0 i
 45.15  49.5638  0 i
 45.2  35.4025  0 i
 45.25  49.4044  0 i
 45.3  45.3236  0 i
 45.35  36.5013  0 i
 45.4  27.707  0 i
 45.45  37.1979  0 i
 45.5  30.4353  0 i
 45.55  40.215  0 i
 45.6  39.669  0 i
 45.65  33.3608  0 i
 45.7  29.1925  0 i
 45.75  55.5946  0 i
 45.8  39.8081  0 i
 45.85  40.4506  0 i
 45.9  33.671  0 i
 45.95  40.9874  0 i
 46  43.6409  0 i
 46.05  35.9146  0 i
 46.1  29.4467  0 i
 46.15  34.0541  0 i
 46.2  31.2287  0 i
 46.25  35.8724  0 i
 46.3  41.5227  0 i
 46.35  33.9993  0 i
 46.4  34.2532  0 i
 46.45  34.0487  0 i
 46.5  28.4888  0 i
 46.55  37.4534  0 i
 46.6  43.3219  0 i
 46.65  34.7585  0 i
 46.7  35.4041  0 i
 46.75  24.3364  0 i
 46.8  23.1843  0 i
 46.85  43.2125  0 i
 46.9  40.4721  0 i
 46.95  37.1328  0 i
 47  29.0954  0 i
 47.05  40.5661  0 i
 47.1  26.8642  0 i
 47.15  29.3853  0 i
 47.2  34.6265  0 i
 47.25  39.0648  0 i
 47.3  30.0416  0 i
 47.35  27.1661  0 i
 47.4  36.9058  0 i
 47.45  41.414  0 i
 47.5  31.0139  0 i
 47.55  34.946  0 i
 47.6  38.3568  0 i
 47.65  35.1979  0 i
 47.7  30.7251  0 i
 47.75  26.3733  0 i
 47.8  29.3372  0 i
 47.85  29.7759  0 i
 47.9  30.6698  0 i
 47.95  42.2137  0 i
 48  36.5991  0 i
 48.05  38.6724  0 i
 48.1  40.1716  0 i
 48.15  41.3371  0 i
 48.2  36.8437  0 i
 48.25  40.2846  0 i
 48.3  46.4901  0 i
 48.35  34.351  0 i
 48.4  40.469  0 i
 48.45  33.3559  0 i
 48.5  33.4725  0 i
 48.55  35.941  0 i
 48.6  25.2237  0 i
 48.65  26.8178  0 i
 48.7  29.6684  0 i
 48.75  34.7066  0 i
 48.8  38.6073  0 i
 48.85  37.9518  0 i
 48.9  36.0904  0 i
 48.95  35.1608  0 i
 49  39.8307  0 i
 49.05  24.7451  0 i
 49.1  35.4762  0 i
 49.15  22.829  0 i
 49.2  30.8994  0 i
 49.25  36.447  0 i
 49.3  37.2103  0 i
 49.35  28.7045  0 i
 49.4  32.0405  0 i
 49.45  29.5772  0 i
 49.5  33.0698  0 i
 49.55  36.7907  0 i
 49.6  30.3071  0 i
 49.65  35.251  0 i
 49.7  43.449  0 i
 49.75  30.1394  0 i
 49.8  32.1524  0 i
 49.85  26.8313  0 i
 49.9  40.6037  0 i
 49.95  40.9709  0 i
 50  36.5474  0 i
 50.05  33.2117  0 i
 50.1  34.3083  0 i
 50.15  38.9525  0 i
 50.2  37.5137  0 i
 50.25  36.3642  0 i
 50.3  35.0441  0 i
 50.35  37.7486  0 i
 50.4  33.7457  0 i
 50.45  25.9737  0 i
 50.5  35.4996  0 i
 50.55  40.8062  0 i
 50.6  28.0663  0 i
 50.65  39.5696  0 i
 50.7  34.8086  0 i
 50.75  32.3789  0 i
 50.8  33.7564  0 i
 50.85  41.4466  0 i
 50.9  32.1841  0 i
 50.95  32.2672  0 i
 51  27.2894  0 i
 51.05  38.9603  0 i
 51.1  22.5101  0 i
 51.15  41.5365  0 i
 51.2  34.5367  0 i
 51.25  32.7209  0 i
 51.3  31.824  0 i
 51.35  45.1458  0 i
 51.4  28.4499  0 i
 51.45  38.315  0 i
 51.5  34.916  0 i
 51.55  33.6573  0 i
 51.6  38.7317  0 i
 51.65  33.2482  0 i
 51.7  29.1594  0 i
 51.75  32.0204  0 i
 51.8  36.0202  0 i
 51.85  34.9783  0 i
 51.9  27.989  0 i
 51.95  33.0581  0 i
 52  42.3078  0 i
 52.05  27.0542  0 i
 52.1  29.5396  0 i
 52.15  34.0016  0 i
 52.2  36.6493  0 i
 52.25  40.9802  0 i
 52.3  33.4633  0 i
 52.35  49.6605  0 i
 52.4  29.3747  0 i
 52.45  32.6186  0 i
 52.5  33.0447  0 i
 52.55  35.4856  0 i
 52.6  25.7222  0 i
 52.65  24.7881  0 i
 52.7  20.2447  0 i
 52.75  28.037  0 i
 52.8  28.2521  0 i
 52.85  26.1911  0 i
 52.9  37.2869  0 i
 52.95  27.7001  0 i
 53  41.703  0 i
 53.05  39.9531  0 i
 53.1  33.1325  0 i
 53.15  39.3509  0 i
 53.2  29.3148  0 i
 53.25  36.3291  0 i
 53.3  35.039  0 i
 53.35  35.6352  0 i
 53.4  35.6391  0 i
 53.45  38.0731  0 i
 53.5  38.0691  0 i
 53.55  35.6683  0 i
 53.6  27.891  0 i
 53.65  34.0293  0 i
 53.7  38.9839  0 i
 53.75  32.417  0 i
 53.8  31.5913  0 i
 53.85  33.6602  0 i
 53.9  41.6437  0 i
 53.95  33.6359  0 i
 54  30.1576  0 i
 54.05  27.5599  0 i
 54.1  30.3314  0 i
 54.15  37.1803  0 i
 54.2  28.679  0 i
 54.25  39.9351  0 i
 54.3  39.3882  0 i
 54.35  32.2101  0 i
 54.4  36.6363  0 i
 54.45  32.3733  0 i
 54.5  37.0008  0 i
 54.55  37.3489  0 i
 54.6  32.8088  0 i
 54.65  35.0163  0 i
 54.7  32.0844  0 i
 54.75  27.2189  0 i
 54.8  37.875  0 i
 54.85  28.5945  0 i
 54.9  25.3457  0 i
 54.95  29.8188  0 i
 55  36.5938  0 i
 55.05  31.2615  0 i
 55.1  38.7702  0 i
 55.15  31.8007  0 i
 55.2  36.5199  0 i
 55.25  39.2125  0 i
 55.3  34.486  0 i
 55.35  26.5704  0 i
 55.4  41.8745  0 i
 55.45  31.8642  0 i
 55.5  32.8611  0 i
 55.55  27.0834  0 i
 55.6  25.675  0 i
 55.65  25.1086  0 i
 55.7  26.8925  0 i
 55.75  27.3082  0 i
 55.8  22.5592  0 i
 55.85  33.5266  0 i
 55.9  29.1068  0 i
 55.95  27.8137  0 i
 56  30.9039  0 i
 56.05  29.2733  0 i
 56.1  27.9803  0 i
 56.15  30.5061  0 i
 56.2  29.5125  0 i
 56.25  32.3946  0 i
 56.3  28.1053  0 i
 56.35  41.0376  0 i
 56.4  31.8809  0 i
 56.45  19.4373  0 i
 56.5  37.5245  0 i
 56.55  33.4416  0 i
 56.6  30.5449  0 i
 56.65  27.2816  0 i
 56.7  33.1783  0 i
 56.75  30.0023  0 i
 56.8  37.2755  0 i
 56.85  32.608  0 i
 56.9  41.4916  0 i
 56.95  38.3499  0 i
 57  39.7727  0 i
 57.05  32.7522  0 i
 57.1  20.9818  0 i
 57.15  26.1614  0 i
 57.2  32.908  0 i
 57.25  27.3616  0 i
 57.3  29.6037  0 i
 57.35  26.1575  0 i
 57.4  30.6924  0 i
 57.45  34.8755  0 i
 57.5  30.5822  0 i
 57.55  37.6123  0 i
 57.6  20.0457  0 i
 57.65  31.4281  0 i
 57.7  30.4443  0 i
 57.75  28.4807  0 i
 57.8  29.5665  0 i
 57.85  28.3495  0 i
 57.9  30.8824  0 i
 57.95  33.4044  0 i
 58  43.4862  0 i
 58.05  21.4897  0 i
 58.1  32.1333  0 i
 58.15  32.1857  0 i
 58.2  37.2648  0 i
 58.25  47.7354  0 i
 58.3  39.3127  0 i
 58.35  24.2719  0 i
 58.4  28.3798  0 i
 58.45  39.303  0 i
 58.5  25.4413  0 i
 58.55  37.2817  0 i
 58.6  31.623  0 i
 58.65  26.8049  0 i
 58.7  37.7795  0 i
 58.75  33.7094  0 i
 58.8  24.9275  0 i
 58.85  28.695  0 i
 58.9  36.0759  0 i
 58.95  26.7019  0 i
 59  34.562  0 i
 59.05  26.0966  0 i
 59.1  20.7017  0 i
 59.15  27.5673  0 i
 59.2  20.5619  0 i
 59.25  27.6965  0 i
 59.3  52.1351  0 i
 59.35  29.2603  0 i
 59.4  29.405  0 i
 59.45  27.8213  0 i
 59.5  20.9011  0 i
 59.55  28.9492  0 i
 59.6  28.319  0 i
 59.65  31.9899  0 i
 59.7  33.2755  0 i
 59.75  27.005  0 i
 59.8  29.5781  0 i
 59.85  25.7679  0 i
 59.9  39.3067  0 i
 59.95  23.9375  0 i
 60  31.083  0 i
 60.05  22.36  0 i
 60.1  29.732  0 i
 60.15  37.3395  0 i
 60.2  36.4808  0 i
 60.25  25.6904  0 i
 60.3  27.6914  0 i
 60.35  17.5468  0 i
 60.4  28.8477  0 i
 60.45  30.6961  0 i
 60.5  28.835  0 i
 60.55  24.903  0 i
 60.6  24.1351  0 i
 60.65  29.1656  0 i
 60.7  29.6964  0 i
 60.75  26.5286  0 i
 60.8  27.5845  0 i
 60.85  17.7253  0 i
 60.9  33.1451  0 i
 60.95  39.8173  0 i
 61  28.5179  0 i
 61.05  43.0351  0 i
 61.1  30.6754  0 i
 61.15  29.3663  0 i
 61.2  40.018  0 i
 61.25  22.5616  0 i
 61.3  35.8428  0 i
 61.35  36.9303  0 i
 61.4  40.3124  0 i
 61.45  29.0956  0 i
 61.5  30.6671  0 i
 61.55  31.5976  0 i
 61.6  34.4854  0 i
 61.65  28.7133  0 i
 61.7  30.0335  0 i
 61.75  22.7497  0 i
 61.8  38.6123  0 i
 61.85  31.705  0 i
 61.9  23.6412  0 i
 61.95  25.5706  0 i
 62  29.8266  0 i
 62.05  29.3336  0 i
 62.1  34.3065  0 i
 62.15  33.833  0 i
 62.2  26.0043  0 i
 62.25  31.2851  0 i
 62.3  41.4682  0 i
 62.35  34.7207  0 i
 62.4  27.8171  0 i
 62.45  34.6244  0 i
 62.5  33.8168  0 i
 62.55  24.8065  0 i
 62.6  21.5818  0 i
 62.65  33.0975  0 i
 62.7  28.523  0 i
 62.75  29.6483  0 i
 62.8  27.8973  0 i
 62.85  36.6788  0 i
 62.9  39.403  0 i
 62.95  29.6269  0 i
 63  31.9304  0 i
 63.05  39.0225  0 i
 63.1  31.859  0 i
 63.15  32.0301  0 i
 63.2  37.5984  0 i
 63.25  31.6945  0 i
 63.3  29.7463  0 i
 63.35  31.2258  0 i
 63.4  40.0787  0 i
 63.45  27.3531  0 i
 63.5  35.0951  0 i
 63.55  33.1138  0 i
 63.6  34.95  0 i
 63.65  25.1432  0 i
 63.7  36.8243  0 i
 63.75  38.8486  0 i
 63.8  40.3723  0 i
 63.85  40.3113  0 i
 63.9  29.9863  0 i
 63.95  31.2122  0 i
 64  33.18  0 i
 64.05  26.894  0 i
 64.1  29.7685  0 i
 64.15  32.7874  0 i
 64.2  27.553  0 i
 64.25  43.9719  0 i
 64.3  37.8119  0 i
 64.35  31.9206  0 i
 64.4  41.1538  0 i
 64.45  44.4943  0 i
 64.5  53.6682  0 i
 64.55  70.3107  0 i
 64.6  101.215  0 i
 64.65  161.284  0 i
 64.7  152.18  0 i
 64.75  145.017  0 i
 64.8  91.4009  0 i
 64.85  67.6904  0 i
 64.9  48.715  0 i
 64.95  43.434  0 i
 65  47.8941  0 i
 65.05  42.6301  0 i
 65.1  31.5609  0 i
 65.15  31.0117  0 i
 65.2  40.1495  0 i
 65.25  29.4269  0 i
 65.3  30.2427  0 i
 65.35  24.1989  0 i
 65.4  35.7949  0 i
 65.45  35.5416  0 i
 65.5  15.2987  0 i
 65.55  35.5397  0 i
 65.6  24.2123  0 i
 65.65  35.9933  0 i
 65.7  37.844  0 i
 65.75  27.0976  0 i
 65.8  29.1477  0 i
 65.85  29.7334  0 i
 65.9  33.6043  0 i
 65.95  30.2163  0 i
 66  36.2093  0 i
 66.05  40.7868  0 i
 66.1  27.4944  0 i
 66.15  33.0093  0 i
 66.2  42.5533  0 i
 66.25  35.9382  0 i
 66.3  41.0346  0 i
 66.35  33.6632  0 i
 66.4  38.874  0 i
 66.45  27.6227  0 i
 66.5  29.5575  0 i
 66.55  34.5504  0 i
 66.6  27.9645  0 i
 66.65  32.7149  0 i
 66.7  26.2858  0 i
 66.75  29.3995  0 i
 66.8  35.2178  0 i
 66.85  28.9971  0 i
 66.9  28.7325  0 i
 66.95  30.004  0 i
 67  21.1463  0 i
 67.05  24.9481  0 i
 67.1  24.2119  0 i
 67.15  32.2122  0 i
 67.2  35.4088  0 i
 67.25  47.3248  0 i
 67.3  33.0408  0 i
 67.35  29.3479  0 i
 67.4  35.6806  0 i
 67.45  24.5815  0 i
 67.5  32.4647  0 i
 67.55  32.4342  0 i
 67.6  52.0555  0 i
 67.65  40.0934  0 i
 67.7  36.0923  0 i
 67.75  32.5754  0 i
 67.8  36.0751  0 i
 67.85  30.7818  0 i
 67.9  27.154  0 i
 67.95  35.7313  0 i
 68  34.5959  0 i
 68.05  16.0903  0 i
 68.1  31.6765  0 i
 68.15  29.4194  0 i
 68.2  30.4017  0 i
 68.25  24.8314  0 i
 68.3  35.9868  0 i
 68.35  19.0532  0 i
 68.4  21.3011  0 i
 68.45  27.4981  0 i
 68.5  27.4524  0 i
 68.55  21.4911  0 i
 68.6  22.1519  0 i
 68.65  29.4297  0 i
 68.7  36.7044  0 i
 68.75  35.3491  0 i
 68.8  23.9155  0 i
 68.85  22.4371  0 i
 68.9  27.4006  0 i
 68.95  27.154  0 i
 69  29.4419  0 i
 69.05  28.8396  0 i
 69.1  35.256  0 i
 69.15  30.5063  0 i
 69.2  40.6858  0 i
 69.25  37.457  0 i
 69.3  21.4506  0 i
 69.35  27.1262  0 i
 69.4  30.5798  0 i
 69.45  32.2863  0 i
 69.5  30.6601  0 i
 69.55  30.2297  0 i
 69.6  24.1624  0 i
 69.65  34.9704  0 i
 69.7  23.2541  0 i
 69.75  37.1683  0 i
 69.8  43.642  0 i
 69.85  32.3296  0 i
 69.9  35.7704  0 i
 69.95  24.7697  0 i
 70  42.3662  0 i
 70.05  34.5202  0 i
 70.1  22.9084  0 i
 70.15  29.1507  0 i
 70.2  32.7094  0 i
 70.25  25.1917  0 i
 70.3  31.6528  0 i
 70.35  28.4505  0 i
 70.4  29.4579  0 i
 70.45  28.5341  0 i
 70.5  34.7189  0 i
 70.55  26.0791  0 i
 70.6  35.0964  0 i
 70.65  34.7189  0 i
 70.7  37.0092  0 i
 70.75  24.0995  0 i
 70.8  33.1154  0 i
 70.85  32.5959  0 i
 70.9  33.7528  0 i
 70.95  36.3667  0 i
 71  33.4806  0 i
 71.05  30.4972  0 i
 71.1  24.9591  0 i
 71.15  30.9093  0 i
 71.2  27.6048  0 i
 71.25  34.2678  0 i
 71.3  23.343  0 i
 71.35  29.9978  0 i
 71.4  32.2689  0 i
 71.45  38.7864  0 i
 71.5  18.8412  0 i
 71.55  29.2584  0 i
 71.6  32.4485  0 i
 71.65  31.723  0 i
 71.7  29.1571  0 i
 71.75  31.9889  0 i
 71.8  36.8413  0 i
 71.85  33.891  0 i
 71.9  28.7348  0 i
 71.95  26.2451  0 i
 72  30.7525  0 i
 72.05  39.0281  0 i
 72.1  38.719  0 i
 72.15  24.9493  0 i
 72.2  26.5703  0 i
 72.25  32.8791  0 i
 72.3  25.419  0 i
 72.35  29.1741  0 i
 72.4  32.9476  0 i
 72.45  19.7392  0 i
 72.5  35.2303  0 i
 72.55  26.6892  0 i
 72.6  33.828  0 i
 72.65  32.0029  0 i
 72.7  32.5252  0 i
 72.75  38.9747  0 i
 72.8  28.2365  0 i
 72.85  33.4134  0 i
 72.9  33.9068  0 i
 72.95  31.4608  0 i
 73  33.6701  0 i
 73.05  22.4278  0 i
 73.1  35.7511  0 i
 73.15  25.112  0 i
 73.2  31.1438  0 i
 73.25  38.3015  0 i
 73.3  26.6604  0 i
 73.35  42.3035  0 i
 73.4  32.8453  0 i
 73.45  39.3418  0 i
 73.5  32.9992  0 i
 73.55  30.259  0 i
 73.6  27.2226  0 i
 73.65  28.7254  0 i
 73.7  33.5392  0 i
 73.75  30.064  0 i
 73.8  23.285  0 i
 73.85  28.6706  0 i
 73.9  31.4876  0 i
 73.95  30.3957  0 i
 74  40.1763  0 i
 74.05  27.0708  0 i
 74.1  41.378  0 i
 74.15  19.6582  0 i
 74.2  41.2442  0 i
 74.25  26.2851  0 i
 74.3  24.9092  0 i
 74.35  40.741  0 i
 74.4  47.436  0 i
 74.45  40.2502  0 i
 74.5  31.6555  0 i
 74.55  42.7271  0 i
 74.6  27.5514  0 i
 74.65  32.8221  0 i
 74.7  26.5583  0 i
 74.75  39.926  0 i
 74.8  30.7992  0 i
 74.85  43.944  0 i
 74.9  30.7183  0 i
 74.95  29.3918  0 i
 75  25.7884  0 i
 75.05  30.1428  0 i
 75.1  33.9139  0 i
 75.15  28.8188  0 i
 75.2  34.3674  0 i
 75.25  24.3849  0 i
 75.3  37.2925  0 i
 75.35  45.8498  0 i
 75.4  27.2113  0 i
 75.45  36.6507  0 i
 75.5  29.1667  0 i
 75.55  29.403  0 i
 75.6  28.2573  0 i
 75.65  30.2722  0 i
 75.7  41.7231  0 i
 75.75  38.602  0 i
 75.8  26.688  0 i
 75.85  37.6142  0 i
 75.9  34.8978  0 i
 75.95  24.2741  0 i
 76  38.3557  0 i
 76.05  38.747  0 i
 76.1  38.9874  0 i
 76.15  21.0911  0 i
 76.2  22.4215  0 i
 76.25  20.8457  0 i
 76.3  28.4667  0 i
 76.35  24.845  0 i
 76.4  23.3112  0 i
 76.45  26.512  0 i
 76.5  30.2398  0 i
 76.55  38.8321  0 i
 76.6  25.963  0 i
 76.65  29.5418  0 i
 76.7  33.3934  0 i
 76.75  34.1158  0 i
 76.8  30.6109  0 i
 76.85  25.9374  0 i
 76.9  33.6429  0 i
 76.95  33.6913  0 i
 77  17.9526  0 i
 77.05  30.1247  0 i
 77.1  23.5533  0 i
 77.15  26.5114  0 i
 77.2  34.7823  0 i
 77.25  30.4538  0 i
 77.3  31.9325  0 i
 77.35  43.185  0 i
 77.4  31.5092  0 i
 77.45  35.419  0 i
 77.5  26.8201  0 i
 77.55  31.1592  0 i
 77.6  28.7234  0 i
 77.65  20.9926  0 i
 77.7  30.5353  0 i
 77.75  36.2728  0 i
 77.8  35.1788  0 i
 77.85  27.368  0 i
 77.9  33.3652  0 i
 77.95  16.6718  0 i
 78  22.9937  0 i
 78.05  20.9666  0 i
 78.1  31.7287  0 i
 78.15  28.0997  0 i
 78.2  37.4395  0 i
 78.25  22.892  0 i
 78.3  39.9624  0 i
 78.35  27.0878  0 i
 78.4  35.4631  0 i
 78.45  38.5701  0 i
 78.5  25.1266  0 i
 78.55  37.7709  0 i
 78.6  33.283  0 i
 78.65  29.2727  0 i
 78.7  28.9783  0 i
 78.75  26.6847  0 i
 78.8  30.7875  0 i
 78.85  31.1914  0 i
 78.9  35.1282  0 i
 78.95  27.8802  0 i
 79  40.4156  0 i
 79.05  36.5456  0 i
 79.1  28.3923  0 i
 79.15  26.9769  0 i
 79.2  28.3561  0 i
 79.25  34.367  0 i
 79.3  15.408  0 i
 79.35  27.0734  0 i
 79.4  29.3442  0 i
 79.45  29.2739  0 i
 79.5  31.3454  0 i
 79.55  26.2304  0 i
 79.6  23.2186  0 i
 79.65  34.5179  0 i
 79.7  26.1937  0 i
 79.75  32.4821  0 i
 79.8  27.9578  0 i
 79.85  39.2007  0 i
 79.9  26.8816  0 i
 79.95  22.9174  0 i
 80  36.8164  0 i
 80.05  41.041  0 i
 80.1  22.2763  0 i
 80.15  23.7243  0 i
 80.2  36.2101  0 i
 80.25  27.7973  0 i
 80.3  20.498  0 i
 80.35  26.6404  0 i
 80.4  33.7627  0 i
 80.45  33.5821  0 i
 80.5  31.8465  0 i
 80.55  21.1537  0 i
 80.6  26.0612  0 i
 80.65  26.2841  0 i
 80.7  31.8084  0 i
 80.75  41.1236  0 i
 80.8  31.3995  0 i
 80.85  41.5061  0 i
 80.9  34.9168  0 i
 80.95  30.6578  0 i
 81  27.8349  0 i
 81.05  26.8505  0 i
 81.1  30.2341  0 i
 81.15  34.1535  0 i
 81.2  33.0119  0 i
 81.25  32.1712  0 i
 81.3  28.3378  0 i
 81.35  29.9815  0 i
 81.4  29.1783  0 i
 81.45  28.6301  0 i
 81.5  32.4447  0 i
 81.55  44.8561  0 i
 81.6  23.7757  0 i
 81.65  36.5312  0 i
 81.7  39.5212  0 i
 81.75  77.8884  0 i
 81.8  66.4097  0 i
 81.85  97.7142  0 i
 81.9  178.652  0 i
 81.95  280.088  0 i
 82  297.983  0 i
 82.05  205.7  0 i
 82.1  100.533  0 i
 82.15  81.545  0 i
 82.2  50.3048  0 i
 82.25  62.0745  0 i
 82.3  37.3817  0 i
 82.35  41.2986  0 i
 82.4  44.3043  0 i
 82.45  30.0283  0 i
 82.5  30.1754  0 i
 82.55  25.7114  0 i
 82.6  32.3801  0 i
 82.65  36.7494  0 i
 82.7  33.5262  0 i
 82.75  26.2318  0 i
 82.8  28.807  0 i
 82.85  27.2346  0 i
 82.9  42.9463  0 i
 82.95  41.3798  0 i
 83  33.2989  0 i
 83.05  23.9314  0 i
 83.1  18.1492  0 i
 83.15  29.8017  0 i
 83.2  36.2133  0 i
 83.25  28.5528  0 i
 83.3  38.4532  0 i
 83.35  35.5367  0 i
 83.4  36.6428  0 i
 83.45  26.51  0 i
 83.5  29.9339  0 i
 83.55  28.2067  0 i
 83.6  39.5455  0 i
 83.65  36.8709  0 i
 83.7  38.4092  0 i
 83.75  44.6233  0 i
 83.8  29.8943  0 i
 83.85  37.1807  0 i
 83.9  26.6436  0 i
 83.95  34.5301  0 i
 84  22.8906  0 i
 84.05  30.4326  0 i
 84.1  31.0156  0 i
 84.15  30.9563  0 i
 84.2  37.7038  0 i
 84.25  21.4601  0 i
 84.3  26.7768  0 i
 84.35  28.6823  0 i
 84.4  35.0624  0 i
 84.45  21.7073  0 i
 84.5  27.7649  0 i
 84.55  20.4573  0 i
 84.6  22.1538  0 i
 84.65  25.8712  0 i
 84.7  34.3272  0 i
 84.75  36.0844  0 i
 84.8  35.6653  0 i
 84.85  30.8343  0 i
 84.9  20.3666  0 i
 84.95  30.5019  0 i
 85  30.2237  0 i
 85.05  32.8324  0 i
 85.1  27.0546  0 i
 85.15  27.389  0 i
 85.2  29.6549  0 i
 85.25  35.4097  0 i
 85.3  35.367  0 i
 85.35  25.5553  0 i
 85.4  23.3537  0 i
 85.45  30.7952  0 i
 85.5  26.2941  0 i
 85.55  28.4006  0 i
 85.6  40.977  0 i
 85.65  33.2127  0 i
 85.7  28.8911  0 i
 85.75  30.3933  0 i
 85.8  35.0311  0 i
 85.85  36.5305  0 i
 85.9  33.1981  0 i
 85.95  28.623  0 i
 86  15.5545  0 i
 86.05  25.6709  0 i
 86.1  31.0199  0 i
 86.15  33.5417  0 i
 86.2  31.1588  0 i
 86.25  28.0825  0 i
 86.3  32.1211  0 i
 86.35  21.9624  0 i
 86.4  32.8254  0 i
 86.45  22.4422  0 i
 86.5  32.2887  0 i
 86.55  36.8297  0 i
 86.6  28.5462  0 i
 86.65  32.2873  0 i
 86.7  27.1102  0 i
 86.75  24.5577  0 i
 86.8  35.0041  0 i
 86.85  28.8661  0 i
 86.9  38.2874  0 i
 86.95  22.8181  0 i
 87  40.5089  0 i
 87.05  33.2367  0 i
 87.1  36.6552  0 i
 87.15  38.3267  0 i
 87.2  35.7425  0 i
 87.25  27.6361  0 i
 87.3  27.4296  0 i
 87.35  37.7341  0 i
 87.4  24.4621  0 i
 87.45  27.3002  0 i
 87.5  33.8027  0 i
 87.55  36.2098  0 i
 87.6  27.5858  0 i
 87.65  22.835  0 i
 87.7  30.8932  0 i
 87.75  23.7263  0 i
 87.8  29.3164  0 i
 87.85  28.4941  0 i
 87.9  32.1337  0 i
 87.95  33.7862  0 i
 88  28.9817  0 i
 88.05  20.7561  0 i
 88.1  30.7884  0 i
 88.15  35.9974  0 i
 88.2  24.955  0 i
 88.25  40.6492  0 i
 88.3  33.222  0 i
 88.35  24.9771  0 i
 88.4  22.9064  0 i
 88.45  33.2597  0 i
 88.5  29.5962  0 i
 88.55  20.1854  0 i
 88.6  22.6446  0 i
 88.65  24.2853  0 i
 88.7  25.5227  0 i
 88.75  30.4648  0 i
 88.8  31.4182  0 i
 88.85  30.2531  0 i
 88.9  31.6614  0 i
 88.95  24.0846  0 i
 89  20.8026  0 i
 89.05  28.4408  0 i
 89.1  34.3159  0 i
 89.15  32.4388  0 i
 89.2  22.222  0 i
 89.25  25.7047  0 i
 89.3  30.858  0 i
 89.35  23.9226  0 i
 89.4  22.9322  0 i
 89.45  32.0249  0 i
 89.5  28.3054  0 i
 89.55  26.3803  0 i
 89.6  34.0996  0 i
 89.65  28.6845  0 i
 89.7  29.0247  0 i
 89.75  29.8472  0 i
 89.8  33.4955  0 i
 89.85  34.2398  0 i
 89.9  34.3302  0 i
 89.95  30.4983  0 i
 90  29.868  0 i
 90.05  31.0379  0 i
 90.1  30.0036  0 i
 90.15  27.2616  0 i
 90.2  31.6197  0 i
 90.25  37.6669  0 i
 90.3  29.7249  0 i
 90.35  33.6699  0 i
 90.4  34.4681  0 i
 90.45  34.6334  0 i
 90.5  31.9781  0 i
 90.55  28.4356  0 i
 90.6  33.5837  0 i
 90.65  31.9655  0 i
 90.7  32.6364  0 i
 90.75  28.4992  0 i
 90.8  29.3747  0 i
 90.85  32.403  0 i
 90.9  31.0719  0 i
 90.95  32.5829  0 i
 91  25.3472  0 i
 91.05  20.8252  0 i
 91.1  23.9103  0 i
 91.15  23.9238  0 i
 91.2  36.1417  0 i
 91.25  38.5333  0 i
 91.3  22.0401  0 i
 91.35  42.6481  0 i
 91.4  34.3446  0 i
 91.45  33.1947  0 i
 91.5  23.3528  0 i
 91.55  27.9171  0 i
 91.6  21.3731  0 i
 91.65  29.9478  0 i
 91.7  36.2373  0 i
 91.75  25.9827  0 i
 91.8  40.3239  0 i
 91.85  32.3604  0 i
 91.9  24.5009  0 i
 91.95  27.9132  0 i
 92  28.8659  0 i
 92.05  36.089  0 i
 92.1  34.3013  0 i
 92.15  34.456  0 i
 92.2  42.8503  0 i
 92.25  29.1375  0 i
 92.3  27.5988  0 i
 92.35  29.7882  0 i
 92.4  26.4789  0 i
 92.45  32.0282  0 i
 92.5  24.3771  0 i
 92.55  24.7611  0 i
 92.6  27.3878  0 i
 92.65  34.1979  0 i
 92.7  29.4969  0 i
 92.75  35.8949  0 i
 92.8  25.5613  0 i
 92.85  31.5666  0 i
 92.9  33.591  0 i
 92.95  28.1688  0 i
 93  32.588  0 i
 93.05  35.493  0 i
 93.1  33.627  0 i
 93.15  36.3149  0 i
 93.2  24.4384  0 i
 93.25  34.8073  0 i
 93.3  15.6122  0 i
 93.35  37.6295  0 i
 93.4  31.3367  0 i
 93.45  28.14  0 i
 93.5  33.456  0 i
 93.55  27.2819  0 i
 93.6  36.5053  0 i
 93.65  34.2656  0 i
 93.7  34.9311  0 i
 93.75  39.3918  0 i
 93.8  33.7533  0 i
 93.85  37.1142  0 i
 93.9  33.2452  0 i
 93.95  31.291  0 i
 94  28.0788  0 i
 94.05  16.9202  0 i
 94.1  21.5606  0 i
 94.15  25.5842  0 i
 94.2  38.47  0 i
 94.25  35.0677  0 i
 94.3  34.3954  0 i
 94.35  34.41  0 i
 94.4  37.7108  0 i
 94.45  32.3426  0 i
 94.5  23.9617  0 i
 94.55  39.8542  0 i
 94.6  30.479  0 i
 94.65  24.7407  0 i
 94.7  26.5062  0 i
 94.75  23.997  0 i
 94.8  24.7055  0 i
 94.85  29.3363  0 i
 94.9  28.5248  0 i
 94.95  25.3709  0 i
 95  22.2409  0 i
 95.05  29.7838  0 i
 95.1  32.6779  0 i
 95.15  23.8977  0 i
 95.2  29.9881  0 i
 95.25  31.3121  0 i
 95.3  28.708  0 i
 95.35  25.8792  0 i
 95.4  22.1122  0 i
 95.45  30.1756  0 i
 95.5  34.877  0 i
 95.55  27.3719  0 i
 95.6  40.7941  0 i
 95.65  31.5443  0 i
 95.7  37.7212  0 i
 95.75  37.696  0 i
 95.8  30.4948  0 i
 95.85  44.3917  0 i
 95.9  34.82  0 i
 95.95  33.3188  0 i
 96  32.2193  0 i
 96.05  35.9801  0 i
 96.1  28.9889  0 i
 96.15  33.5501  0 i
 96.2  24.1779  0 i
 96.25  31.3483  0 i
 96.3  32.669  0 i
 96.35  23.6492  0 i
 96.4  28.8105  0 i
 96.45  30.6403  0 i
 96.5  25.1152  0 i
 96.55  24.4591  0 i
 96.6  30.0815  0 i
 96.65  24.1376  0 i
 96.7  32.9554  0 i
 96.75  32.8681  0 i
 96.8  21.6841  0 i
 96.85  15.3083  0 i
 96.9  35.3674  0 i
 96.95  21.3181  0 i
 97  29.6029  0 i
 97.05  26.9952  0 i
 97.1  29.4283  0 i
 97.15  41.2679  0 i
 97.2  29.0666  0 i
 97.25  22.8579  0 i
 97.3  21.0632  0 i
 97.35  34.1288  0 i
 97.4  28.7735  0 i
 97.45  33.9974  0 i
 97.5  30.6989  0 i
 97.55  37.9998  0 i
 97.6  37.1901  0 i
 97.65  26.6001  0 i
 97.7  25.9304  0 i
 97.75  29.5482  0 i
 97.8  33.9833  0 i
 97.85  37.3453  0 i
 97.9  31.8747  0 i
 97.95  26.9319  0 i
 98  24.3487  0 i
 98.05  31.7053  0 i
 98.1  39.4242  0 i
 98.15  39.6395  0 i
 98.2  40.0685  0 i
 98.25  33.5957  0 i
 98.3  44.3862  0 i
 98.35  54.4682  0 i
 98.4  80.7914  0 i
 98.45  119.816  0 i
 98.5  144.554  0 i
 98.55  150.801  0 i
 98.6  139.028  0 i
 98.65  80.296  0 i
 98.7  78.3207  0 i
 98.75  64.3961  0 i
 98.8  40.6836  0 i
 98.85  37.2095  0 i
 98.9  34.6545  0 i
 98.95  36.391  0 i
 99  38.9058  0 i
 99.05  40.8278  0 i
 99.1  26.1772  0 i
 99.15  33.8828  0 i
 99.2  35.8659  0 i
 99.25  37.6146  0 i
 99.3  36.3391  0 i
 99.35  38.2287  0 i
 99.4  16.5659  0 i
 99.45  31.9285  0 i
 99.5  36.1881  0 i
 99.55  26.5595  0 i
 99.6  35.1451  0 i
 99.65  31.7936  0 i
 99.7  24.7683  0 i
 99.75  28.5894  0 i
 99.8  25.2362  0 i
 99.85  26.9339  0 i
 99.9  39.171  0 i
 99.95  32.0094  0 i
 100  33.6617  0 i
 100.05  23.3209  0 i
 100.1  22.9957  0 i
 100.15  27.1254  0 i
 100.2  29.3066  0 i
 100.25  34.3458  0 i
 100.3  24.8765  0 i
 100.35  33.0381  0 i
 100.4  25.686  0 i
 100.45  28.7071  0 i
 100.5  27.2262  0 i
 100.55  31.896  0 i
 100.6  20.3541  0 i
 100.65  18.2774  0 i
 100.7  18.3308  0 i
 100.75  36.0629  0 i
 100.8  26.6615  0 i
 100.85  31.4241  0 i
 100.9  36.0439  0 i
 100.95  25.9136  0 i
 101  29.1272  0 i
 101.05  34.3239  0 i
 101.1  29.5973  0 i
 101.15  22.8736  0 i
 101.2  28.1862  0 i
 101.25  35.3881  0 i
 101.3  30.3478  0 i
 101.35  27.3036  0 i
 101.4  29.0201  0 i
 101.45  25.805  0 i
 101.5  22.2216  0 i
 101.55  26.3746  0 i
 101.6  36.5799  0 i
 101.65  32.692  0 i
 101.7  30.8289  0 i
 101.75  23.5058  0 i
 101.8  30.0023  0 i
 101.85  29.0844  0 i
 101.9  25.8265  0 i
 101.95  33.9389  0 i
 102  26.1088  0 i
 102.05  36.6968  0 i
 102.1  36.8185  0 i
 102.15  26.8403  0 i
 102.2  19.1762  0 i
 102.25  35.8353  0 i
 102.3  25.011  0 i
 102.35  31.4352  0 i
 102.4  28.8243  0 i
 102.45  36.3511  0 i
 102.5  31.5764  0 i
 102.55  29.854  0 i
 102.6  30.4423  0 i
 102.65  23.7296  0 i
 102.7  34.6183  0 i
 102.75  34.4822  0 i
 102.8  35.9369  0 i
 102.85  35.5646  0 i
 102.9  24.7225  0 i
 102.95  35.8601  0 i
 103  30.3269  0 i
 103.05  25.2266  0 i
 103.1  27.7766  0 i
 103.15  31.1154  0 i
 103.2  23.5914  0 i
 103.25  29.6859  0 i
 103.3  25.6663  0 i
 103.35  34.306  0 i
 103.4  33.6413  0 i
 103.45  28.949  0 i
 103.5  32.3811  0 i
 103.55  33.8263  0 i
 103.6  20.8126  0 i
 103.65  30.9581  0 i
 103.7  33.9166  0 i
 103.75  21.4705  0 i
 103.8  37.6565  0 i
 103.85  45.3619  0 i
 103.9  28.8875  0 i
 103.95  36.4863  0 i
 104  40.6467  0 i
 104.05  28.7168  0 i
 104.1  34.0173  0 i
 104.15  31.3024  0 i
 104.2  32.8375  0 i
 104.25  42.871  0 i
 104.3  25.0257  0 i
 104.35  24.3852  0 i
 104.4  28.7816  0 i
 104.45  31.4054  0 i
 104.5  35.2674  0 i
 104.55  28.7868  0 i
 104.6  37.0453  0 i
 104.65  30.2463  0 i
 104.7  21.9977  0 i
 104.75  32.9581  0 i
 104.8  24.3462  0 i
 104.85  32.1886  0 i
 104.9  30.1178  0 i
 104.95  40.9147  0 i
 105  25.7747  0 i
 105.05  30.2993  0 i
 105.1  34.2788  0 i
 105.15  26.7401  0 i
 105.2  29.5631  0 i
 105.25  28.923  0 i
 105.3  27.8002  0 i
 105.35  30.1765  0 i
 105.4  28.1557  0 i
 105.45  26.388  0 i
 105.5  24.5072  0 i
 105.55  25.938  0 i
 105.6  26.6335  0 i
 105.65  27.5912  0 i
 105.7  27.4482  0 i
 105.75  21.3527  0 i
 105.8  39.7532  0 i
 105.85  36.0104  0 i
 105.9  32.3436  0 i
 105.95  30.2701  0 i
 106  27.4677  0 i
 106.05  32.6167  0 i
 106.1  27.548  0 i
 106.15  33.4831  0 i
 106.2  42.2968  0 i
 106.25  26.5594  0 i
 106.3  32.0854  0 i
 106.35  30.3475  0 i
 106.4  21.1393  0 i
 106.45  28.696  0 i
 106.5  42.7079  0 i
 106.55  22.7089  0 i
 106.6  26.7505  0 i
 106.65  24.3455  0 i
 106.7  28.0943  0 i
 106.75  31.9533  0 i
 106.8  22.6426  0 i
 106.85  33.1135  0 i
 106.9  32.5386  0 i
 106.95  25.4616  0 i
 107  32.5372  0 i
 107.05  39.5654  0 i
 107.1  34.9297  0 i
 107.15  21.3573  0 i
 107.2  37.7089  0 i
 107.25  32.705  0 i
 107.3  32.7412  0 i
 107.35  27.0235  0 i
 107.4  26.8162  0 i
 107.45  35.4151  0 i
 107.5  24.8305  0 i
 107.55  33.4024  0 i
 107.6  33.9095  0 i
 107.65  34.2868  0 i
 107.7  31.9864  0 i
 107.75  28.5739  0 i
 107.8  26.4324  0 i
 107.85  22.1838  0 i
 107.9  23.5041  0 i
 107.95  27.7639  0 i
 108  44.1722  0 i
 108.05  26.2354  0 i
 108.1  30.7879  0 i
 108.15  30.3615  0 i
 108.2  28.4532  0 i
 108.25  30.389  0 i
 108.3  37.0424  0 i
 108.35  24.9821  0 i
 108.4  31.6447  0 i
 108.45  27.807  0 i
 108.5  33.8274  0 i
 108.55  21.447  0 i
 108.6  21.8333  0 i
 108.65  27.5119  0 i
 108.7  22.9986  0 i
 108.75  33.635  0 i
 108.8  30.1283  0 i
 108.85  27.3853  0 i
 108.9  23.0018  0 i
 108.95  21.2261  0 i
 109  29.8864  0 i
 109.05  31.9141  0 i
 109.1  25.7662  0 i
 109.15  33.5219  0 i
 109.2  30.2357  0 i
 109.25  33.1022  0 i
 109.3  24.6179  0 i
 109.35  29.9755  0 i
 109.4  33.5836  0 i
 109.45  31.0872  0 i
 109.5  26.0149  0 i
 109.55  24.9719  0 i
 109.6  25.0298  0 i
 109.65  38.1575  0 i
 109.7  36.6995  0 i
 109.75  33.5487  0 i
 109.8  26.5112  0 i
 109.85  26.4964  0 i
 109.9  42.1169  0 i
 109.95  25.233  0 i
 110  30.0562  0 i
 110.05  31.0722  0 i
 110.1  34.0195  0 i
 110.15  29.3118  0 i
 110.2  30.5444  0 i
 110.25  27.7464  0 i
 110.3  29.832  0 i
 110.35  20.3679  0 i
 110.4  34.1551  0 i
 110.45  41.9156  0 i
 110.5  38.2094  0 i
 110.55  36.1789  0 i
 110.6  26.7869  0 i
 110.65  25.3266  0 i
 110.7  34.4288  0 i
 110.75  36.1738  0 i
 110.8  36.8099  0 i
 110.85  35.5633  0 i
 110.9  27.8281  0 i
 110.95  20.9888  0 i
 111  26.6921  0 i
 111.05  31.8291  0 i
 111.1  28.6747  0 i
 111.15  42.8061  0 i
 111.2  25.7511  0 i
 111.25  39.5797  0 i
 111.3  32.8207  0 i
 111.35  35.8024  0 i
 111.4  35.0547  0 i
 111.45  27.1214  0 i
 111.5  32.2054  0 i
 111.55  26.6982  0 i
 111.6  26.6481  0 i
 111.65  30.4403  0 i
 111.7  30.2173  0 i
 111.75  16.7815  0 i
 111.8  24.6686  0 i
 111.85  34.8832  0 i
 111.9  28.1055  0 i
 111.95  33.5612  0 i
 112  32.3992  0 i
 112.05  28.6124  0 i
 112.1  26.8406  0 i
 112.15  24.7237  0 i
 112.2  22.0654  0 i
 112.25  25.5362  0 i
 112.3  31.1796  0 i
 112.35  33.104  0 i
 112.4  27.8585  0 i
 112.45  33.1683  0 i
 112.5  32.4285  0 i
 112.55  29.7537  0 i
 112.6  22.3345  0 i
 112.65  27.6598  0 i
 112.7  35.5663  0 i
 112.75  24.0074  0 i
 112.8  35.1373  0 i
 112.85  27.227  0 i
 112.9  34.2313  0 i
 112.95  20.5109  0 i
 113  29.8921  0 i
 113.05  28.4751  0 i
 113.1  40.8473  0 i
 113.15  30.0813  0 i
 113.2  28.257  0 i
 113.25  30.2049  0 i
 113.3  29.3832  0 i
 113.35  32.9591  0 i
 113.4  21.8912  0 i
 113.45  29.088  0 i
 113.5  29.2472  0 i
 113.55  36.1024  0 i
 113.6  34.4965  0 i
 113.65  23.0628  0 i
 113.7  40.6601  0 i
 113.75  31.5784  0 i
 113.8  28.208  0 i
 113.85  22.5135  0 i
 113.9  40.1167  0 i
 113.95  41.0666  0 i
 114  36.6637  0 i
 114.05  20.8313  0 i
 114.1  26.9697  0 i
 114.15  35.3713  0 i
 114.2  41.236  0 i
 114.25  26.4988  0 i
 114.3  28.3751  0 i
 114.35  23.4565  0 i
 114.4  21.8185  0 i
 114.45  18.2661  0 i
 114.5  32.9537  0 i
 114.55  26.9589  0 i
 114.6  26.0057  0 i
 114.65  27.0014  0 i
 114.7  32.7466  0 i
 114.75  29.5944  0 i
 114.8  31.2453  0 i
 114.85  29.7778  0 i
 114.9  36.2542  0 i
 114.95  23.2886  0 i
 115  24.9812  0 i
 115.05  39.6123  0 i
 115.1  29.2937  0 i
 115.15  41.8608  0 i
 115.2  31.6517  0 i
 115.25  33.5786  0 i
 115.3  27.7257  0 i
 115.35  41.7922  0 i
 115.4  26.7146  0 i
 115.45  30.5797  0 i
 115.5  51.2944  0 i
 115.55  44.0884  0 i
 115.6  48.7611  0 i
 115.65  49.3105  0 i
 115.7  63.119  0 i
 115.75  53.6136  0 i
 115.8  75.0127  0 i
 115.85  105.921  0 i
 115.9  95.7115  0 i
 115.95  103.709  0 i
 116  100.659  0 i
 116.05  93.3354  0 i
 116.1  74.6314  0 i
 116.15  57.9804  0 i
 116.2  61.1814  0 i
 116.25  41.205  0 i
 116.3  37.075  0 i
 116.35  50.2609  0 i
 116.4  28.018  0 i
 116.45  39.873  0 i
 116.5  37.2158  0 i
 116.55  40.8041  0 i
 116.6  28.8146  0 i
 116.65  24.2992  0 i
 116.7  24.4848  0 i
 116.75  17.7031  0 i
 116.8  28.861  0 i
 116.85  25.2603  0 i
 116.9  32.5385  0 i
 116.95  26.4463  0 i
 117  36.3728  0 i
 117.05  27.7132  0 i
 117.1  28.8391  0 i
 117.15  22.2472  0 i
 117.2  26.7998  0 i
 117.25  32.8416  0 i
 117.3  30.5912  0 i
 117.35  28.2359  0 i
 117.4  27.4255  0 i
 117.45  32.1746  0 i
 117.5  39.759  0 i
 117.55  28.1377  0 i
 117.6  33.7866  0 i
 117.65  34.113  0 i
 117.7  29.347  0 i
 117.75  32.5002  0 i
 117.8  33.689  0 i
 117.85  38.6704  0 i
 117.9  30.5464  0 i
 117.95  25.7039  0 i
 118  25.8138  0 i
 118.05  30.1801  0 i
 118.1  29.687  0 i
 118.15  31.9088  0 i
 118.2  33.3892  0 i
 118.25  32.448  0 i
 118.3  27.9509  0 i
 118.35  21.776  0 i
 118.4  27.0506  0 i
 118.45  33.6765  0 i
 118.5  20.7094  0 i
 118.55  22.128  0 i
 118.6  25.301  0 i
 118.65  29.7686  0 i
 118.7  35.0958  0 i
 118.75  36.4607  0 i
 118.8  29.0781  0 i
 118.85  28.2005  0 i
 118.9  22.585  0 i
 118.95  34.0503  0 i
 119  35.1991  0 i
 119.05  31.0773  0 i
 119.1  32.7917  0 i
 119.15  47.4121  0 i
 119.2  25.8657  0 i
 119.25  33.2452  0 i
 119.3  29.5226  0 i
 119.35  27.6163  0 i
 119.4  31.991  0 i
 119.45  34.9782  0 i
 119.5  26.1401  0 i
 119.55  30.8142  0 i
 119.6  37.9649  0 i
 119.65  26.4421  0 i
 119.7  25.1578  0 i
 119.75  29.2714  0 i
 119.8  29.3495  0 i
 119.85  31.4624  0 i
 119.9  38.0115  0 i
 119.95  24.5113  0 i
 120  27.85  0 i
 120.05  26.4561  0 i
 120.1  26.4396  0 i
 120.15  38.034  0 i
 120.2  30.4349  0 i
 120.25  31.8145  0 i
 120.3  22.4724  0 i
 120.35  29.6488  0 i
 120.4  27.4331  0 i
 120.45  35.5398  0 i
 120.5  31.3013  0 i
 120.55  35.7212  0 i
 120.6  32.0686  0 i
 120.65  34.4943  0 i
 120.7  28.8166  0 i
 120.75  31.7392  0 i
 120.8  42.1031  0 i
 120.85  20.5178  0 i
 120.9  21.8327  0 i
 120.95  36.0801  0 i
 121  41.9704  0 i
 121.05  38.5054  0 i
 121.1  30.9957  0 i
 121.15  23.3594  0 i
 121.2  38.1457  0 i
 121.25  30.9588  0 i
 121.3  27.6208  0 i
 121.35  32.4145  0 i
 121.4  26.2132  0 i
 121.45  37.2138  0 i
 121.5  39.1546  0 i
 121.55  22.8139  0 i
 121.6  26.4688  0 i
 121.65  33.0712  0 i
 121.7  29.9612  0 i
 121.75  21.1265  0 i
 121.8  34.3091  0 i
 121.85  29.3072  0 i
 121.9  23.708  0 i
 121.95  26.6083  0 i
 122  27.3204  0 i
 122.05  31.6992  0 i
 122.1  29.967  0 i
 122.15  27.7586  0 i
 122.2  36.151  0 i
 122.25  34.2023  0 i
 122.3  36.24  0 i
 122.35  46.0317  0 i
 122.4  25.8022  0 i
 122.45  37.9219  0 i
 122.5  33.4888  0 i
 122.55  32.8026  0 i
 122.6  32.6482  0 i
 122.65  31.1192  0 i
 122.7  35.8067  0 i
 122.75  27.5519  0 i
 122.8  29.08  0 i
 122.85  32.1729  0 i
 122.9  31.0061  0 i
 122.95  29.5869  0 i
 123  28.1756  0 i
 123.05  29.0681  0 i
 123.1  28.7497  0 i
 123.15  31.6931  0 i
 123.2  22.0693  0 i
 123.25  28.1331  0 i
 123.3  33.9078  0 i
 123.35  33.1325  0 i
 123.4  29.8105  0 i
 123.45  22.2013  0 i
 123.5  27.486  0 i
 123.55  30.2033  0 i
 123.6  37.4598  0 i
 123.65  28.5699  0 i
 123.7  25.0992  0 i
 123.75  29.483  0 i
 123.8  24.9747  0 i
 123.85  34.9545  0 i
 123.9  18.9707  0 i
 123.95  40.8856  0 i
 124  26.9554  0 i
 124.05  24.2447  0 i
 124.1  34.6292  0 i
 124.15  25.8649  0 i
 124.2  37.2083  0 i
 124.25  24.3556  0 i
 124.3  34.4283  0 i
 124.35  30.6126  0 i
 124.4  36.7374  0 i
 124.45  29.238  0 i
 124.5  29.0384  0 i
 124.55  40.3731  0 i
 124.6  30.8276  0 i
 124.65  31.9047  0 i
 124.7  29.5316  0 i
 124.75  22.8208  0 i
 124.8  29.6985  0 i
 124.85  32.9138  0 i
 124.9  24.2783  0 i
 124.95  22.9103  0 i
 125  28.2093  0 i
 125.05  22.9472  0 i
 125.1  31.9067  0 i
 125.15  23.8093  0 i
 125.2  37.6816  0 i
 125.25  29.8611  0 i
 125.3  21.8131  0 i
 125.35  35.2209  0 i
 125.4  36.4758  0 i
 125.45  30.0402  0 i
 125.5  27.0664  0 i
 125.55  32.6612  0 i
 125.6  30.6807  0 i
 125.65  30.898  0 i
 125.7  25.135  0 i
 125.75  24.9443  0 i
 125.8  32.9321  0 i
 125.85  33.8784  0 i
 125.9  25.8893  0 i
 125.95  26.6052  0 i
 126  32.0523  0 i
 126.05  26.0108  0 i
 126.1  29.045  0 i
 126.15  32.4254  0 i
 126.2  31.3059  0 i
 126.25  26.5916  0 i
 126.3  30.765  0 i
 126.35  25.911  0 i
 126.4  26.7769  0 i
 126.45  21.7752  0 i
 126.5  23.4512  0 i
 126.55  36.1099  0 i
 126.6  31.9917  0 i
 126.65  29.5669  0 i
 126.7  28.3192  0 i
 126.75  38.9394  0 i
 126.8  27.1615  0 i
 126.85  25.8106  0 i
 126.9  27.9448  0 i
 126.95  25.7591  0 i
 127  27.3465  0 i
 127.05  41.2621  0 i
 127.1  29.9042  0 i
 127.15  31.8733  0 i
 127.2  26.8898  0 i
 127.25  31.343  0 i
 127.3  23.3555  0 i
 127.35  17.2098  0 i
 127.4  33.9424  0 i
 127.45  35.5947  0 i
 127.5  32.2341  0 i
 127.55  21.7683  0 i
 127.6  23.9033  0 i
 127.65  31.3038  0 i
 127.7  36.9171  0 i
 127.75  33.7368  0 i
 127.8  41.7036  0 i
 127.85  35.4628  0 i
 127.9  29.8134  0 i
 127.95  47.4739  0 i
 128  29.2316  0 i
 128.05  37.6853  0 i
 128.1  35.5259  0 i
 128.15  28.1841  0 i
 128.2  29.4516  0 i
 128.25  30.5339  0 i
 128.3  27.178  0 i
 128.35  26.2959  0 i
 128.4  27.4132  0 i
 128.45  39.4805  0 i
 128.5  26.6468  0 i
 128.55  23.4666  0 i
 128.6  28.4158  0 i
 128.65  21.4215  0 i
 128.7  45.3147  0 i
 128.75  30.3273  0 i
 128.8  28.8106  0 i
 128.85  33.095  0 i
 128.9  34.8035  0 i
 128.95  21.3353  0 i
 129  28.2629  0 i
 129.05  30.5191  0 i
 129.1  23.3818  0 i
 129.15  26.0491  0 i
 129.2  31.5099  0 i
 129.25  32.5221  0 i
 129.3  26.1047  0 i
 129.35  31.2061  0 i
 129.4  35.9257  0 i
 129.45  31.351  0 i
 129.5  36.2646  0 i
 129.55  18.2531  0 i
 129.6  32.9969  0 i
 129.65  28.7268  0 i
 129.7  32.6194  0 i
 129.75  35.0682  0 i
 129.8  29.0149  0 i
 129.85  29.6701  0 i
 129.9  34.421  0 i
 129.95  39.2864  0 i
 130  65.0491  0 i

