
#Surface 0 of 1 surfaces

#IsoCurve 0, 1801 points
#x y z type
 40  57.5254  35.2457 i
 40.05  34.3527  35.2433 i
 40.1  49.5959  35.241 i
 40.15  47.885  35.2341 i
 40.2  35.155  35.2271 i
 40.25  45.5188  35.2178 i
 40.3  38.6086  35.2085 i
 40.35  29.8787  35.2053 i
 40.4  39.1922  35.2022 i
 40.45  48.3261  35.1987 i
 40.5  41.5998  35.1953 i
 40.55  33.8735  35.1859 i
 40.6  39.0184  35.1764 i
 40.65  45.3372  35.1704 i
 40.7  32.0546  35.1645 i
 40.75  37.4853  35.1635 i
 40.8  38.9496  35.1625 i
 40.85  39.9426  35.1559 i
 40.9  34.4947  35.1493 i
 40.95  48.6896  35.1407 i
 41  43.8506  35.132 i
 41.05  31.9394  35.1307 i
 41.1  43.627  35.1294 i
 41.15  42.016  35.1275 i
 41.2  38.0647  35.1255 i
 41.25  46.9545  35.1168 i
 41.3  35.902  35.1081 i
 41.35  34.0033  35.1041 i
 41.4  40.5717  35.1001 i
 41.45  31.3438  35.102 i
 41.5  48.9253  35.1038 i
 41.55  38.2962  35.0991 i
 41.6  42.9157  35.0944 i
 41.65  32.5399  35.0878 i
 41.7  39.3687  35.0812 i
 41.75  39.418  35.0839 i
 41.8  43.8501  35.0866 i
 41.85  30.3285  35.0887 i
 41.9  31.9887  35.0909 i
 41.95  33.5008  35.0856 i
 42  43.9887  35.0802 i
 42.05  35.6741  35.0813 i
 42.1  33.323  35.0823 i
 42.15  31.7018  35.0914 i
 42.2  41.7041  35.1005 i
 42.25  31.6578  35.1027 i
 42.3  33.2558  35.1049 i
 42.35  35.1101  35.1059 i
 42.4  45.7089  35.1068 i
 42.45  37.425  35.1209 i
 42.5  41.9598  35.1349 i
 42.55  46.1452  35.1511 i
 42.6  41.571  35.1674 i
 42.65  40.6113  35.1767 i
 42.7  33.6982  35.186 i
 42.75  40.6332  35.2063 i
 42.8  37.9018  35.2266 i
 42.85  33.2462  35.2633 i
 42.9  29.6192  35.2999 i
 42.95  45.0809  35.3363 i
 43  29.0607  35.3727 i
 43.05  36.4628  35.4198 i
 43.1  30.369  35.467 i
 43.15  40.8136  35.6244 i
 43.2  41.8197  35.7818 i
 43.25  33.515  36.1098 i
 43.3  25.3594  36.4378 i
 43.35  54.6313  36.6195 i
 43.4  30.3328  36.8177 i
 43.45  38.757  37.0792 i
 43.5  46.7538  37.3408 i
 43.55  48.6759  37.6952 i
 43.6  27.3411  38.126 i
 43.65  31.6461  38.7065 i
 43.7  40.7157  39.2869 i
 43.75  52.7029  40.0939 i
 43.8  32.4422  41.1465 i
 43.85  49.1542  42.5616 i
 43.9  53.0063  44.5199 i
 43.95  65.4408  47.4034 i
 44  50.7173  51.5588 i
 44.05  63.6656  58.7778 i
 44.1  72.3144  71.4335 i
 44.15  101.032  102.831 i
 44.2  136.577  194.246 i
 44.25  418.121  466.361 i
 44.3  1198.82  1086.11 i
 44.35  2101.32  1985.65 i
 44.4  2332.54  2513.02 i
 44.45  1449.85  1540.85 i
 44.5  480.286  403.98 i
 44.55  191.965  146.394 i
 44.6  84.8427  87.2317 i
 44.65  72.2283  64.8871 i
 44.7  58.3532  54.0876 i
 44.75  51.7929  48.104 i
 44.8  56.1028  44.462 i
 44.85  52.5244  42.0858 i
 44.9  40.0066  40.4548 i
 44.95  30.4237  39.4502 i
 45  44.8902  38.4457 i
 45.05  34.0632  37.8752 i
 45.1  41.4135  37.3048 i
 45.15  49.5638  36.9322 i
 45.2  35.4025  36.5597 i
 45.25  49.4044  36.3048 i
 45.3  45.3236  36.0498 i
 45.35  36.5013  35.8824 i
 45.4  27.707  35.715 i
 45.45  37.1979  35.589 i
 45.5  30.4353  35.463 i
 45.55  40.215  35.332 i
 45.6  39.669  35.2009 i
 45.65  33.3608  35.0767 i
 45.7  29.1925  34.9525 i
 45.75  55.5946  34.8951 i
 45.8  39.8081  34.8454 i
 45.85  40.4506  34.7938 i
 45.9  33.671  34.7422 i
 45.95  40.9874  34.6926 i
 46  43.6409  34.643 i
 46.05  35.9146  34.6109 i
 46.1  29.4467  34.5788 i
 46.15  34.0541  34.5527 i
 46.2  31.2287  34.5266 i
 46.25  35.8724  34.4929 i
 46.3  41.5227  34.4592 i
 46.35  33.9993  34.4309 i
 46.4  34.2532  34.4026 i
 46.45  34.0487  34.3861 i
 46.5  28.4888  34.3696 i
 46.55  37.4534  34.3492 i
 46.6  43.3219  34.3288 i
 46.65  34.7585  34.3031 i
 46.7  35.4041  34.2774 i
 46.75  24.3364  34.2609 i
 46.8  23.1843  34.2444 i
 46.85  43.2125  34.2325 i
 46.9  40.4721  34.2206 i
 46.95  37.1328  34.2008 i
 47  29.0954  34.1811 i
 47.05  40.5661  34.162 i
 47.1  26.8642  34.1429 i
 47.15  29.3853  34.1328 i
 47.2  34.6265  34.1226 i
 47.25  39.0648  34.1101 i
 47.3  30.0416  34.0976 i
 47.35  27.1661  34.0788 i
 47.4  36.9058  34.0601 i
 47.45  41.414  34.0469 i
 47.5  31.0139  34.0338 i
 47.55  34.946  34.0255 i
 47.6  38.3568  34.0173 i
 47.65  35.1979  34.0027 i
 47.7  30.7251  33.9882 i
 47.75  26.3733  33.9721 i
 47.8  29.3372  33.9559 i
 47.85  29.7759  33.947 i
 47.9  30.6698  33.9381 i
 47.95  42.2137  33.9287 i
 48  36.5991  33.9192 i
 48.05  38.6724  33.9036 i
 48.1  40.1716  33.8879 i
 48.15  41.3371  33.8755 i
 48.2  36.8437  33.8631 i
 48.25  40.2846  33.8559 i
 48.3  46.4901  33.8486 i
 48.35  34.351  33.8367 i
 48.4  40.469  33.8248 i
 48.45  33.3559  33.81 i
 48.5  33.4725  33.7952 i
 48.55  35.941  33.7862 i
 48.6  25.2237  33.7772 i
 48.65  26.8178  33.7691 i
 48.7  29.6684  33.7611 i
 48.75  34.7066  33.7474 i
 48.8  38.6073  33.7336 i
 48.85  37.9518  33.7212 i
 48.9  36.0904  33.7088 i
 48.95  35.1608  33.7016 i
 49  39.8307  33.6944 i
 49.05  24.7451  33.6849 i
 49.1  35.4762  33.6753 i
 49.15  22.829  33.6611 i
 49.2  30.8994  33.6468 i
 49.25  36.447  33.6371 i
 49.3  37.2103  33.6274 i
 49.35  28.7045  33.6204 i
 49.4  32.0405  33.6133 i
 49.45  29.5772  33.601 i
 49.5  33.0698  33.5886 i
 49.55  36.7907  33.5758 i
 49.6  30.3071  33.5629 i
 49.65  35.251  33.5554 i
 49.7  43.449  33.5479 i
 49.75  30.1394  33.5392 i
 49.8  32.1524  33.5304 i
 49.85  26.8313  33.5169 i
 49.9  40.6037  33.5034 i
 49.95  40.9709  33.4929 i
 50  36.5474  33.4824 i
 50.05  33.2117  33.4755 i
 50.1  34.3083  33.4687 i
 50.15  38.9525  33.4577 i
 50.2  37.5137  33.4467 i
 50.25  36.3642  33.4336 i
 50.3  35.0441  33.4206 i
 50.35  37.7486  33.4124 i
 50.4  33.7457  33.4041 i
 50.45  25.9737  33.3962 i
 50.5  35.4996  33.3884 i
 50.55  40.8062  33.3757 i
 50.6  28.0663  33.3631 i
 50.65  39.5696  33.3518 i
 50.7  34.8086  33.3405 i
 50.75  32.3789  33.3334 i
 50.8  33.7564  33.3263 i
 50.85  41.4466  33.3166 i
 50.9  32.1841  33.3068 i
 50.95  32.2672  33.2938 i
 51  27.2894  33.2809 i
 51.05  38.9603  33.2717 i
 51.1  22.5101  33.2625 i
 51.15  41.5365  33.2551 i
 51.2  34.5367  33.2478 i
 51.25  32.7209  33.2362 i
 51.3  31.824  33.2246 i
 51.35  45.1458  33.2126 i
 51.4  28.4499  33.2006 i
 51.45  38.315  33.193 i
 51.5  34.916  33.1854 i
 51.55  33.6573  33.1767 i
 51.6  38.7317  33.168 i
 51.65  33.2482  33.1554 i
 51.7  29.1594  33.1428 i
 51.75  32.0204  33.1326 i
 51.8  36.0202  33.1223 i
 51.85  34.9783  33.1152 i
 51.9  27.989  33.108 i
 51.95  33.0581  33.0975 i
 52  42.3078  33.0871 i
 52.05  27.0542  33.0747 i
 52.1  29.5396  33.0623 i
 52.15  34.0016  33.0538 i
 52.2  36.6493  33.0453 i
 52.25  40.9802  33.0375 i
 52.3  33.4633  33.0296 i
 52.35  49.6605  33.0177 i
 52.4  29.3747  33.0059 i
 52.45  32.6186  32.9947 i
 52.5  33.0447  32.9835 i
 52.55  35.4856  32.9761 i
 52.6  25.7222  32.9686 i
 52.65  24.7881  32.9593 i
 52.7  20.2447  32.95 i
 52.75  28.037  32.9377 i
 52.8  28.2521  32.9253 i
 52.85  26.1911  32.9157 i
 52.9  37.2869  32.9062 i
 52.95  27.7001  32.8988 i
 53  41.703  32.8914 i
 53.05  39.9531  32.8806 i
 53.1  33.1325  32.8697 i
 53.15  39.3509  32.8579 i
 53.2  29.3148  32.846 i
 53.25  36.3291  32.8378 i
 53.3  35.039  32.8297 i
 53.35  35.6352  32.8215 i
 53.4  35.6391  32.8132 i
 53.45  38.0731  32.8013 i
 53.5  38.0691  32.7894 i
 53.55  35.6683  32.7788 i
 53.6  27.891  32.7681 i
 53.65  34.0293  32.7607 i
 53.7  38.9839  32.7533 i
 53.75  32.417  32.7437 i
 53.8  31.5913  32.7341 i
 53.85  33.6602  32.722 i
 53.9  41.6437  32.7098 i
 53.95  33.6359  32.7007 i
 54  30.1576  32.6915 i
 54.05  27.5599  32.6839 i
 54.1  30.3314  32.6764 i
 54.15  37.1803  32.6654 i
 54.2  28.679  32.6545 i
 54.25  39.9351  32.643 i
 54.3  39.3882  32.6314 i
 54.35  32.2101  32.6235 i
 54.4  36.6363  32.6155 i
 54.45  32.3733  32.6071 i
 54.5  37.0008  32.5986 i
 54.55  37.3489  32.5868 i
 54.6  32.8088  32.575 i
 54.65  35.0163  32.5647 i
 54.7  32.0844  32.5544 i
 54.75  27.2189  32.5469 i
 54.8  37.875  32.5395 i
 54.85  28.5945  32.5299 i
 54.9  25.3457  32.5202 i
 54.95  29.8188  32.5083 i
 55  36.5938  32.4963 i
 55.05  31.2615  32.4873 i
 55.1  38.7702  32.4783 i
 55.15  31.8007  32.4707 i
 55.2  36.5199  32.4632 i
 55.25  39.2125  32.4523 i
 55.3  34.486  32.4414 i
 55.35  26.5704  32.4301 i
 55.4  41.8745  32.4188 i
 55.45  31.8642  32.4109 i
 55.5  32.8611  32.4029 i
 55.55  27.0834  32.3946 i
 55.6  25.675  32.3862 i
 55.65  25.1086  32.3746 i
 55.7  26.8925  32.363 i
 55.75  27.3082  32.3527 i
 55.8  22.5592  32.3425 i
 55.85  33.5266  32.3351 i
 55.9  29.1068  32.3277 i
 55.95  27.8137  32.3182 i
 56  30.9039  32.3087 i
 56.05  29.2733  32.2969 i
 56.1  27.9803  32.2852 i
 56.15  30.5061  32.2762 i
 56.2  29.5125  32.2672 i
 56.25  32.3946  32.2597 i
 56.3  28.1053  32.2522 i
 56.35  41.0376  32.2416 i
 56.4  31.8809  32.2311 i
 56.45  19.4373  32.2198 i
 56.5  37.5245  32.2085 i
 56.55  33.4416  32.2006 i
 56.6  30.5449  32.1926 i
 56.65  27.2816  32.1845 i
 56.7  33.1783  32.1764 i
 56.75  30.0023  32.165 i
 56.8  37.2755  32.1537 i
 56.85  32.608  32.1433 i
 56.9  41.4916  32.133 i
 56.95  38.3499  32.1257 i
 57  39.7727  32.1183 i
 57.05  32.7522  32.1093 i
 57.1  20.9818  32.1002 i
 57.15  26.1614  32.0886 i
 57.2  32.908  32.077 i
 57.25  27.3616  32.0678 i
 57.3  29.6037  32.0586 i
 57.35  26.1575  32.0514 i
 57.4  30.6924  32.0441 i
 57.45  34.8755  32.034 i
 57.5  30.5822  32.0239 i
 57.55  37.6123  32.0126 i
 57.6  20.0457  32.0013 i
 57.65  31.4281  31.9932 i
 57.7  30.4443  31.9851 i
 57.75  28.4807  31.9774 i
 57.8  29.5665  31.9697 i
 57.85  28.3495  31.9588 i
 57.9  30.8824  31.9479 i
 57.95  33.4044  31.9373 i
 58  43.4862  31.9268 i
 58.05  21.4897  31.9194 i
 58.1  32.1333  31.9121 i
 58.15  32.1857  31.9037 i
 58.2  37.2648  31.8952 i
 58.25  47.7354  31.8841 i
 58.3  39.3127  31.8725 i
 58.35  24.2719  31.863 i
 58.4  28.3798  31.8534 i
 58.45  39.303  31.8464 i
 58.5  25.4413  31.8394 i
 58.55  37.2817  31.8301 i
 58.6  31.623  31.8207 i
 58.65  26.8049  31.8094 i
 58.7  37.7795  31.7981 i
 58.75  33.7094  31.7896 i
 58.8  24.9275  31.7811 i
 58.85  28.695  31.774 i
 58.9  36.0759  31.7669 i
 58.95  26.7019  31.7567 i
 59  34.562  31.7465 i
 59.05  26.0966  31.7356 i
 59.1  20.7017  31.7248 i
 59.15  27.5673  31.7172 i
 59.2  20.5619  31.7097 i
 59.25  27.6965  31.7021 i
 59.3  52.1351  31.6946 i
 59.35  29.2603  31.6837 i
 59.4  29.405  31.6728 i
 59.45  27.8213  31.6628 i
 59.5  20.9011  31.6527 i
 59.55  28.9492  31.6458 i
 59.6  28.319  31.639 i
 59.65  31.9899  31.6237 i
 59.7  33.2755  31.6084 i
 59.75  27.005  31.5989 i
 59.8  29.5781  31.5894 i
 59.85  25.7679  31.5802 i
 59.9  39.3067  31.5711 i
 59.95  23.9375  31.5629 i
 60  31.083  31.5547 i
 60.05  22.36  31.546 i
 60.1  29.732  31.5373 i
 60.15  37.3395  31.5278 i
 60.2  36.4808  31.5182 i
 60.25  25.6904  31.5095 i
 60.3  27.6914  31.5007 i
 60.35  17.5468  31.4927 i
 60.4  28.8477  31.4846 i
 60.45  30.6961  31.4758 i
 60.5  28.835  31.4669 i
 60.55  24.903  31.4575 i
 60.6  24.1351  31.4481 i
 60.65  29.1656  31.4397 i
 60.7  29.6964  31.4314 i
 60.75  26.5286  31.4235 i
 60.8  27.5845  31.4156 i
 60.85  17.7253  31.4066 i
 60.9  33.1451  31.3976 i
 60.95  39.8173  31.3884 i
 61  28.5179  31.3792 i
 61.05  43.0351  31.3712 i
 61.1  30.6754  31.3633 i
 61.15  29.3663  31.3555 i
 61.2  40.018  31.3476 i
 61.25  22.5616  31.3385 i
 61.3  35.8428  31.3294 i
 61.35  36.9303  31.3206 i
 61.4  40.3124  31.3118 i
 61.45  29.0956  31.3043 i
 61.5  30.6671  31.2968 i
 61.55  31.5976  31.289 i
 61.6  34.4854  31.2811 i
 61.65  28.7133  31.2721 i
 61.7  30.0335  31.263 i
 61.75  22.7497  31.2547 i
 61.8  38.6123  31.2464 i
 61.85  31.705  31.2394 i
 61.9  23.6412  31.2324 i
 61.95  25.5706  31.2246 i
 62  29.8266  31.2168 i
 62.05  29.3336  31.208 i
 62.1  34.3065  31.1991 i
 62.15  33.833  31.1915 i
 62.2  26.0043  31.1839 i
 62.25  31.2851  31.1775 i
 62.3  41.4682  31.1712 i
 62.35  34.7207  31.1636 i
 62.4  27.8171  31.1561 i
 62.45  34.6244  31.1478 i
 62.5  33.8168  31.1395 i
 62.55  24.8065  31.1329 i
 62.6  21.5818  31.1264 i
 62.65  33.0975  31.121 i
 62.7  28.523  31.1157 i
 62.75  29.6483  31.1088 i
 62.8  27.8973  31.102 i
 62.85  36.6788  31.0951 i
 62.9  39.403  31.0881 i
 62.95  29.6269  31.0836 i
 63  31.9304  31.0792 i
 63.05  39.0225  31.0761 i
 63.1  31.859  31.0729 i
 63.15  32.0301  31.0688 i
 63.2  37.5984  31.0647 i
 63.25  31.6945  31.0623 i
 63.3  29.7463  31.06 i
 63.35  31.2258  31.0651 i
 63.4  40.0787  31.0703 i
 63.45  27.3531  31.0962 i
 63.5  35.0951  31.1221 i
 63.55  33.1138  31.1485 i
 63.6  34.95  31.1749 i
 63.65  25.1432  31.1978 i
 63.7  36.8243  31.2207 i
 63.75  38.8486  31.2566 i
 63.8  40.3723  31.2926 i
 63.85  40.3113  31.3477 i
 63.9  29.9863  31.4028 i
 63.95  31.2122  31.4895 i
 64  33.18  31.5761 i
 64.05  26.894  31.7286 i
 64.1  29.7685  31.8811 i
 64.15  32.7874  32.1765 i
 64.2  27.553  32.472 i
 64.25  43.9719  33.1164 i
 64.3  37.8119  33.7608 i
 64.35  31.9206  35.4983 i
 64.4  41.1538  37.2357 i
 64.45  44.4943  41.4749 i
 64.5  53.6682  50.426 i
 64.55  70.3107  69.7682 i
 64.6  101.215  105.875 i
 64.65  161.284  151.827 i
 64.7  152.18  174.471 i
 64.75  145.017  144.247 i
 64.8  91.4009  92.0732 i
 64.85  67.6904  59.1241 i
 64.9  48.715  44.7225 i
 64.95  43.434  38.4801 i
 65  47.8941  35.4528 i
 65.05  42.6301  34.1604 i
 65.1  31.5609  32.8679 i
 65.15  31.0117  32.3729 i
 65.2  40.1495  31.8779 i
 65.25  29.4269  31.6449 i
 65.3  30.2427  31.4119 i
 65.35  24.1989  31.2868 i
 65.4  35.7949  31.1617 i
 65.45  35.5416  31.0861 i
 65.5  15.2987  31.0105 i
 65.55  35.5397  30.958 i
 65.6  24.2123  30.9054 i
 65.65  35.9933  30.8668 i
 65.7  37.844  30.8281 i
 65.75  27.0976  30.7995 i
 65.8  29.1477  30.7708 i
 65.85  29.7334  30.7413 i
 65.9  33.6043  30.7118 i
 65.95  30.2163  30.685 i
 66  36.2093  30.6582 i
 66.05  40.7868  30.6407 i
 66.1  27.4944  30.6232 i
 66.15  33.0093  30.6107 i
 66.2  42.5533  30.5983 i
 66.25  35.9382  30.5877 i
 66.3  41.0346  30.5771 i
 66.35  33.6632  30.5655 i
 66.4  38.874  30.5539 i
 66.45  27.6227  30.5427 i
 66.5  29.5575  30.5315 i
 66.55  34.5504  30.5227 i
 66.6  27.9645  30.514 i
 66.65  32.7149  30.5059 i
 66.7  26.2858  30.4979 i
 66.75  29.3995  30.4884 i
 66.8  35.2178  30.4789 i
 66.85  28.9971  30.4695 i
 66.9  28.7325  30.46 i
 66.95  30.004  30.4526 i
 67  21.1463  30.4451 i
 67.05  24.9481  30.4381 i
 67.1  24.2119  30.431 i
 67.15  32.2122  30.4224 i
 67.2  35.4088  30.4139 i
 67.25  47.3248  30.4053 i
 67.3  33.0408  30.3967 i
 67.35  29.3479  30.39 i
 67.4  35.6806  30.3832 i
 67.45  24.5815  30.3766 i
 67.5  32.4647  30.37 i
 67.55  32.4342  30.362 i
 67.6  52.0555  30.3539 i
 67.65  40.0934  30.3456 i
 67.7  36.0923  30.338 i
 67.75  32.5754  30.3316 i
 67.8  36.0751  30.3252 i
 67.85  30.7818  30.319 i
 67.9  27.154  30.3127 i
 67.95  35.7313  30.305 i
 68  34.5959  30.2973 i
 68.05  16.0903  30.2897 i
 68.1  31.6765  30.2822 i
 68.15  29.4194  30.2761 i
 68.2  30.4017  30.2701 i
 68.25  24.8314  30.264 i
 68.3  35.9868  30.2579 i
 68.35  19.0532  30.2505 i
 68.4  21.3011  30.2431 i
 68.45  27.4981  30.2359 i
 68.5  27.4524  30.2287 i
 68.55  21.4911  30.2229 i
 68.6  22.1519  30.2171 i
 68.65  29.4297  30.2112 i
 68.7  36.7044  30.2053 i
 68.75  35.3491  30.1982 i
 68.8  23.9155  30.191 i
 68.85  22.4371  30.1841 i
 68.9  27.4006  30.1771 i
 68.95  27.154  30.1716 i
 69  29.4419  30.166 i
 69.05  28.8396  30.1603 i
 69.1  35.256  30.1546 i
 69.15  30.5063  30.1477 i
 69.2  40.6858  30.1407 i
 69.25  37.457  30.1341 i
 69.3  21.4506  30.1274 i
 69.35  27.1262  30.122 i
 69.4  30.5798  30.1167 i
 69.45  32.2863  30.1111 i
 69.5  30.6601  30.1056 i
 69.55  30.2297  30.0989 i
 69.6  24.1624  30.0922 i
 69.65  34.9704  30.0858 i
 69.7  23.2541  30.0793 i
 69.75  37.1683  30.0742 i
 69.8  43.642  30.069 i
 69.85  32.3296  30.0637 i
 69.9  35.7704  30.0583 i
 69.95  24.7697  30.0518 i
 70  42.3662  30.0453 i
 70.05  34.5202  30.0391 i
 70.1  22.9084  30.0329 i
 70.15  29.1507  30.0279 i
 70.2  32.7094  30.023 i
 70.25  25.1917  30.0178 i
 70.3  31.6528  30.0127 i
 70.35  28.4505  30.0064 i
 70.4  29.4579  30.0001 i
 70.45  28.5341  29.9941 i
 70.5  34.7189  29.9881 i
 70.55  26.0791  29.9833 i
 70.6  35.0964  29.9786 i
 70.65  34.7189  29.9736 i
 70.7  37.0092  29.9686 i
 70.75  24.0995  29.9626 i
 70.8  33.1154  29.9565 i
 70.85  32.5959  29.9507 i
 70.9  33.7528  29.9449 i
 70.95  36.3667  29.9404 i
 71  33.4806  29.9358 i
 71.05  30.4972  29.931 i
 71.1  24.9591  29.9263 i
 71.15  30.9093  29.9204 i
 71.2  27.6048  29.9146 i
 71.25  34.2678  29.909 i
 71.3  23.343  29.9034 i
 71.35  29.9978  29.899 i
 71.4  32.2689  29.8946 i
 71.45  38.7864  29.8901 i
 71.5  18.8412  29.8856 i
 71.55  29.2584  29.8799 i
 71.6  32.4485  29.8743 i
 71.65  31.723  29.8689 i
 71.7  29.1571  29.8635 i
 71.75  31.9889  29.8593 i
 71.8  36.8413  29.8551 i
 71.85  33.891  29.8508 i
 71.9  28.7348  29.8465 i
 71.95  26.2451  29.8412 i
 72  30.7525  29.8358 i
 72.05  39.0281  29.8306 i
 72.1  38.719  29.8253 i
 72.15  24.9493  29.8213 i
 72.2  26.5703  29.8173 i
 72.25  32.8791  29.8133 i
 72.3  25.419  29.8092 i
 72.35  29.1741  29.8041 i
 72.4  32.9476  29.799 i
 72.45  19.7392  29.7939 i
 72.5  35.2303  29.7889 i
 72.55  26.6892  29.785 i
 72.6  33.828  29.7812 i
 72.65  32.0029  29.7774 i
 72.7  32.5252  29.7736 i
 72.75  38.9747  29.7688 i
 72.8  28.2365  29.7639 i
 72.85  33.4134  29.759 i
 72.9  33.9068  29.7541 i
 72.95  31.4608  29.7505 i
 73  33.6701  29.7468 i
 73.05  22.4278  29.7433 i
 73.1  35.7511  29.7398 i
 73.15  25.112  29.7352 i
 73.2  31.1438  29.7306 i
 73.25  38.3015  29.7259 i
 73.3  26.6604  29.7212 i
 73.35  42.3035  29.7177 i
 73.4  32.8453  29.7142 i
 73.45  39.3418  29.711 i
 73.5  32.9992  29.7078 i
 73.55  30.259  29.7035 i
 73.6  27.2226  29.6992 i
 73.65  28.7254  29.6947 i
 73.7  33.5392  29.6902 i
 73.75  30.064  29.687 i
 73.8  23.285  29.6837 i
 73.85  28.6706  29.6809 i
 73.9  31.4876  29.6781 i
 73.95  30.3957  29.6743 i
 74  40.1763  29.6705 i
 74.05  27.0708  29.6664 i
 74.1  41.378  29.6622 i
 74.15  19.6582  29.6592 i
 74.2  41.2442  29.6563 i
 74.25  26.2851  29.6539 i
 74.3  24.9092  29.6516 i
 74.35  40.741  29.6486 i
 74.4  47.436  29.645 i
 74.45  40.2502  29.6411 i
 74.5  31.6555  29.6373 i
 74.55  42.7271  29.6346 i
 74.6  27.5514  29.6318 i
 74.65  32.8221  29.6299 i
 74.7  26.5583  29.628 i
 74.75  39.926  29.6252 i
 74.8  30.7992  29.6224 i
 74.85  43.944  29.6189 i
 74.9  30.7183  29.6154 i
 74.95  29.3918  29.6129 i
 75  25.7884  29.6103 i
 75.05  30.1428  29.6088 i
 75.1  33.9139  29.6073 i
 75.15  28.8188  29.605 i
 75.2  34.3674  29.6028 i
 75.25  24.3849  29.5996 i
 75.3  37.2925  29.5964 i
 75.35  45.8498  29.5941 i
 75.4  27.2113  29.5917 i
 75.45  36.6507  29.5906 i
 75.5  29.1667  29.5894 i
 75.55  29.403  29.5877 i
 75.6  28.2573  29.586 i
 75.65  30.2722  29.5831 i
 75.7  41.7231  29.5803 i
 75.75  38.602  29.5781 i
 75.8  26.688  29.576 i
 75.85  37.6142  29.5751 i
 75.9  34.8978  29.5743 i
 75.95  24.2741  29.5731 i
 76  38.3557  29.5719 i
 76.05  38.747  29.5695 i
 76.1  38.9874  29.5671 i
 76.15  21.0911  29.565 i
 76.2  22.4215  29.563 i
 76.25  20.8457  29.5624 i
 76.3  28.4667  29.5619 i
 76.35  24.845  29.5612 i
 76.4  23.3112  29.5606 i
 76.45  26.512  29.5586 i
 76.5  30.2398  29.5566 i
 76.55  38.8321  29.5547 i
 76.6  25.963  29.5528 i
 76.65  29.5418  29.5524 i
 76.7  33.3934  29.552 i
 76.75  34.1158  29.5519 i
 76.8  30.6109  29.5519 i
 76.85  25.9374  29.5504 i
 76.9  33.6429  29.5489 i
 76.95  33.6913  29.5471 i
 77  17.9526  29.5454 i
 77.05  30.1247  29.5451 i
 77.1  23.5533  29.5449 i
 77.15  26.5114  29.5453 i
 77.2  34.7823  29.5457 i
 77.25  30.4538  29.5449 i
 77.3  31.9325  29.544 i
 77.35  43.185  29.5424 i
 77.4  31.5092  29.5408 i
 77.45  35.419  29.5406 i
 77.5  26.8201  29.5404 i
 77.55  31.1592  29.5413 i
 77.6  28.7234  29.5422 i
 77.65  20.9926  29.542 i
 77.7  30.5353  29.5418 i
 77.75  36.2728  29.5405 i
 77.8  35.1788  29.5391 i
 77.85  27.368  29.5389 i
 77.9  33.3652  29.5387 i
 77.95  16.6718  29.54 i
 78  22.9937  29.5414 i
 78.05  20.9666  29.5419 i
 78.1  31.7287  29.5425 i
 78.15  28.0997  29.5416 i
 78.2  37.4395  29.5406 i
 78.25  22.892  29.5404 i
 78.3  39.9624  29.5401 i
 78.35  27.0878  29.5418 i
 78.4  35.4631  29.5434 i
 78.45  38.5701  29.5449 i
 78.5  25.1266  29.5463 i
 78.55  37.7709  29.5459 i
 78.6  33.283  29.5456 i
 78.65  29.2727  29.5454 i
 78.7  28.9783  29.5451 i
 78.75  26.6847  29.547 i
 78.8  30.7875  29.5489 i
 78.85  31.1914  29.5513 i
 78.9  35.1282  29.5536 i
 78.95  27.8802  29.5542 i
 79  40.4156  29.5547 i
 79.05  36.5456  29.5547 i
 79.1  28.3923  29.5546 i
 79.15  26.9769  29.5567 i
 79.2  28.3561  29.5587 i
 79.25  34.367  29.5622 i
 79.3  15.408  29.5656 i
 79.35  27.0734  29.5679 i
 79.4  29.3442  29.5702 i
 79.45  29.2739  29.5705 i
 79.5  31.3454  29.5709 i
 79.55  26.2304  29.5734 i
 79.6  23.2186  29.5759 i
 79.65  34.5179  29.5808 i
 79.7  26.1937  29.5858 i
 79.75  32.4821  29.5896 i
 79.8  27.9578  29.5935 i
 79.85  39.2007  29.5953 i
 79.9  26.8816  29.5971 i
 79.95  22.9174  29.6005 i
 80  36.8164  29.6039 i
 80.05  41.041  29.6108 i
 80.1  22.2763  29.6178 i
 80.15  23.7243  29.6253 i
 80.2  36.2101  29.6328 i
 80.25  27.7973  29.6384 i
 80.3  20.498  29.644 i
 80.35  26.6404  29.6508 i
 80.4  33.7627  29.6575 i
 80.45  33.5821  29.6697 i
 80.5  31.8465  29.6818 i
 80.55  21.1537  29.6987 i
 80.6  26.0612  29.7156 i
 80.65  26.2841  29.7372 i
 80.7  31.8084  29.7588 i
 80.75  41.1236  29.8101 i
 80.8  31.3995  29.8614 i
 80.85  41.5061  29.9401 i
 80.9  34.9168  30.0187 i
 80.95  30.6578  30.0855 i
 81  27.8349  30.1523 i
 81.05  26.8505  30.2357 i
 81.1  30.2341  30.319 i
 81.15  34.1535  30.436 i
 81.2  33.0119  30.553 i
 81.25  32.1712  30.7373 i
 81.3  28.3378  30.9215 i
 81.35  29.9815  31.2372 i
 81.4  29.1783  31.5529 i
 81.45  28.6301  32.1425 i
 81.5  32.4447  32.7321 i
 81.55  44.8561  33.999 i
 81.6  23.7757  35.266 i
 81.65  36.5312  38.6678 i
 81.7  39.5212  42.0695 i
 81.75  77.8884  50.4204 i
 81.8  66.4097  68.4724 i
 81.85  97.7142  108.846 i
 81.9  178.652  184.602 i
 81.95  280.088  272.82 i
 82  297.983  294.881 i
 82.05  205.7  217.142 i
 82.1  100.533  123.973 i
 82.15  81.545  73.537 i
 82.2  50.3048  51.5721 i
 82.25  62.0745  42.451 i
 82.3  37.3817  37.5427 i
 82.35  41.2986  34.9615 i
 82.4  44.3043  33.4169 i
 82.45  30.0283  32.5976 i
 82.5  30.1754  31.7784 i
 82.55  25.7114  31.3863 i
 82.6  32.3801  30.9943 i
 82.65  36.7494  30.7839 i
 82.7  33.5262  30.5736 i
 82.75  26.2318  30.4517 i
 82.8  28.807  30.3297 i
 82.85  27.2346  30.2514 i
 82.9  42.9463  30.1731 i
 82.95  41.3798  30.117 i
 83  33.2989  30.0609 i
 83.05  23.9314  30.0174 i
 83.1  18.1492  29.9738 i
 83.15  29.8017  29.9266 i
 83.2  36.2133  29.8794 i
 83.25  28.5528  29.8546 i
 83.3  38.4532  29.8299 i
 83.35  35.5367  29.8156 i
 83.4  36.6428  29.8013 i
 83.45  26.51  29.7902 i
 83.5  29.9339  29.7791 i
 83.55  28.2067  29.7728 i
 83.6  39.5455  29.7665 i
 83.65  36.8709  29.7638 i
 83.7  38.4092  29.7612 i
 83.75  44.6233  29.7585 i
 83.8  29.8943  29.7557 i
 83.85  37.1807  29.7517 i
 83.9  26.6436  29.7478 i
 83.95  34.5301  29.7453 i
 84  22.8906  29.7427 i
 84.05  30.4326  29.7431 i
 84.1  31.0156  29.7435 i
 84.15  30.9563  29.7444 i
 84.2  37.7038  29.7453 i
 84.25  21.4601  29.7446 i
 84.3  26.7768  29.7439 i
 84.35  28.6823  29.7428 i
 84.4  35.0624  29.7417 i
 84.45  21.7073  29.7427 i
 84.5  27.7649  29.7437 i
 84.55  20.4573  29.746 i
 84.6  22.1538  29.7483 i
 84.65  25.8712  29.7496 i
 84.7  34.3272  29.7509 i
 84.75  36.0844  29.7509 i
 84.8  35.6653  29.7509 i
 84.85  30.8343  29.7518 i
 84.9  20.3666  29.7528 i
 84.95  30.5019  29.7554 i
 85  30.2237  29.758 i
 85.05  32.8324  29.7605 i
 85.1  27.0546  29.7631 i
 85.15  27.389  29.7641 i
 85.2  29.6549  29.7652 i
 85.25  35.4097  29.7661 i
 85.3  35.367  29.7671 i
 85.35  25.5553  29.7694 i
 85.4  23.3537  29.7718 i
 85.45  30.7952  29.7749 i
 85.5  26.2941  29.778 i
 85.55  28.4006  29.7801 i
 85.6  40.977  29.7821 i
 85.65  33.2127  29.7833 i
 85.7  28.8911  29.7845 i
 85.75  30.3933  29.7865 i
 85.8  35.0311  29.7884 i
 85.85  36.5305  29.7916 i
 85.9  33.1981  29.7947 i
 85.95  28.623  29.7975 i
 86  15.5545  29.8004 i
 86.05  25.6709  29.8021 i
 86.1  31.0199  29.8038 i
 86.15  33.5417  29.8055 i
 86.2  31.1588  29.8072 i
 86.25  28.0825  29.81 i
 86.3  32.1211  29.8128 i
 86.35  21.9624  29.816 i
 86.4  32.8254  29.8193 i
 86.45  22.4422  29.8216 i
 86.5  32.2887  29.824 i
 86.55  36.8297  29.8258 i
 86.6  28.5462  29.8275 i
 86.65  32.2873  29.8299 i
 86.7  27.1102  29.8322 i
 86.75  24.5577  29.8355 i
 86.8  35.0041  29.8387 i
 86.85  28.8661  29.8416 i
 86.9  38.2874  29.8445 i
 86.95  22.8181  29.8466 i
 87  40.5089  29.8486 i
 87.05  33.2367  29.8507 i
 87.1  36.6552  29.8528 i
 87.15  38.3267  29.8557 i
 87.2  35.7425  29.8586 i
 87.25  27.6361  29.8618 i
 87.3  27.4296  29.865 i
 87.35  37.7341  29.8675 i
 87.4  24.4621  29.8701 i
 87.45  27.3002  29.8721 i
 87.5  33.8027  29.8741 i
 87.55  36.2098  29.8766 i
 87.6  27.5858  29.8791 i
 87.65  22.835  29.8823 i
 87.7  30.8932  29.8855 i
 87.75  23.7263  29.8884 i
 87.8  29.3164  29.8913 i
 87.85  28.4941  29.8936 i
 87.9  32.1337  29.8958 i
 87.95  33.7862  29.898 i
 88  28.9817  29.9003 i
 88.05  20.7561  29.9031 i
 88.1  30.7884  29.906 i
 88.15  35.9974  29.9091 i
 88.2  24.955  29.9122 i
 88.25  40.6492  29.9148 i
 88.3  33.222  29.9174 i
 88.35  24.9771  29.9196 i
 88.4  22.9064  29.9218 i
 88.45  33.2597  29.9243 i
 88.5  29.5962  29.9268 i
 88.55  20.1854  29.9298 i
 88.6  22.6446  29.9328 i
 88.65  24.2853  29.9357 i
 88.7  25.5227  29.9386 i
 88.75  30.4648  29.9409 i
 88.8  31.4182  29.9433 i
 88.85  30.2531  29.9455 i
 88.9  31.6614  29.9478 i
 88.95  24.0846  29.9505 i
 89  20.8026  29.9533 i
 89.05  28.4408  29.9562 i
 89.1  34.3159  29.9592 i
 89.15  32.4388  29.9618 i
 89.2  22.222  29.9644 i
 89.25  25.7047  29.9666 i
 89.3  30.858  29.9688 i
 89.35  23.9226  29.9712 i
 89.4  22.9322  29.9736 i
 89.45  32.0249  29.9764 i
 89.5  28.3054  29.9793 i
 89.55  26.3803  29.982 i
 89.6  34.0996  29.9848 i
 89.65  28.6845  29.9871 i
 89.7  29.0247  29.9895 i
 89.75  29.8472  29.9917 i
 89.8  33.4955  29.9939 i
 89.85  34.2398  29.9964 i
 89.9  34.3302  29.999 i
 89.95  30.4983  30.0017 i
 90  29.868  30.0045 i
 90.05  31.0379  30.007 i
 90.1  30.0036  30.0095 i
 90.15  27.2616  30.0118 i
 90.2  31.6197  30.014 i
 90.25  37.6669  30.0164 i
 90.3  29.7249  30.0188 i
 90.35  33.6699  30.0216 i
 90.4  34.4681  30.0243 i
 90.45  34.6334  30.0271 i
 90.5  31.9781  30.0299 i
 90.55  28.4356  30.0325 i
 90.6  33.5837  30.0351 i
 90.65  31.9655  30.0376 i
 90.7  32.6364  30.0401 i
 90.75  28.4992  30.0428 i
 90.8  29.3747  30.0456 i
 90.85  32.403  30.0485 i
 90.9  31.0719  30.0515 i
 90.95  32.5829  30.0544 i
 91  25.3472  30.0573 i
 91.05  20.8252  30.06 i
 91.1  23.9103  30.0628 i
 91.15  23.9238  30.0655 i
 91.2  36.1417  30.0683 i
 91.25  38.5333  30.0713 i
 91.3  22.0401  30.0743 i
 91.35  42.6481  30.0774 i
 91.4  34.3446  30.0806 i
 91.45  33.1947  30.0836 i
 91.5  23.3528  30.0865 i
 91.55  27.9171  30.0895 i
 91.6  21.3731  30.0924 i
 91.65  29.9478  30.0955 i
 91.7  36.2373  30.0985 i
 91.75  25.9827  30.1017 i
 91.8  40.3239  30.1049 i
 91.85  32.3604  30.1082 i
 91.9  24.5009  30.1114 i
 91.95  27.9132  30.1145 i
 92  28.8659  30.1176 i
 92.05  36.089  30.1208 i
 92.1  34.3013  30.124 i
 92.15  34.456  30.1273 i
 92.2  42.8503  30.1306 i
 92.25  29.1375  30.1339 i
 92.3  27.5988  30.1373 i
 92.35  29.7882  30.1406 i
 92.4  26.4789  30.1439 i
 92.45  32.0282  30.1473 i
 92.5  24.3771  30.1506 i
 92.55  24.7611  30.154 i
 92.6  27.3878  30.1574 i
 92.65  34.1979  30.1609 i
 92.7  29.4969  30.1644 i
 92.75  35.8949  30.1679 i
 92.8  25.5613  30.1713 i
 92.85  31.5666  30.1748 i
 92.9  33.591  30.1782 i
 92.95  28.1688  30.1818 i
 93  32.588  30.1853 i
 93.05  35.493  30.1889 i
 93.1  33.627  30.1926 i
 93.15  36.3149  30.1962 i
 93.2  24.4384  30.1999 i
 93.25  34.8073  30.2034 i
 93.3  15.6122  30.207 i
 93.35  37.6295  30.2106 i
 93.4  31.3367  30.2142 i
 93.45  28.14  30.2185 i
 93.5  33.456  30.2227 i
 93.55  27.2819  30.2263 i
 93.6  36.5053  30.23 i
 93.65  34.2656  30.2337 i
 93.7  34.9311  30.2373 i
 93.75  39.3918  30.2411 i
 93.8  33.7533  30.2449 i
 93.85  37.1142  30.2489 i
 93.9  33.2452  30.253 i
 93.95  31.291  30.2569 i
 94  28.0788  30.2609 i
 94.05  16.9202  30.2648 i
 94.1  21.5606  30.2686 i
 94.15  25.5842  30.2724 i
 94.2  38.47  30.2762 i
 94.25  35.0677  30.2802 i
 94.3  34.3954  30.2842 i
 94.35  34.41  30.2885 i
 94.4  37.7108  30.2927 i
 94.45  32.3426  30.2969 i
 94.5  23.9617  30.3012 i
 94.55  39.8542  30.3052 i
 94.6  30.479  30.3092 i
 94.65  24.7407  30.3132 i
 94.7  26.5062  30.3171 i
 94.75  23.997  30.3214 i
 94.8  24.7055  30.3256 i
 94.85  29.3363  30.3301 i
 94.9  28.5248  30.3346 i
 94.95  25.3709  30.3391 i
 95  22.2409  30.3437 i
 95.05  29.7838  30.3479 i
 95.1  32.6779  30.3522 i
 95.15  23.8977  30.3564 i
 95.2  29.9881  30.3605 i
 95.25  31.3121  30.365 i
 95.3  28.708  30.3696 i
 95.35  25.8792  30.3745 i
 95.4  22.1122  30.3794 i
 95.45  30.1756  30.3844 i
 95.5  34.877  30.3893 i
 95.55  27.3719  30.3939 i
 95.6  40.7941  30.3985 i
 95.65  31.5443  30.403 i
 95.7  37.7212  30.4075 i
 95.75  37.696  30.4125 i
 95.8  30.4948  30.4175 i
 95.85  44.3917  30.4231 i
 95.9  34.82  30.4287 i
 95.95  33.3188  30.4344 i
 96  32.2193  30.44 i
 96.05  35.9801  30.4453 i
 96.1  28.9889  30.4505 i
 96.15  33.5501  30.4557 i
 96.2  24.1779  30.461 i
 96.25  31.3483  30.467 i
 96.3  32.669  30.473 i
 96.35  23.6492  30.4799 i
 96.4  28.8105  30.4868 i
 96.45  30.6403  30.4939 i
 96.5  25.1152  30.5011 i
 96.55  24.4591  30.508 i
 96.6  30.0815  30.5148 i
 96.65  24.1376  30.522 i
 96.7  32.9554  30.5292 i
 96.75  32.8681  30.5379 i
 96.8  21.6841  30.5465 i
 96.85  15.3083  30.5566 i
 96.9  35.3674  30.5675 i
 96.95  21.3181  30.5793 i
 97  29.6029  30.5911 i
 97.05  26.9952  30.6041 i
 97.1  29.4283  30.6171 i
 97.15  41.2679  30.6333 i
 97.2  29.0666  30.6495 i
 97.25  22.8579  30.6749 i
 97.3  21.0632  30.7004 i
 97.35  34.1288  30.7433 i
 97.4  28.7735  30.7862 i
 97.45  33.9974  30.8323 i
 97.5  30.6989  30.8784 i
 97.55  37.9998  30.9321 i
 97.6  37.1901  30.9859 i
 97.65  26.6001  31.0605 i
 97.7  25.9304  31.1352 i
 97.75  29.5482  31.2498 i
 97.8  33.9833  31.3644 i
 97.85  37.3453  31.5539 i
 97.9  31.8747  31.7434 i
 97.95  26.9319  32.0836 i
 98  24.3487  32.4237 i
 98.05  31.7053  33.1079 i
 98.1  39.4242  33.7921 i
 98.15  39.6395  35.4025 i
 98.2  40.0685  37.0129 i
 98.25  33.5957  41.737 i
 98.3  44.3862  46.461 i
 98.35  54.4682  58.5837 i
 98.4  80.7914  79.4278 i
 98.45  119.816  112.486 i
 98.5  144.554  146.361 i
 98.55  150.801  157.011 i
 98.6  139.028  134.686 i
 98.65  80.296  98.5913 i
 98.7  78.3207  70.3336 i
 98.75  64.3961  54.2879 i
 98.8  40.6836  45.0106 i
 98.85  37.2095  41.0971 i
 98.9  34.6545  37.1836 i
 98.95  36.391  35.6862 i
 99  38.9058  34.1888 i
 99.05  40.8278  33.5037 i
 99.1  26.1772  32.8186 i
 99.15  33.8828  32.4617 i
 99.2  35.8659  32.1047 i
 99.25  37.6146  31.9002 i
 99.3  36.3391  31.6956 i
 99.35  38.2287  31.5707 i
 99.4  16.5659  31.4458 i
 99.45  31.9285  31.3651 i
 99.5  36.1881  31.2844 i
 99.55  26.5595  31.2259 i
 99.6  35.1451  31.1673 i
 99.65  31.7936  31.1093 i
 99.7  24.7683  31.0513 i
 99.75  28.5894  30.997 i
 99.8  25.2362  30.9426 i
 99.85  26.9339  30.9196 i
 99.9  39.171  30.8965 i
 99.95  32.0094  30.8874 i
 100  33.6617  30.8782 i
 100.05  23.3209  30.8739 i
 100.1  22.9957  30.8695 i
 100.15  27.1254  30.8663 i
 100.2  29.3066  30.8631 i
 100.25  34.3458  30.8605 i
 100.3  24.8765  30.8578 i
 100.35  33.0381  30.857 i
 100.4  25.686  30.8562 i
 100.45  28.7071  30.8577 i
 100.5  27.2262  30.8592 i
 100.55  31.896  30.8618 i
 100.6  20.3541  30.8644 i
 100.65  18.2774  30.8666 i
 100.7  18.3308  30.8682 i
 100.75  36.0629  30.8693 i
 100.8  26.6615  30.8703 i
 100.85  31.4241  30.872 i
 100.9  36.0439  30.8737 i
 100.95  25.9136  30.8771 i
 101  29.1272  30.8804 i
 101.05  34.3239  30.8846 i
 101.1  29.5973  30.8888 i
 101.15  22.8736  30.8923 i
 101.2  28.1862  30.8959 i
 101.25  35.3881  30.8983 i
 101.3  30.3478  30.9008 i
 101.35  27.3036  30.9032 i
 101.4  29.0201  30.9057 i
 101.45  25.805  30.9095 i
 101.5  22.2216  30.9133 i
 101.55  26.3746  30.918 i
 101.6  36.5799  30.9228 i
 101.65  32.692  30.9271 i
 101.7  30.8289  30.9314 i
 101.75  23.5058  30.9336 i
 101.8  30.0023  30.9358 i
 101.85  29.0844  30.939 i
 101.9  25.8265  30.9422 i
 101.95  33.9389  30.9462 i
 102  26.1088  30.9501 i
 102.05  36.6968  30.9547 i
 102.1  36.8185  30.9592 i
 102.15  26.8403  30.9636 i
 102.2  19.1762  30.968 i
 102.25  35.8353  30.9716 i
 102.3  25.011  30.9753 i
 102.35  31.4352  30.9787 i
 102.4  28.8243  30.9821 i
 102.45  36.3511  30.986 i
 102.5  31.5764  30.9899 i
 102.55  29.854  30.9944 i
 102.6  30.4423  30.999 i
 102.65  23.7296  31.0035 i
 102.7  34.6183  31.0081 i
 102.75  34.4822  31.012 i
 102.8  35.9369  31.016 i
 102.85  35.5646  31.0195 i
 102.9  24.7225  31.023 i
 102.95  35.8601  31.0268 i
 103  30.3269  31.0306 i
 103.05  25.2266  31.035 i
 103.1  27.7766  31.0394 i
 103.15  31.1154  31.044 i
 103.2  23.5914  31.0486 i
 103.25  29.6859  31.0528 i
 103.3  25.6663  31.057 i
 103.35  34.306  31.0606 i
 103.4  33.6413  31.0642 i
 103.45  28.949  31.0679 i
 103.5  32.3811  31.0716 i
 103.55  33.8263  31.0758 i
 103.6  20.8126  31.08 i
 103.65  30.9581  31.0846 i
 103.7  33.9166  31.0891 i
 103.75  21.4705  31.0934 i
 103.8  37.6565  31.0978 i
 103.85  45.3619  31.1015 i
 103.9  28.8875  31.1053 i
 103.95  36.4863  31.1089 i
 104  40.6467  31.1125 i
 104.05  28.7168  31.1164 i
 104.1  34.0173  31.1204 i
 104.15  31.3024  31.1249 i
 104.2  32.8375  31.1293 i
 104.25  42.871  31.1337 i
 104.3  25.0257  31.1381 i
 104.35  24.3852  31.142 i
 104.4  28.7816  31.1459 i
 104.45  31.4054  31.1494 i
 104.5  35.2674  31.153 i
 104.55  28.7868  31.1567 i
 104.6  37.0453  31.1605 i
 104.65  30.2463  31.1647 i
 104.7  21.9977  31.1689 i
 104.75  32.9581  31.1733 i
 104.8  24.3462  31.1777 i
 104.85  32.1886  31.1817 i
 104.9  30.1178  31.1857 i
 104.95  40.9147  31.1893 i
 105  25.7747  31.1929 i
 105.05  30.2993  31.1964 i
 105.1  34.2788  31.2 i
 105.15  26.7401  31.2039 i
 105.2  29.5631  31.2078 i
 105.25  28.923  31.2121 i
 105.3  27.8002  31.2164 i
 105.35  30.1765  31.2205 i
 105.4  28.1557  31.2246 i
 105.45  26.388  31.2283 i
 105.5  24.5072  31.2319 i
 105.55  25.938  31.2353 i
 105.6  26.6335  31.2387 i
 105.65  27.5912  31.2424 i
 105.7  27.4482  31.246 i
 105.75  21.3527  31.2501 i
 105.8  39.7532  31.2541 i
 105.85  36.0104  31.2583 i
 105.9  32.3436  31.2624 i
 105.95  30.2701  31.2661 i
 106  27.4677  31.2699 i
 106.05  32.6167  31.2733 i
 106.1  27.548  31.2766 i
 106.15  33.4831  31.28 i
 106.2  42.2968  31.2834 i
 106.25  26.5594  31.2872 i
 106.3  32.0854  31.2909 i
 106.35  30.3475  31.2949 i
 106.4  21.1393  31.2989 i
 106.45  28.696  31.3028 i
 106.5  42.7079  31.3066 i
 106.55  22.7089  31.31 i
 106.6  26.7505  31.3135 i
 106.65  24.3455  31.3166 i
 106.7  28.0943  31.3198 i
 106.75  31.9533  31.3233 i
 106.8  22.6426  31.3267 i
 106.85  33.1135  31.3304 i
 106.9  32.5386  31.3342 i
 106.95  25.4616  31.3381 i
 107  32.5372  31.3419 i
 107.05  39.5654  31.3454 i
 107.1  34.9297  31.3489 i
 107.15  21.3573  31.3521 i
 107.2  37.7089  31.3552 i
 107.25  32.705  31.3583 i
 107.3  32.7412  31.3614 i
 107.35  27.0235  31.3648 i
 107.4  26.8162  31.3683 i
 107.45  35.4151  31.372 i
 107.5  24.8305  31.3757 i
 107.55  33.4024  31.3793 i
 107.6  33.9095  31.3829 i
 107.65  34.2868  31.386 i
 107.7  31.9864  31.3892 i
 107.75  28.5739  31.3921 i
 107.8  26.4324  31.395 i
 107.85  22.1838  31.3981 i
 107.9  23.5041  31.4011 i
 107.95  27.7639  31.4046 i
 108  44.1722  31.408 i
 108.05  26.2354  31.4116 i
 108.1  30.7879  31.4151 i
 108.15  30.3615  31.4184 i
 108.2  28.4532  31.4217 i
 108.25  30.389  31.4246 i
 108.3  37.0424  31.4275 i
 108.35  24.9821  31.4304 i
 108.4  31.6447  31.4332 i
 108.45  27.807  31.4363 i
 108.5  33.8274  31.4395 i
 108.55  21.447  31.4429 i
 108.6  21.8333  31.4464 i
 108.65  27.5119  31.4498 i
 108.7  22.9986  31.4533 i
 108.75  33.635  31.4564 i
 108.8  30.1283  31.4595 i
 108.85  27.3853  31.4622 i
 108.9  23.0018  31.465 i
 108.95  21.2261  31.4678 i
 109  29.8864  31.4707 i
 109.05  31.9141  31.4739 i
 109.1  25.7662  31.4771 i
 109.15  33.5219  31.4805 i
 109.2  30.2357  31.484 i
 109.25  33.1022  31.4873 i
 109.3  24.6179  31.4906 i
 109.35  29.9755  31.4935 i
 109.4  33.5836  31.4964 i
 109.45  31.0872  31.4991 i
 109.5  26.0149  31.5018 i
 109.55  24.9719  31.5046 i
 109.6  25.0298  31.5075 i
 109.65  38.1575  31.5108 i
 109.7  36.6995  31.514 i
 109.75  33.5487  31.5175 i
 109.8  26.5112  31.5209 i
 109.85  26.4964  31.5241 i
 109.9  42.1169  31.5273 i
 109.95  25.233  31.53 i
 110  30.0562  31.5328 i
 110.05  31.0722  31.5354 i
 110.1  34.0195  31.538 i
 110.15  29.3118  31.541 i
 110.2  30.5444  31.5439 i
 110.25  27.7464  31.5472 i
 110.3  29.832  31.5505 i
 110.35  20.3679  31.5539 i
 110.4  34.1551  31.5573 i
 110.45  41.9156  31.5604 i
 110.5  38.2094  31.5634 i
 110.55  36.1789  31.5661 i
 110.6  26.7869  31.5687 i
 110.65  25.3266  31.5713 i
 110.7  34.4288  31.574 i
 110.75  36.1738  31.577 i
 110.8  36.8099  31.58 i
 110.85  35.5633  31.5833 i
 110.9  27.8281  31.5867 i
 110.95  20.9888  31.5901 i
 111  26.6921  31.5935 i
 111.05  31.8291  31.5964 i
 111.1  28.6747  31.5994 i
 111.15  42.8061  31.602 i
 111.2  25.7511  31.6046 i
 111.25  39.5797  31.6073 i
 111.3  32.8207  31.6099 i
 111.35  35.8024  31.613 i
 111.4  35.0547  31.6161 i
 111.45  27.1214  31.6196 i
 111.5  32.2054  31.6231 i
 111.55  26.6982  31.6265 i
 111.6  26.6481  31.6299 i
 111.65  30.4403  31.6328 i
 111.7  30.2173  31.6358 i
 111.75  16.7815  31.6384 i
 111.8  24.6686  31.641 i
 111.85  34.8832  31.6438 i
 111.9  28.1055  31.6465 i
 111.95  33.5612  31.6498 i
 112  32.3992  31.653 i
 112.05  28.6124  31.6567 i
 112.1  26.8406  31.6604 i
 112.15  24.7237  31.6639 i
 112.2  22.0654  31.6675 i
 112.25  25.5362  31.6706 i
 112.3  31.1796  31.6737 i
 112.35  33.104  31.6764 i
 112.4  27.8585  31.6792 i
 112.45  33.1683  31.6822 i
 112.5  32.4285  31.6851 i
 112.55  29.7537  31.6887 i
 112.6  22.3345  31.6923 i
 112.65  27.6598  31.6964 i
 112.7  35.5663  31.7004 i
 112.75  24.0074  31.7044 i
 112.8  35.1373  31.7084 i
 112.85  27.227  31.7119 i
 112.9  34.2313  31.7154 i
 112.95  20.5109  31.7187 i
 113  29.8921  31.7219 i
 113.05  28.4751  31.7255 i
 113.1  40.8473  31.729 i
 113.15  30.0813  31.7334 i
 113.2  28.257  31.7378 i
 113.25  30.2049  31.7428 i
 113.3  29.3832  31.7478 i
 113.35  32.9591  31.753 i
 113.4  21.8912  31.7581 i
 113.45  29.088  31.7629 i
 113.5  29.2472  31.7677 i
 113.55  36.1024  31.7725 i
 113.6  34.4965  31.7772 i
 113.65  23.0628  31.7825 i
 113.7  40.6601  31.7879 i
 113.75  31.5784  31.7946 i
 113.8  28.208  31.8012 i
 113.85  22.5135  31.8093 i
 113.9  40.1167  31.8173 i
 113.95  41.0666  31.8262 i
 114  36.6637  31.8352 i
 114.05  20.8313  31.8448 i
 114.1  26.9697  31.8543 i
 114.15  35.3713  31.865 i
 114.2  41.236  31.8757 i
 114.25  26.4988  31.889 i
 114.3  28.3751  31.9022 i
 114.35  23.4565  31.9196 i
 114.4  21.8185  31.9371 i
 114.45  18.2661  31.9607 i
 114.5  32.9537  31.9842 i
 114.55  26.9589  32.0164 i
 114.6  26.0057  32.0486 i
 114.65  27.0014  32.0934 i
 114.7  32.7466  32.1383 i
 114.75  29.5944  32.1992 i
 114.8  31.2453  32.2602 i
 114.85  29.7778  32.3401 i
 114.9  36.2542  32.42 i
 114.95  23.2886  32.5311 i
 115  24.9812  32.6422 i
 115.05  39.6123  32.8083 i
 115.1  29.2937  32.9744 i
 115.15  41.8608  33.2374 i
 115.2  31.6517  33.5003 i
 115.25  33.5786  33.9407 i
 115.3  27.7257  34.381 i
 115.35  41.7922  35.1662 i
 115.4  26.7146  35.9514 i
 115.45  30.5797  37.4471 i
 115.5  51.2944  38.9427 i
 115.55  44.0884  41.4246 i
 115.6  48.7611  44.9912 i
 115.65  49.3105  50.1237 i
 115.7  63.119  57.3874 i
 115.75  53.6136  67.3088 i
 115.8  75.0127  79.1484 i
 115.85  105.921  91.4144 i
 115.9  95.7115  100.516 i
 115.95  103.709  102.877 i
 116  100.659  97.6827 i
 116.05  93.3354  86.9318 i
 116.1  74.6314  74.4875 i
 116.15  57.9804  63.4238 i
 116.2  61.1814  54.5195 i
 116.25  41.205  48.1617 i
 116.3  37.075  43.6989 i
 116.35  50.2609  40.5904 i
 116.4  28.018  38.4122 i
 116.45  39.873  37.0832 i
 116.5  37.2158  35.7542 i
 116.55  40.8041  35.0443 i
 116.6  28.8146  34.3344 i
 116.65  24.2992  33.9305 i
 116.7  24.4848  33.5266 i
 116.75  17.7031  33.2829 i
 116.8  28.861  33.0392 i
 116.85  25.2603  32.884 i
 116.9  32.5385  32.7288 i
 116.95  26.4463  32.6242 i
 117  36.3728  32.5195 i
 117.05  27.7132  32.4437 i
 117.1  28.8391  32.3679 i
 117.15  22.2472  32.312 i
 117.2  26.7998  32.256 i
 117.25  32.8416  32.2172 i
 117.3  30.5912  32.1783 i
 117.35  28.2359  32.1516 i
 117.4  27.4255  32.1249 i
 117.45  32.1746  32.1062 i
 117.5  39.759  32.0875 i
 117.55  28.1377  32.0747 i
 117.6  33.7866  32.0618 i
 117.65  34.113  32.0531 i
 117.7  29.347  32.0444 i
 117.75  32.5002  32.0384 i
 117.8  33.689  32.0324 i
 117.85  38.6704  32.0277 i
 117.9  30.5464  32.023 i
 117.95  25.7039  32.0189 i
 118  25.8138  32.0148 i
 118.05  30.1801  32.0113 i
 118.1  29.687  32.0078 i
 118.15  31.9088  32.0055 i
 118.2  33.3892  32.0031 i
 118.25  32.448  32.002 i
 118.3  27.9509  32.001 i
 118.35  21.776  32.0009 i
 118.4  27.0506  32.0008 i
 118.45  33.6765  32.001 i
 118.5  20.7094  32.0013 i
 118.55  22.128  32.0012 i
 118.6  25.301  32.0012 i
 118.65  29.7686  32.0009 i
 118.7  35.0958  32.0006 i
 118.75  36.4607  32.0005 i
 118.8  29.0781  32.0004 i
 118.85  28.2005  32.001 i
 118.9  22.585  32.0015 i
 118.95  34.0503  32.0028 i
 119  35.1991  32.0041 i
 119.05  31.0773  32.0057 i
 119.1  32.7917  32.0074 i
 119.15  47.4121  32.0088 i
 119.2  25.8657  32.0102 i
 119.25  33.2452  32.0111 i
 119.3  29.5226  32.0121 i
 119.35  27.6163  32.0128 i
 119.4  31.991  32.0136 i
 119.45  34.9782  32.0146 i
 119.5  26.1401  32.0156 i
 119.55  30.8142  32.0171 i
 119.6  37.9649  32.0187 i
 119.65  26.4421  32.0208 i
 119.7  25.1578  32.0228 i
 119.75  29.2714  32.0248 i
 119.8  29.3495  32.0269 i
 119.85  31.4624  32.0285 i
 119.9  38.0115  32.0302 i
 119.95  24.5113  32.0314 i
 120  27.85  32.0327 i
 120.05  26.4561  32.0338 i
 120.1  26.4396  32.035 i
 120.15  38.034  32.0366 i
 120.2  30.4349  32.0381 i
 120.25  31.8145  32.0402 i
 120.3  22.4724  32.0422 i
 120.35  29.6488  32.0445 i
 120.4  27.4331  32.0467 i
 120.45  35.5398  32.0488 i
 120.5  31.3013  32.0509 i
 120.55  35.7212  32.0526 i
 120.6  32.0686  32.0542 i
 120.65  34.4943  32.0556 i
 120.7  28.8166  32.057 i
 120.75  31.7392  32.0585 i
 120.8  42.1031  32.0599 i
 120.85  20.5178  32.0618 i
 120.9  21.8327  32.0636 i
 120.95  36.0801  32.0659 i
 121  41.9704  32.0681 i
 121.05  38.5054  32.0704 i
 121.1  30.9957  32.0727 i
 121.15  23.3594  32.0748 i
 121.2  38.1457  32.0768 i
 121.25  30.9588  32.0785 i
 121.3  27.6208  32.0801 i
 121.35  32.4145  32.0816 i
 121.4  26.2132  32.0831 i
 121.45  37.2138  32.0847 i
 121.5  39.1546  32.0864 i
 121.55  22.8139  32.0884 i
 121.6  26.4688  32.0905 i
 121.65  33.0712  32.0928 i
 121.7  29.9612  32.0951 i
 121.75  21.1265  32.0974 i
 121.8  34.3091  32.0997 i
 121.85  29.3072  32.1016 i
 121.9  23.708  32.1036 i
 121.95  26.6083  32.1052 i
 122  27.3204  32.1069 i
 122.05  31.6992  32.1085 i
 122.1  29.967  32.11 i
 122.15  27.7586  32.1118 i
 122.2  36.151  32.1136 i
 122.25  34.2023  32.1157 i
 122.3  36.24  32.1179 i
 122.35  46.0317  32.1202 i
 122.4  25.8022  32.1226 i
 122.45  37.9219  32.1248 i
 122.5  33.4888  32.127 i
 122.55  32.8026  32.129 i
 122.6  32.6482  32.1309 i
 122.65  31.1192  32.1319 i
 122.7  35.8067  32.133 i
 122.75  27.5519  32.1347 i
 122.8  29.08  32.1365 i
 122.85  32.1729  32.1385 i
 122.9  31.0061  32.1406 i
 122.95  29.5869  32.1429 i
 123  28.1756  32.1452 i
 123.05  29.0681  32.1475 i
 123.1  28.7497  32.1498 i
 123.15  31.6931  32.1518 i
 123.2  22.0693  32.1538 i
 123.25  28.1331  32.1556 i
 123.3  33.9078  32.1573 i
 123.35  33.1325  32.159 i
 123.4  29.8105  32.1606 i
 123.45  22.2013  32.1624 i
 123.5  27.486  32.1642 i
 123.55  30.2033  32.1663 i
 123.6  37.4598  32.1684 i
 123.65  28.5699  32.1707 i
 123.7  25.0992  32.173 i
 123.75  29.483  32.1753 i
 123.8  24.9747  32.1776 i
 123.85  34.9545  32.1796 i
 123.9  18.9707  32.1816 i
 123.95  40.8856  32.1833 i
 124  26.9554  32.1851 i
 124.05  24.2447  32.1867 i
 124.1  34.6292  32.1884 i
 124.15  25.8649  32.1903 i
 124.2  37.2083  32.1921 i
 124.25  24.3556  32.1943 i
 124.3  34.4283  32.1964 i
 124.35  30.6126  32.1987 i
 124.4  36.7374  32.201 i
 124.45  29.238  32.2032 i
 124.5  29.0384  32.2055 i
 124.55  40.3731  32.2075 i
 124.6  30.8276  32.2095 i
 124.65  31.9047  32.2112 i
 124.7  29.5316  32.213 i
 124.75  22.8208  32.2147 i
 124.8  29.6985  32.2164 i
 124.85  32.9138  32.2183 i
 124.9  24.2783  32.2202 i
 124.95  22.9103  32.2223 i
 125  28.2093  32.2244 i
 125.05  22.9472  32.2267 i
 125.1  31.9067  32.229 i
 125.15  23.8093  32.2312 i
 125.2  37.6816  32.2335 i
 125.25  29.8611  32.2355 i
 125.3  21.8131  32.2375 i
 125.35  35.2209  32.2393 i
 125.4  36.4758  32.2411 i
 125.45  30.0402  32.2429 i
 125.5  27.0664  32.2446 i
 125.55  32.6612  32.2465 i
 125.6  30.6807  32.2484 i
 125.65  30.898  32.2505 i
 125.7  25.135  32.2526 i
 125.75  24.9443  32.2549 i
 125.8  32.9321  32.2571 i
 125.85  33.8784  32.2594 i
 125.9  25.8893  32.2616 i
 125.95  26.6052  32.2637 i
 126  32.0523  32.2658 i
 126.05  26.0108  32.2676 i
 126.1  29.045  32.2695 i
 126.15  32.4254  32.2713 i
 126.2  31.3059  32.273 i
 126.25  26.5916  32.2749 i
 126.3  30.765  32.2768 i
 126.35  25.911  32.2788 i
 126.4  26.7769  32.2809 i
 126.45  21.7752  32.2832 i
 126.5  23.4512  32.2854 i
 126.55  36.1099  32.2877 i
 126.6  31.9917  32.29 i
 126.65  29.5669  32.2921 i
 126.7  28.3192  32.2942 i
 126.75  38.9394  32.2961 i
 126.8  27.1615  32.2981 i
 126.85  25.8106  32.2999 i
 126.9  27.9448  32.3017 i
 126.95  25.7591  32.3035 i
 127  27.3465  32.3054 i
 127.05  41.2621  32.3074 i
 127.1  29.9042  32.3095 i
 127.15  31.8733  32.3117 i
 127.2  26.8898  32.3139 i
 127.25  31.343  32.3162 i
 127.3  23.3555  32.3185 i
 127.35  17.2098  32.3207 i
 127.4  33.9424  32.3229 i
 127.45  35.5947  32.3249 i
 127.5  32.2341  32.3269 i
 127.55  21.7683  32.3287 i
 127.6  23.9033  32.3306 i
 127.65  31.3038  32.3324 i
 127.7  36.9171  32.3343 i
 127.75  33.7368  32.3363 i
 127.8  41.7036  32.3383 i
 127.85  35.4628  32.3405 i
 127.9  29.8134  32.3427 i
 127.95  47.4739  32.345 i
 128  29.2316  32.3473 i
 128.05  37.6853  32.3495 i
 128.1  35.5259  32.3518 i
 128.15  28.1841  32.3539 i
 128.2  29.4516  32.356 i
 128.25  30.5339  32.3579 i
 128.3  27.178  32.3598 i
 128.35  26.2959  32.3617 i
 128.4  27.4132  32.3636 i
 128.45  39.4805  32.3655 i
 128.5  26.6468  32.3675 i
 128.55  23.4666  32.3696 i
 128.6  28.4158  32.3717 i
 128.65  21.4215  32.374 i
 128.7  45.3147  32.3763 i
 128.75  30.3273  32.3786 i
 128.8  28.8106  32.3809 i
 128.85  33.095  32.3831 i
 128.9  34.8035  32.3853 i
 128.95  21.3353  32.3874 i
 129  28.2629  32.3894 i
 129.05  30.5191  32.3913 i
 129.1  23.3818  32.3933 i
 129.15  26.0491  32.3952 i
 129.2  31.5099  32.3971 i
 129.25  32.5221  32.3992 i
 129.3  26.1047  32.4013 i
 129.35  31.2061  32.4035 i
 129.4  35.9257  32.4057 i
 129.45  31.351  32.4081 i
 129.5  36.2646  32.4104 i
 129.55  18.2531  32.4127 i
 129.6  32.9969  32.415 i
 129.65  28.7268  32.4172 i
 129.7  32.6194  32.4193 i
 129.75  35.0682  32.4214 i
 129.8  29.0149  32.4234 i
 129.85  29.6701  32.4253 i
 129.9  34.421  32.4273 i
 129.95  39.2864  32.4293 i
 130  65.0491  32.4418 i

