40 57.5254 35.2457 22.2797
40.05 34.3527 35.2433 -0.8906
40.1 49.5959 35.241 14.3549
40.15 47.885 35.2341 12.6509
40.2 35.155 35.2271 -0.0721
40.25 45.5188 35.2178 10.301
40.3 38.6086 35.2085 3.4001
40.35 29.8787 35.2053 -5.3266
40.4 39.1922 35.2022 3.99
40.45 48.3261 35.1987 13.1274
40.5 41.5998 35.1953 6.4045
40.55 33.8735 35.1859 -1.3124
40.6 39.0184 35.1764 3.842
40.65 45.3372 35.1704 10.1668
40.7 32.0546 35.1645 -3.1099
40.75 37.4853 35.1635 2.3218
40.8 38.9496 35.1625 3.7871
40.85 39.9426 35.1559 4.7867
40.9 34.4947 35.1493 -0.6546
40.95 48.6896 35.1407 13.5489
41 43.8506 35.132 8.7186
41.05 31.9394 35.1307 -3.1913
41.1 43.627 35.1294 8.4976
41.15 42.016 35.1275 6.8885
41.2 38.0647 35.1255 2.9392
41.25 46.9545 35.1168 11.8377
41.3 35.902 35.1081 0.7939
41.35 34.0033 35.1041 -1.1008
41.4 40.5717 35.1001 5.4716
41.45 31.3438 35.102 -3.7582
41.5 48.9253 35.1038 13.8215
41.55 38.2962 35.0991 3.1971
41.6 42.9157 35.0944 7.8213
41.65 32.5399 35.0878 -2.5479
41.7 39.3687 35.0812 4.2875
41.75 39.418 35.0839 4.3341
41.8 43.8501 35.0866 8.7635
41.85 30.3285 35.0887 -4.7602
41.9 31.9887 35.0909 -3.1022
41.95 33.5008 35.0856 -1.5848
42 43.9887 35.0802 8.9085
42.05 35.6741 35.0813 0.5928
42.1 33.323 35.0823 -1.7593
42.15 31.7018 35.0914 -3.3896
42.2 41.7041 35.1005 6.6036
42.25 31.6578 35.1027 -3.4449
42.3 33.2558 35.1049 -1.8491
42.35 35.1101 35.1059 0.0042
42.4 45.7089 35.1068 10.6021
42.45 37.425 35.1209 2.3041
42.5 41.9598 35.1349 6.8249
42.55 46.1452 35.1511 10.9941
42.6 41.571 35.1674 6.4036
42.65 40.6113 35.1767 5.4346
42.7 33.6982 35.186 -1.4878
42.75 40.6332 35.2063 5.4269
42.8 37.9018 35.2266 2.6752
42.85 33.2462 35.2633 -2.0171
42.9 29.6192 35.2999 -5.6807
42.95 45.0809 35.3363 9.7446
43 29.0607 35.3727 -6.312
43.05 36.4628 35.4198 1.043
43.1 30.369 35.467 -5.098
43.15 40.8136 35.6244 5.1892
43.2 41.8197 35.7818 6.0379
43.25 33.515 36.1098 -2.5948
43.3 25.3594 36.4378 -11.0784
43.35 54.6313 36.6195 18.0118
43.4 30.3328 36.8177 -6.4849
43.45 38.757 37.0792 1.6778
43.5 46.7538 37.3408 9.413
43.55 48.6759 37.6952 10.9807
43.6 27.3411 38.126 -10.7849
43.65 31.6461 38.7065 -7.0604
43.7 40.7157 39.2869 1.4288
43.75 52.7029 40.0939 12.609
43.8 32.4422 41.1465 -8.7043
43.85 49.1542 42.5616 6.5926
43.9 53.0063 44.5199 8.4864
43.95 65.4408 47.4034 18.0374
44 50.7173 51.5588 -0.8415
44.05 63.6656 58.7778 4.8878
44.1 72.3144 71.4335 0.8809
44.15 101.032 102.831 -1.799
44.2 136.577 194.246 -57.669
44.25 418.121 466.361 -48.24
44.3 1198.82 1086.11 112.71
44.35 2101.32 1985.65 115.67
44.4 2332.54 2513.02 -180.48
44.45 1449.85 1540.85 -91
44.5 480.286 403.98 76.306
44.55 191.965 146.394 45.571
44.6 84.8427 87.2317 -2.389
44.65 72.2283 64.8871 7.3412
44.7 58.3532 54.0876 4.2656
44.75 51.7929 48.104 3.6889
44.8 56.1028 44.462 11.6408
44.85 52.5244 42.0858 10.4386
44.9 40.0066 40.4548 -0.4482
44.95 30.4237 39.4502 -9.0265
45 44.8902 38.4457 6.4445
45.05 34.0632 37.8752 -3.812
45.1 41.4135 37.3048 4.1087
45.15 49.5638 36.9322 12.6316
45.2 35.4025 36.5597 -1.1572
45.25 49.4044 36.3048 13.0996
45.3 45.3236 36.0498 9.2738
45.35 36.5013 35.8824 0.6189
45.4 27.707 35.715 -8.008
45.45 37.1979 35.589 1.6089
45.5 30.4353 35.463 -5.0277
45.55 40.215 35.332 4.883
45.6 39.669 35.2009 4.4681
45.65 33.3608 35.0767 -1.7159
45.7 29.1925 34.9525 -5.76
45.75 55.5946 34.8951 20.6995
45.8 39.8081 34.8454 4.9627
45.85 40.4506 34.7938 5.6568
45.9 33.671 34.7422 -1.0712
45.95 40.9874 34.6926 6.2948
46 43.6409 34.643 8.9979
46.05 35.9146 34.6109 1.3037
46.1 29.4467 34.5788 -5.1321
46.15 34.0541 34.5527 -0.4986
46.2 31.2287 34.5266 -3.2979
46.25 35.8724 34.4929 1.3795
46.3 41.5227 34.4592 7.0635
46.35 33.9993 34.4309 -0.4316
46.4 34.2532 34.4026 -0.1494
46.45 34.0487 34.3861 -0.3374
46.5 28.4888 34.3696 -5.8808
46.55 37.4534 34.3492 3.1042
46.6 43.3219 34.3288 8.9931
46.65 34.7585 34.3031 0.4554
46.7 35.4041 34.2774 1.1267
46.75 24.3364 34.2609 -9.9245
46.8 23.1843 34.2444 -11.0601
46.85 43.2125 34.2325 8.98
46.9 40.4721 34.2206 6.2515
46.95 37.1328 34.2008 2.932
47 29.0954 34.1811 -5.0857
47.05 40.5661 34.162 6.4041
47.1 26.8642 34.1429 -7.2787
47.15 29.3853 34.1328 -4.7475
47.2 34.6265 34.1226 0.5039
47.25 39.0648 34.1101 4.9547
47.3 30.0416 34.0976 -4.056
47.35 27.1661 34.0788 -6.9127
47.4 36.9058 34.0601 2.8457
47.45 41.414 34.0469 7.3671
47.5 31.0139 34.0338 -3.0199
47.55 34.946 34.0255 0.9205
47.6 38.3568 34.0173 4.3395
47.65 35.1979 34.0027 1.1952
47.7 30.7251 33.9882 -3.2631
47.75 26.3733 33.9721 -7.5988
47.8 29.3372 33.9559 -4.6187
47.85 29.7759 33.947 -4.1711
47.9 30.6698 33.9381 -3.2683
47.95 42.2137 33.9287 8.285
48 36.5991 33.9192 2.6799
48.05 38.6724 33.9036 4.7688
48.1 40.1716 33.8879 6.2837
48.15 41.3371 33.8755 7.4616
48.2 36.8437 33.8631 2.9806
48.25 40.2846 33.8559 6.4287
48.3 46.4901 33.8486 12.6415
48.35 34.351 33.8367 0.5143
48.4 40.469 33.8248 6.6442
48.45 33.3559 33.81 -0.4541
48.5 33.4725 33.7952 -0.3227
48.55 35.941 33.7862 2.1548
48.6 25.2237 33.7772 -8.5535
48.65 26.8178 33.7691 -6.9513
48.7 29.6684 33.7611 -4.0927
48.75 34.7066 33.7474 0.9592
48.8 38.6073 33.7336 4.8737
48.85 37.9518 33.7212 4.2306
48.9 36.0904 33.7088 2.3816
48.95 35.1608 33.7016 1.4592
49 39.8307 33.6944 6.1363
49.05 24.7451 33.6849 -8.9398
49.1 35.4762 33.6753 1.8009
49.15 22.829 33.6611 -10.8321
49.2 30.8994 33.6468 -2.7474
49.25 36.447 33.6371 2.8099
49.3 37.2103 33.6274 3.5829
49.35 28.7045 33.6204 -4.9159
49.4 32.0405 33.6133 -1.5728
49.45 29.5772 33.601 -4.0238
49.5 33.0698 33.5886 -0.5188
49.55 36.7907 33.5758 3.2149
49.6 30.3071 33.5629 -3.2558
49.65 35.251 33.5554 1.6956
49.7 43.449 33.5479 9.9011
49.75 30.1394 33.5392 -3.3998
49.8 32.1524 33.5304 -1.378
49.85 26.8313 33.5169 -6.6856
49.9 40.6037 33.5034 7.1003
49.95 40.9709 33.4929 7.478
50 36.5474 33.4824 3.065
50.05 33.2117 33.4755 -0.2638
50.1 34.3083 33.4687 0.8396
50.15 38.9525 33.4577 5.4948
50.2 37.5137 33.4467 4.067
50.25 36.3642 33.4336 2.9306
50.3 35.0441 33.4206 1.6235
50.35 37.7486 33.4124 4.3362
50.4 33.7457 33.4041 0.3416
50.45 25.9737 33.3962 -7.4225
50.5 35.4996 33.3884 2.1112
50.55 40.8062 33.3757 7.4305
50.6 28.0663 33.3631 -5.2968
50.65 39.5696 33.3518 6.2178
50.7 34.8086 33.3405 1.4681
50.75 32.3789 33.3334 -0.9545
50.8 33.7564 33.3263 0.4301
50.85 41.4466 33.3166 8.13
50.9 32.1841 33.3068 -1.1227
50.95 32.2672 33.2938 -1.0266
51 27.2894 33.2809 -5.9915
51.05 38.9603 33.2717 5.6886
51.1 22.5101 33.2625 -10.7524
51.15 41.5365 33.2551 8.2814
51.2 34.5367 33.2478 1.2889
51.25 32.7209 33.2362 -0.5153
51.3 31.824 33.2246 -1.4006
51.35 45.1458 33.2126 11.9332
51.4 28.4499 33.2006 -4.7507
51.45 38.315 33.193 5.122
51.5 34.916 33.1854 1.7306
51.55 33.6573 33.1767 0.4806
51.6 38.7317 33.168 5.5637
51.65 33.2482 33.1554 0.0928
51.7 29.1594 33.1428 -3.9834
51.75 32.0204 33.1326 -1.1122
51.8 36.0202 33.1223 2.8979
51.85 34.9783 33.1152 1.8631
51.9 27.989 33.108 -5.119
51.95 33.0581 33.0975 -0.0394
52 42.3078 33.0871 9.2207
52.05 27.0542 33.0747 -6.0205
52.1 29.5396 33.0623 -3.5227
52.15 34.0016 33.0538 0.9478
52.2 36.6493 33.0453 3.604
52.25 40.9802 33.0375 7.9427
52.3 33.4633 33.0296 0.4337
52.35 49.6605 33.0177 16.6428
52.4 29.3747 33.0059 -3.6312
52.45 32.6186 32.9947 -0.3761
52.5 33.0447 32.9835 0.0612
52.55 35.4856 32.9761 2.5095
52.6 25.7222 32.9686 -7.2464
52.65 24.7881 32.9593 -8.1712
52.7 20.2447 32.95 -12.7053
52.75 28.037 32.9377 -4.9007
52.8 28.2521 32.9253 -4.6732
52.85 26.1911 32.9157 -6.7246
52.9 37.2869 32.9062 4.3807
52.95 27.7001 32.8988 -5.1987
53 41.703 32.8914 8.8116
53.05 39.9531 32.8806 7.0725
53.1 33.1325 32.8697 0.2628
53.15 39.3509 32.8579 6.493
53.2 29.3148 32.846 -3.5312
53.25 36.3291 32.8378 3.4913
53.3 35.039 32.8297 2.2093
53.35 35.6352 32.8215 2.8137
53.4 35.6391 32.8132 2.8259
53.45 38.0731 32.8013 5.2718
53.5 38.0691 32.7894 5.2797
53.55 35.6683 32.7788 2.8895
53.6 27.891 32.7681 -4.8771
53.65 34.0293 32.7607 1.2686
53.7 38.9839 32.7533 6.2306
53.75 32.417 32.7437 -0.3267
53.8 31.5913 32.7341 -1.1428
53.85 33.6602 32.722 0.9382
53.9 41.6437 32.7098 8.9339
53.95 33.6359 32.7007 0.9352
54 30.1576 32.6915 -2.5339
54.05 27.5599 32.6839 -5.124
54.1 30.3314 32.6764 -2.345
54.15 37.1803 32.6654 4.5149
54.2 28.679 32.6545 -3.9755
54.25 39.9351 32.643 7.2921
54.3 39.3882 32.6314 6.7568
54.35 32.2101 32.6235 -0.4134
54.4 36.6363 32.6155 4.0208
54.45 32.3733 32.6071 -0.2338
54.5 37.0008 32.5986 4.4022
54.55 37.3489 32.5868 4.7621
54.6 32.8088 32.575 0.2338
54.65 35.0163 32.5647 2.4516
54.7 32.0844 32.5544 -0.47
54.75 27.2189 32.5469 -5.328
54.8 37.875 32.5395 5.3355
54.85 28.5945 32.5299 -3.9354
54.9 25.3457 32.5202 -7.1745
54.95 29.8188 32.5083 -2.6895
55 36.5938 32.4963 4.0975
55.05 31.2615 32.4873 -1.2258
55.1 38.7702 32.4783 6.2919
55.15 31.8007 32.4707 -0.67
55.2 36.5199 32.4632 4.0567
55.25 39.2125 32.4523 6.7602
55.3 34.486 32.4414 2.0446
55.35 26.5704 32.4301 -5.8597
55.4 41.8745 32.4188 9.4557
55.45 31.8642 32.4109 -0.5467
55.5 32.8611 32.4029 0.4582
55.55 27.0834 32.3946 -5.3112
55.6 25.675 32.3862 -6.7112
55.65 25.1086 32.3746 -7.266
55.7 26.8925 32.363 -5.4705
55.75 27.3082 32.3527 -5.0445
55.8 22.5592 32.3425 -9.7833
55.85 33.5266 32.3351 1.1915
55.9 29.1068 32.3277 -3.2209
55.95 27.8137 32.3182 -4.5045
56 30.9039 32.3087 -1.4048
56.05 29.2733 32.2969 -3.0236
56.1 27.9803 32.2852 -4.3049
56.15 30.5061 32.2762 -1.7701
56.2 29.5125 32.2672 -2.7547
56.25 32.3946 32.2597 0.1349
56.3 28.1053 32.2522 -4.1469
56.35 41.0376 32.2416 8.796
56.4 31.8809 32.2311 -0.3502
56.45 19.4373 32.2198 -12.7825
56.5 37.5245 32.2085 5.316
56.55 33.4416 32.2006 1.241
56.6 30.5449 32.1926 -1.6477
56.65 27.2816 32.1845 -4.9029
56.7 33.1783 32.1764 1.0019
56.75 30.0023 32.165 -2.1627
56.8 37.2755 32.1537 5.1218
56.85 32.608 32.1433 0.4647
56.9 41.4916 32.133 9.3586
56.95 38.3499 32.1257 6.2242
57 39.7727 32.1183 7.6544
57.05 32.7522 32.1093 0.6429
57.1 20.9818 32.1002 -11.1184
57.15 26.1614 32.0886 -5.9272
57.2 32.908 32.077 0.831
57.25 27.3616 32.0678 -4.7062
57.3 29.6037 32.0586 -2.4549
57.35 26.1575 32.0514 -5.8939
57.4 30.6924 32.0441 -1.3517
57.45 34.8755 32.034 2.8415
57.5 30.5822 32.0239 -1.4417
57.55 37.6123 32.0126 5.5997
57.6 20.0457 32.0013 -11.9556
57.65 31.4281 31.9932 -0.5651
57.7 30.4443 31.9851 -1.5408
57.75 28.4807 31.9774 -3.4967
57.8 29.5665 31.9697 -2.4032
57.85 28.3495 31.9588 -3.6093
57.9 30.8824 31.9479 -1.0655
57.95 33.4044 31.9373 1.4671
58 43.4862 31.9268 11.5594
58.05 21.4897 31.9194 -10.4297
58.1 32.1333 31.9121 0.2212
58.15 32.1857 31.9037 0.282
58.2 37.2648 31.8952 5.3696
58.25 47.7354 31.8841 15.8513
58.3 39.3127 31.8725 7.4402
58.35 24.2719 31.863 -7.5911
58.4 28.3798 31.8534 -3.4736
58.45 39.303 31.8464 7.4566
58.5 25.4413 31.8394 -6.3981
58.55 37.2817 31.8301 5.4516
58.6 31.623 31.8207 -0.1977
58.65 26.8049 31.8094 -5.0045
58.7 37.7795 31.7981 5.9814
58.75 33.7094 31.7896 1.9198
58.8 24.9275 31.7811 -6.8536
58.85 28.695 31.774 -3.079
58.9 36.0759 31.7669 4.309
58.95 26.7019 31.7567 -5.0548
59 34.562 31.7465 2.8155
59.05 26.0966 31.7356 -5.639
59.1 20.7017 31.7248 -11.0231
59.15 27.5673 31.7172 -4.1499
59.2 20.5619 31.7097 -11.1478
59.25 27.6965 31.7021 -4.0056
59.3 52.1351 31.6946 20.4405
59.35 29.2603 31.6837 -2.4234
59.4 29.405 31.6728 -2.2678
59.45 27.8213 31.6628 -3.8415
59.5 20.9011 31.6527 -10.7516
59.55 28.9492 31.6458 -2.6966
59.6 28.319 31.639 -3.32
59.65 31.9899 31.6237 0.3662
59.7 33.2755 31.6084 1.6671
59.75 27.005 31.5989 -4.5939
59.8 29.5781 31.5894 -2.0113
59.85 25.7679 31.5802 -5.8123
59.9 39.3067 31.5711 7.7356
59.95 23.9375 31.5629 -7.6254
60 31.083 31.5547 -0.4717
60.05 22.36 31.546 -9.186
60.1 29.732 31.5373 -1.8053
60.15 37.3395 31.5278 5.8117
60.2 36.4808 31.5182 4.9626
60.25 25.6904 31.5095 -5.8191
60.3 27.6914 31.5007 -3.8093
60.35 17.5468 31.4927 -13.9459
60.4 28.8477 31.4846 -2.6369
60.45 30.6961 31.4758 -0.7797
60.5 28.835 31.4669 -2.6319
60.55 24.903 31.4575 -6.5545
60.6 24.1351 31.4481 -7.313
60.65 29.1656 31.4397 -2.2741
60.7 29.6964 31.4314 -1.735
60.75 26.5286 31.4235 -4.8949
60.8 27.5845 31.4156 -3.8311
60.85 17.7253 31.4066 -13.6813
60.9 33.1451 31.3976 1.7475
60.95 39.8173 31.3884 8.4289
61 28.5179 31.3792 -2.8613
61.05 43.0351 31.3712 11.6639
61.1 30.6754 31.3633 -0.6879
61.15 29.3663 31.3555 -1.9892
61.2 40.018 31.3476 8.6704
61.25 22.5616 31.3385 -8.7769
61.3 35.8428 31.3294 4.5134
61.35 36.9303 31.3206 5.6097
61.4 40.3124 31.3118 9.0006
61.45 29.0956 31.3043 -2.2087
61.5 30.6671 31.2968 -0.6297
61.55 31.5976 31.289 0.3086
61.6 34.4854 31.2811 3.2043
61.65 28.7133 31.2721 -2.5588
61.7 30.0335 31.263 -1.2295
61.75 22.7497 31.2547 -8.505
61.8 38.6123 31.2464 7.3659
61.85 31.705 31.2394 0.4656
61.9 23.6412 31.2324 -7.5912
61.95 25.5706 31.2246 -5.654
62 29.8266 31.2168 -1.3902
62.05 29.3336 31.208 -1.8744
62.1 34.3065 31.1991 3.1074
62.15 33.833 31.1915 2.6415
62.2 26.0043 31.1839 -5.1796
62.25 31.2851 31.1775 0.1076
62.3 41.4682 31.1712 10.297
62.35 34.7207 31.1636 3.5571
62.4 27.8171 31.1561 -3.339
62.45 34.6244 31.1478 3.4766
62.5 33.8168 31.1395 2.6773
62.55 24.8065 31.1329 -6.3264
62.6 21.5818 31.1264 -9.5446
62.65 33.0975 31.121 1.9765
62.7 28.523 31.1157 -2.5927
62.75 29.6483 31.1088 -1.4605
62.8 27.8973 31.102 -3.2047
62.85 36.6788 31.0951 5.5837
62.9 39.403 31.0881 8.3149
62.95 29.6269 31.0836 -1.4567
63 31.9304 31.0792 0.8512
63.05 39.0225 31.0761 7.9464
63.1 31.859 31.0729 0.7861
63.15 32.0301 31.0688 0.9613
63.2 37.5984 31.0647 6.5337
63.25 31.6945 31.0623 0.6322
63.3 29.7463 31.06 -1.3137
63.35 31.2258 31.0651 0.1607
63.4 40.0787 31.0703 9.0084
63.45 27.3531 31.0962 -3.7431
63.5 35.0951 31.1221 3.973
63.55 33.1138 31.1485 1.9653
63.6 34.95 31.1749 3.7751
63.65 25.1432 31.1978 -6.0546
63.7 36.8243 31.2207 5.6036
63.75 38.8486 31.2566 7.592
63.8 40.3723 31.2926 9.0797
63.85 40.3113 31.3477 8.9636
63.9 29.9863 31.4028 -1.4165
63.95 31.2122 31.4895 -0.2773
64 33.18 31.5761 1.6039
64.05 26.894 31.7286 -4.8346
64.1 29.7685 31.8811 -2.1126
64.15 32.7874 32.1765 0.6109
64.2 27.553 32.472 -4.919
64.25 43.9719 33.1164 10.8555
64.3 37.8119 33.7608 4.0511
64.35 31.9206 35.4983 -3.5777
64.4 41.1538 37.2357 3.9181
64.45 44.4943 41.4749 3.0194
64.5 53.6682 50.426 3.2422
64.55 70.3107 69.7682 0.5425
64.6 101.215 105.875 -4.66
64.65 161.284 151.827 9.457
64.7 152.18 174.471 -22.291
64.75 145.017 144.247 0.77
64.8 91.4009 92.0732 -0.6723
64.85 67.6904 59.1241 8.5663
64.9 48.715 44.7225 3.9925
64.95 43.434 38.4801 4.9539
65 47.8941 35.4528 12.4413
65.05 42.6301 34.1604 8.4697
65.1 31.5609 32.8679 -1.307
65.15 31.0117 32.3729 -1.3612
65.2 40.1495 31.8779 8.2716
65.25 29.4269 31.6449 -2.218
65.3 30.2427 31.4119 -1.1692
65.35 24.1989 31.2868 -7.0879
65.4 35.7949 31.1617 4.6332
65.45 35.5416 31.0861 4.4555
65.5 15.2987 31.0105 -15.7118
65.55 35.5397 30.958 4.5817
65.6 24.2123 30.9054 -6.6931
65.65 35.9933 30.8668 5.1265
65.7 37.844 30.8281 7.0159
65.75 27.0976 30.7995 -3.7019
65.8 29.1477 30.7708 -1.6231
65.85 29.7334 30.7413 -1.0079
65.9 33.6043 30.7118 2.8925
65.95 30.2163 30.685 -0.4687
66 36.2093 30.6582 5.5511
66.05 40.7868 30.6407 10.1461
66.1 27.4944 30.6232 -3.1288
66.15 33.0093 30.6107 2.3986
66.2 42.5533 30.5983 11.955
66.25 35.9382 30.5877 5.3505
66.3 41.0346 30.5771 10.4575
66.35 33.6632 30.5655 3.0977
66.4 38.874 30.5539 8.3201
66.45 27.6227 30.5427 -2.92
66.5 29.5575 30.5315 -0.974
66.55 34.5504 30.5227 4.0277
66.6 27.9645 30.514 -2.5495
66.65 32.7149 30.5059 2.209
66.7 26.2858 30.4979 -4.2121
66.75 29.3995 30.4884 -1.0889
66.8 35.2178 30.4789 4.7389
66.85 28.9971 30.4695 -1.4724
66.9 28.7325 30.46 -1.7275
66.95 30.004 30.4526 -0.4486
67 21.1463 30.4451 -9.2988
67.05 24.9481 30.4381 -5.49
67.1 24.2119 30.431 -6.2191
67.15 32.2122 30.4224 1.7898
67.2 35.4088 30.4139 4.9949
67.25 47.3248 30.4053 16.9195
67.3 33.0408 30.3967 2.6441
67.35 29.3479 30.39 -1.0421
67.4 35.6806 30.3832 5.2974
67.45 24.5815 30.3766 -5.7951
67.5 32.4647 30.37 2.0947
67.55 32.4342 30.362 2.0722
67.6 52.0555 30.3539 21.7016
67.65 40.0934 30.3456 9.7478
67.7 36.0923 30.338 5.7543
67.75 32.5754 30.3316 2.2438
67.8 36.0751 30.3252 5.7499
67.85 30.7818 30.319 0.4628
67.9 27.154 30.3127 -3.1587
67.95 35.7313 30.305 5.4263
68 34.5959 30.2973 4.2986
68.05 16.0903 30.2897 -14.1994
68.1 31.6765 30.2822 1.3943
68.15 29.4194 30.2761 -0.8567
68.2 30.4017 30.2701 0.1316
68.25 24.8314 30.264 -5.4326
68.3 35.9868 30.2579 5.7289
68.35 19.0532 30.2505 -11.1973
68.4 21.3011 30.2431 -8.942
68.45 27.4981 30.2359 -2.7378
68.5 27.4524 30.2287 -2.7763
68.55 21.4911 30.2229 -8.7318
68.6 22.1519 30.2171 -8.0652
68.65 29.4297 30.2112 -0.7815
68.7 36.7044 30.2053 6.4991
68.75 35.3491 30.1982 5.1509
68.8 23.9155 30.191 -6.2755
68.85 22.4371 30.1841 -7.747
68.9 27.4006 30.1771 -2.7765
68.95 27.154 30.1716 -3.0176
69 29.4419 30.166 -0.7241
69.05 28.8396 30.1603 -1.3207
69.1 35.256 30.1546 5.1014
69.15 30.5063 30.1477 0.3586
69.2 40.6858 30.1407 10.5451
69.25 37.457 30.1341 7.3229
69.3 21.4506 30.1274 -8.6768
69.35 27.1262 30.122 -2.9958
69.4 30.5798 30.1167 0.4631
69.45 32.2863 30.1111 2.1752
69.5 30.6601 30.1056 0.5545
69.55 30.2297 30.0989 0.1308
69.6 24.1624 30.0922 -5.9298
69.65 34.9704 30.0858 4.8846
69.7 23.2541 30.0793 -6.8252
69.75 37.1683 30.0742 7.0941
69.8 43.642 30.069 13.573
69.85 32.3296 30.0637 2.2659
69.9 35.7704 30.0583 5.7121
69.95 24.7697 30.0518 -5.2821
70 42.3662 30.0453 12.3209
70.05 34.5202 30.0391 4.4811
70.1 22.9084 30.0329 -7.1245
70.15 29.1507 30.0279 -0.8772
70.2 32.7094 30.023 2.6864
70.25 25.1917 30.0178 -4.8261
70.3 31.6528 30.0127 1.6401
70.35 28.4505 30.0064 -1.5559
70.4 29.4579 30.0001 -0.5422
70.45 28.5341 29.9941 -1.46
70.5 34.7189 29.9881 4.7308
70.55 26.0791 29.9833 -3.9042
70.6 35.0964 29.9786 5.1178
70.65 34.7189 29.9736 4.7453
70.7 37.0092 29.9686 7.0406
70.75 24.0995 29.9626 -5.8631
70.8 33.1154 29.9565 3.1589
70.85 32.5959 29.9507 2.6452
70.9 33.7528 29.9449 3.8079
70.95 36.3667 29.9404 6.4263
71 33.4806 29.9358 3.5448
71.05 30.4972 29.931 0.5662
71.1 24.9591 29.9263 -4.9672
71.15 30.9093 29.9204 0.9889
71.2 27.6048 29.9146 -2.3098
71.25 34.2678 29.909 4.3588
71.3 23.343 29.9034 -6.5604
71.35 29.9978 29.899 0.0988
71.4 32.2689 29.8946 2.3743
71.45 38.7864 29.8901 8.8963
71.5 18.8412 29.8856 -11.0444
71.55 29.2584 29.8799 -0.6215
71.6 32.4485 29.8743 2.5742
71.65 31.723 29.8689 1.8541
71.7 29.1571 29.8635 -0.7064
71.75 31.9889 29.8593 2.1296
71.8 36.8413 29.8551 6.9862
71.85 33.891 29.8508 4.0402
71.9 28.7348 29.8465 -1.1117
71.95 26.2451 29.8412 -3.5961
72 30.7525 29.8358 0.9167
72.05 39.0281 29.8306 9.1975
72.1 38.719 29.8253 8.8937
72.15 24.9493 29.8213 -4.872
72.2 26.5703 29.8173 -3.247
72.25 32.8791 29.8133 3.0658
72.3 25.419 29.8092 -4.3902
72.35 29.1741 29.8041 -0.63
72.4 32.9476 29.799 3.1486
72.45 19.7392 29.7939 -10.0547
72.5 35.2303 29.7889 5.4414
72.55 26.6892 29.785 -3.0958
72.6 33.828 29.7812 4.0468
72.65 32.0029 29.7774 2.2255
72.7 32.5252 29.7736 2.7516
72.75 38.9747 29.7688 9.2059
72.8 28.2365 29.7639 -1.5274
72.85 33.4134 29.759 3.6544
72.9 33.9068 29.7541 4.1527
72.95 31.4608 29.7505 1.7103
73 33.6701 29.7468 3.9233
73.05 22.4278 29.7433 -7.3155
73.1 35.7511 29.7398 6.0113
73.15 25.112 29.7352 -4.6232
73.2 31.1438 29.7306 1.4132
73.25 38.3015 29.7259 8.5756
73.3 26.6604 29.7212 -3.0608
73.35 42.3035 29.7177 12.5858
73.4 32.8453 29.7142 3.1311
73.45 39.3418 29.711 9.6308
73.5 32.9992 29.7078 3.2914
73.55 30.259 29.7035 0.5555
73.6 27.2226 29.6992 -2.4766
73.65 28.7254 29.6947 -0.9693
73.7 33.5392 29.6902 3.849
73.75 30.064 29.687 0.377
73.8 23.285 29.6837 -6.3987
73.85 28.6706 29.6809 -1.0103
73.9 31.4876 29.6781 1.8095
73.95 30.3957 29.6743 0.7214
74 40.1763 29.6705 10.5058
74.05 27.0708 29.6664 -2.5956
74.1 41.378 29.6622 11.7158
74.15 19.6582 29.6592 -10.001
74.2 41.2442 29.6563 11.5879
74.25 26.2851 29.6539 -3.3688
74.3 24.9092 29.6516 -4.7424
74.35 40.741 29.6486 11.0924
74.4 47.436 29.645 17.791
74.45 40.2502 29.6411 10.6091
74.5 31.6555 29.6373 2.0182
74.55 42.7271 29.6346 13.0925
74.6 27.5514 29.6318 -2.0804
74.65 32.8221 29.6299 3.1922
74.7 26.5583 29.628 -3.0697
74.75 39.926 29.6252 10.3008
74.8 30.7992 29.6224 1.1768
74.85 43.944 29.6189 14.3251
74.9 30.7183 29.6154 1.1029
74.95 29.3918 29.6129 -0.2211
75 25.7884 29.6103 -3.8219
75.05 30.1428 29.6088 0.534
75.1 33.9139 29.6073 4.3066
75.15 28.8188 29.605 -0.7862
75.2 34.3674 29.6028 4.7646
75.25 24.3849 29.5996 -5.2147
75.3 37.2925 29.5964 7.6961
75.35 45.8498 29.5941 16.2557
75.4 27.2113 29.5917 -2.3804
75.45 36.6507 29.5906 7.0601
75.5 29.1667 29.5894 -0.4227
75.55 29.403 29.5877 -0.1847
75.6 28.2573 29.586 -1.3287
75.65 30.2722 29.5831 0.6891
75.7 41.7231 29.5803 12.1428
75.75 38.602 29.5781 9.0239
75.8 26.688 29.576 -2.888
75.85 37.6142 29.5751 8.0391
75.9 34.8978 29.5743 5.3235
75.95 24.2741 29.5731 -5.299
76 38.3557 29.5719 8.7838
76.05 38.747 29.5695 9.1775
76.1 38.9874 29.5671 9.4203
76.15 21.0911 29.565 -8.4739
76.2 22.4215 29.563 -7.1415
76.25 20.8457 29.5624 -8.7167
76.3 28.4667 29.5619 -1.0952
76.35 24.845 29.5612 -4.7162
76.4 23.3112 29.5606 -6.2494
76.45 26.512 29.5586 -3.0466
76.5 30.2398 29.5566 0.6832
76.55 38.8321 29.5547 9.2774
76.6 25.963 29.5528 -3.5898
76.65 29.5418 29.5524 -0.0106
76.7 33.3934 29.552 3.8414
76.75 34.1158 29.5519 4.5639
76.8 30.6109 29.5519 1.059
76.85 25.9374 29.5504 -3.613
76.9 33.6429 29.5489 4.094
76.95 33.6913 29.5471 4.1442
77 17.9526 29.5454 -11.5928
77.05 30.1247 29.5451 0.5796
77.1 23.5533 29.5449 -5.9916
77.15 26.5114 29.5453 -3.0339
77.2 34.7823 29.5457 5.2366
77.25 30.4538 29.5449 0.9089
77.3 31.9325 29.544 2.3885
77.35 43.185 29.5424 13.6426
77.4 31.5092 29.5408 1.9684
77.45 35.419 29.5406 5.8784
77.5 26.8201 29.5404 -2.7203
77.55 31.1592 29.5413 1.6179
77.6 28.7234 29.5422 -0.8188
77.65 20.9926 29.542 -8.5494
77.7 30.5353 29.5418 0.9935
77.75 36.2728 29.5405 6.7323
77.8 35.1788 29.5391 5.6397
77.85 27.368 29.5389 -2.1709
77.9 33.3652 29.5387 3.8265
77.95 16.6718 29.54 -12.8682
78 22.9937 29.5414 -6.5477
78.05 20.9666 29.5419 -8.5753
78.1 31.7287 29.5425 2.1862
78.15 28.0997 29.5416 -1.4419
78.2 37.4395 29.5406 7.8989
78.25 22.892 29.5404 -6.6484
78.3 39.9624 29.5401 10.4223
78.35 27.0878 29.5418 -2.454
78.4 35.4631 29.5434 5.9197
78.45 38.5701 29.5449 9.0252
78.5 25.1266 29.5463 -4.4197
78.55 37.7709 29.5459 8.225
78.6 33.283 29.5456 3.7374
78.65 29.2727 29.5454 -0.2727
78.7 28.9783 29.5451 -0.5668
78.75 26.6847 29.547 -2.8623
78.8 30.7875 29.5489 1.2386
78.85 31.1914 29.5513 1.6401
78.9 35.1282 29.5536 5.5746
78.95 27.8802 29.5542 -1.674
79 40.4156 29.5547 10.8609
79.05 36.5456 29.5547 6.9909
79.1 28.3923 29.5546 -1.1623
79.15 26.9769 29.5567 -2.5798
79.2 28.3561 29.5587 -1.2026
79.25 34.367 29.5622 4.8048
79.3 15.408 29.5656 -14.1576
79.35 27.0734 29.5679 -2.4945
79.4 29.3442 29.5702 -0.226
79.45 29.2739 29.5705 -0.2966
79.5 31.3454 29.5709 1.7745
79.55 26.2304 29.5734 -3.343
79.6 23.2186 29.5759 -6.3573
79.65 34.5179 29.5808 4.9371
79.7 26.1937 29.5858 -3.3921
79.75 32.4821 29.5896 2.8925
79.8 27.9578 29.5935 -1.6357
79.85 39.2007 29.5953 9.6054
79.9 26.8816 29.5971 -2.7155
79.95 22.9174 29.6005 -6.6831
80 36.8164 29.6039 7.2125
80.05 41.041 29.6108 11.4302
80.1 22.2763 29.6178 -7.3415
80.15 23.7243 29.6253 -5.901
80.2 36.2101 29.6328 6.5773
80.25 27.7973 29.6384 -1.8411
80.3 20.498 29.644 -9.146
80.35 26.6404 29.6508 -3.0104
80.4 33.7627 29.6575 4.1052
80.45 33.5821 29.6697 3.9124
80.5 31.8465 29.6818 2.1647
80.55 21.1537 29.6987 -8.545
80.6 26.0612 29.7156 -3.6544
80.65 26.2841 29.7372 -3.4531
80.7 31.8084 29.7588 2.0496
80.75 41.1236 29.8101 11.3135
80.8 31.3995 29.8614 1.5381
80.85 41.5061 29.9401 11.566
80.9 34.9168 30.0187 4.8981
80.95 30.6578 30.0855 0.5723
81 27.8349 30.1523 -2.3174
81.05 26.8505 30.2357 -3.3852
81.1 30.2341 30.319 -0.0849
81.15 34.1535 30.436 3.7175
81.2 33.0119 30.553 2.4589
81.25 32.1712 30.7373 1.4339
81.3 28.3378 30.9215 -2.5837
81.35 29.9815 31.2372 -1.2557
81.4 29.1783 31.5529 -2.3746
81.45 28.6301 32.1425 -3.5124
81.5 32.4447 32.7321 -0.2874
81.55 44.8561 33.999 10.8571
81.6 23.7757 35.266 -11.4903
81.65 36.5312 38.6678 -2.1366
81.7 39.5212 42.0695 -2.5483
81.75 77.8884 50.4204 27.468
81.8 66.4097 68.4724 -2.0627
81.85 97.7142 108.846 -11.1318
81.9 178.652 184.602 -5.95
81.95 280.088 272.82 7.268
82 297.983 294.881 3.102
82.05 205.7 217.142 -11.442
82.1 100.533 123.973 -23.44
82.15 81.545 73.537 8.008
82.2 50.3048 51.5721 -1.2673
82.25 62.0745 42.451 19.6235
82.3 37.3817 37.5427 -0.161
82.35 41.2986 34.9615 6.3371
82.4 44.3043 33.4169 10.8874
82.45 30.0283 32.5976 -2.5693
82.5 30.1754 31.7784 -1.603
82.55 25.7114 31.3863 -5.6749
82.6 32.3801 30.9943 1.3858
82.65 36.7494 30.7839 5.9655
82.7 33.5262 30.5736 2.9526
82.75 26.2318 30.4517 -4.2199
82.8 28.807 30.3297 -1.5227
82.85 27.2346 30.2514 -3.0168
82.9 42.9463 30.1731 12.7732
82.95 41.3798 30.117 11.2628
83 33.2989 30.0609 3.238
83.05 23.9314 30.0174 -6.086
83.1 18.1492 29.9738 -11.8246
83.15 29.8017 29.9266 -0.1249
83.2 36.2133 29.8794 6.3339
83.25 28.5528 29.8546 -1.3018
83.3 38.4532 29.8299 8.6233
83.35 35.5367 29.8156 5.7211
83.4 36.6428 29.8013 6.8415
83.45 26.51 29.7902 -3.2802
83.5 29.9339 29.7791 0.1548
83.55 28.2067 29.7728 -1.5661
83.6 39.5455 29.7665 9.779
83.65 36.8709 29.7638 7.1071
83.7 38.4092 29.7612 8.648
83.75 44.6233 29.7585 14.8648
83.8 29.8943 29.7557 0.1386
83.85 37.1807 29.7517 7.429
83.9 26.6436 29.7478 -3.1042
83.95 34.5301 29.7453 4.7848
84 22.8906 29.7427 -6.8521
84.05 30.4326 29.7431 0.6895
84.1 31.0156 29.7435 1.2721
84.15 30.9563 29.7444 1.2119
84.2 37.7038 29.7453 7.9585
84.25 21.4601 29.7446 -8.2845
84.3 26.7768 29.7439 -2.9671
84.35 28.6823 29.7428 -1.0605
84.4 35.0624 29.7417 5.3207
84.45 21.7073 29.7427 -8.0354
84.5 27.7649 29.7437 -1.9788
84.55 20.4573 29.746 -9.2887
84.6 22.1538 29.7483 -7.5945
84.65 25.8712 29.7496 -3.8784
84.7 34.3272 29.7509 4.5763
84.75 36.0844 29.7509 6.3335
84.8 35.6653 29.7509 5.9144
84.85 30.8343 29.7518 1.0825
84.9 20.3666 29.7528 -9.3862
84.95 30.5019 29.7554 0.7465
85 30.2237 29.758 0.4657
85.05 32.8324 29.7605 3.0719
85.1 27.0546 29.7631 -2.7085
85.15 27.389 29.7641 -2.3751
85.2 29.6549 29.7652 -0.1103
85.25 35.4097 29.7661 5.6436
85.3 35.367 29.7671 5.5999
85.35 25.5553 29.7694 -4.2141
85.4 23.3537 29.7718 -6.4181
85.45 30.7952 29.7749 1.0203
85.5 26.2941 29.778 -3.4839
85.55 28.4006 29.7801 -1.3795
85.6 40.977 29.7821 11.1949
85.65 33.2127 29.7833 3.4294
85.7 28.8911 29.7845 -0.8934
85.75 30.3933 29.7865 0.6068
85.8 35.0311 29.7884 5.2427
85.85 36.5305 29.7916 6.7389
85.9 33.1981 29.7947 3.4034
85.95 28.623 29.7975 -1.1745
86 15.5545 29.8004 -14.2459
86.05 25.6709 29.8021 -4.1312
86.1 31.0199 29.8038 1.2161
86.15 33.5417 29.8055 3.7362
86.2 31.1588 29.8072 1.3516
86.25 28.0825 29.81 -1.7275
86.3 32.1211 29.8128 2.3083
86.35 21.9624 29.816 -7.8536
86.4 32.8254 29.8193 3.0061
86.45 22.4422 29.8216 -7.3794
86.5 32.2887 29.824 2.4647
86.55 36.8297 29.8258 7.0039
86.6 28.5462 29.8275 -1.2813
86.65 32.2873 29.8299 2.4574
86.7 27.1102 29.8322 -2.722
86.75 24.5577 29.8355 -5.2778
86.8 35.0041 29.8387 5.1654
86.85 28.8661 29.8416 -0.9755
86.9 38.2874 29.8445 8.4429
86.95 22.8181 29.8466 -7.0285
87 40.5089 29.8486 10.6603
87.05 33.2367 29.8507 3.386
87.1 36.6552 29.8528 6.8024
87.15 38.3267 29.8557 8.471
87.2 35.7425 29.8586 5.8839
87.25 27.6361 29.8618 -2.2257
87.3 27.4296 29.865 -2.4354
87.35 37.7341 29.8675 7.8666
87.4 24.4621 29.8701 -5.408
87.45 27.3002 29.8721 -2.5719
87.5 33.8027 29.8741 3.9286
87.55 36.2098 29.8766 6.3332
87.6 27.5858 29.8791 -2.2933
87.65 22.835 29.8823 -7.0473
87.7 30.8932 29.8855 1.0077
87.75 23.7263 29.8884 -6.1621
87.8 29.3164 29.8913 -0.5749
87.85 28.4941 29.8936 -1.3995
87.9 32.1337 29.8958 2.2379
87.95 33.7862 29.898 3.8882
88 28.9817 29.9003 -0.9186
88.05 20.7561 29.9031 -9.147
88.1 30.7884 29.906 0.8824
88.15 35.9974 29.9091 6.0883
88.2 24.955 29.9122 -4.9572
88.25 40.6492 29.9148 10.7344
88.3 33.222 29.9174 3.3046
88.35 24.9771 29.9196 -4.9425
88.4 22.9064 29.9218 -7.0154
88.45 33.2597 29.9243 3.3354
88.5 29.5962 29.9268 -0.3306
88.55 20.1854 29.9298 -9.7444
88.6 22.6446 29.9328 -7.2882
88.65 24.2853 29.9357 -5.6504
88.7 25.5227 29.9386 -4.4159
88.75 30.4648 29.9409 0.5239
88.8 31.4182 29.9433 1.4749
88.85 30.2531 29.9455 0.3076
88.9 31.6614 29.9478 1.7136
88.95 24.0846 29.9505 -5.8659
89 20.8026 29.9533 -9.1507
89.05 28.4408 29.9562 -1.5154
89.1 34.3159 29.9592 4.3567
89.15 32.4388 29.9618 2.477
89.2 22.222 29.9644 -7.7424
89.25 25.7047 29.9666 -4.2619
89.3 30.858 29.9688 0.8892
89.35 23.9226 29.9712 -6.0486
89.4 22.9322 29.9736 -7.0414
89.45 32.0249 29.9764 2.0485
89.5 28.3054 29.9793 -1.6739
89.55 26.3803 29.982 -3.6017
89.6 34.0996 29.9848 4.1148
89.65 28.6845 29.9871 -1.3026
89.7 29.0247 29.9895 -0.9648
89.75 29.8472 29.9917 -0.1445
89.8 33.4955 29.9939 3.5016
89.85 34.2398 29.9964 4.2434
89.9 34.3302 29.999 4.3312
89.95 30.4983 30.0017 0.4966
90 29.868 30.0045 -0.1365
90.05 31.0379 30.007 1.0309
90.1 30.0036 30.0095 -0.0059
90.15 27.2616 30.0118 -2.7502
90.2 31.6197 30.014 1.6057
90.25 37.6669 30.0164 7.6505
90.3 29.7249 30.0188 -0.2939
90.35 33.6699 30.0216 3.6483
90.4 34.4681 30.0243 4.4438
90.45 34.6334 30.0271 4.6063
90.5 31.9781 30.0299 1.9482
90.55 28.4356 30.0325 -1.5969
90.6 33.5837 30.0351 3.5486
90.65 31.9655 30.0376 1.9279
90.7 32.6364 30.0401 2.5963
90.75 28.4992 30.0428 -1.5436
90.8 29.3747 30.0456 -0.6709
90.85 32.403 30.0485 2.3545
90.9 31.0719 30.0515 1.0204
90.95 32.5829 30.0544 2.5285
91 25.3472 30.0573 -4.7101
91.05 20.8252 30.06 -9.2348
91.1 23.9103 30.0628 -6.1525
91.15 23.9238 30.0655 -6.1417
91.2 36.1417 30.0683 6.0734
91.25 38.5333 30.0713 8.462
91.3 22.0401 30.0743 -8.0342
91.35 42.6481 30.0774 12.5707
91.4 34.3446 30.0806 4.264
91.45 33.1947 30.0836 3.1111
91.5 23.3528 30.0865 -6.7337
91.55 27.9171 30.0895 -2.1724
91.6 21.3731 30.0924 -8.7193
91.65 29.9478 30.0955 -0.1477
91.7 36.2373 30.0985 6.1388
91.75 25.9827 30.1017 -4.119
91.8 40.3239 30.1049 10.219
91.85 32.3604 30.1082 2.2522
91.9 24.5009 30.1114 -5.6105
91.95 27.9132 30.1145 -2.2013
92 28.8659 30.1176 -1.2517
92.05 36.089 30.1208 5.9682
92.1 34.3013 30.124 4.1773
92.15 34.456 30.1273 4.3287
92.2 42.8503 30.1306 12.7197
92.25 29.1375 30.1339 -0.9964
92.3 27.5988 30.1373 -2.5385
92.35 29.7882 30.1406 -0.3524
92.4 26.4789 30.1439 -3.665
92.45 32.0282 30.1473 1.8809
92.5 24.3771 30.1506 -5.7735
92.55 24.7611 30.154 -5.3929
92.6 27.3878 30.1574 -2.7696
92.65 34.1979 30.1609 4.037
92.7 29.4969 30.1644 -0.6675
92.75 35.8949 30.1679 5.727
92.8 25.5613 30.1713 -4.61
92.85 31.5666 30.1748 1.3918
92.9 33.591 30.1782 3.4128
92.95 28.1688 30.1818 -2.013
93 32.588 30.1853 2.4027
93.05 35.493 30.1889 5.3041
93.1 33.627 30.1926 3.4344
93.15 36.3149 30.1962 6.1187
93.2 24.4384 30.1999 -5.7615
93.25 34.8073 30.2034 4.6039
93.3 15.6122 30.207 -14.5948
93.35 37.6295 30.2106 7.4189
93.4 31.3367 30.2142 1.1225
93.45 28.14 30.2185 -2.0785
93.5 33.456 30.2227 3.2333
93.55 27.2819 30.2263 -2.9444
93.6 36.5053 30.23 6.2753
93.65 34.2656 30.2337 4.0319
93.7 34.9311 30.2373 4.6938
93.75 39.3918 30.2411 9.1507
93.8 33.7533 30.2449 3.5084
93.85 37.1142 30.2489 6.8653
93.9 33.2452 30.253 2.9922
93.95 31.291 30.2569 1.0341
94 28.0788 30.2609 -2.1821
94.05 16.9202 30.2648 -13.3446
94.1 21.5606 30.2686 -8.708
94.15 25.5842 30.2724 -4.6882
94.2 38.47 30.2762 8.1938
94.25 35.0677 30.2802 4.7875
94.3 34.3954 30.2842 4.1112
94.35 34.41 30.2885 4.1215
94.4 37.7108 30.2927 7.4181
94.45 32.3426 30.2969 2.0457
94.5 23.9617 30.3012 -6.3395
94.55 39.8542 30.3052 9.549
94.6 30.479 30.3092 0.1698
94.65 24.7407 30.3132 -5.5725
94.7 26.5062 30.3171 -3.8109
94.75 23.997 30.3214 -6.3244
94.8 24.7055 30.3256 -5.6201
94.85 29.3363 30.3301 -0.9938
94.9 28.5248 30.3346 -1.8098
94.95 25.3709 30.3391 -4.9682
95 22.2409 30.3437 -8.1028
95.05 29.7838 30.3479 -0.5641
95.1 32.6779 30.3522 2.3257
95.15 23.8977 30.3564 -6.4587
95.2 29.9881 30.3605 -0.3724
95.25 31.3121 30.365 0.9471
95.3 28.708 30.3696 -1.6616
95.35 25.8792 30.3745 -4.4953
95.4 22.1122 30.3794 -8.2672
95.45 30.1756 30.3844 -0.2088
95.5 34.877 30.3893 4.4877
95.55 27.3719 30.3939 -3.022
95.6 40.7941 30.3985 10.3956
95.65 31.5443 30.403 1.1413
95.7 37.7212 30.4075 7.3137
95.75 37.696 30.4125 7.2835
95.8 30.4948 30.4175 0.0773
95.85 44.3917 30.4231 13.9686
95.9 34.82 30.4287 4.3913
95.95 33.3188 30.4344 2.8844
96 32.2193 30.44 1.7793
96.05 35.9801 30.4453 5.5348
96.1 28.9889 30.4505 -1.4616
96.15 33.5501 30.4557 3.0944
96.2 24.1779 30.461 -6.2831
96.25 31.3483 30.467 0.8813
96.3 32.669 30.473 2.196
96.35 23.6492 30.4799 -6.8307
96.4 28.8105 30.4868 -1.6763
96.45 30.6403 30.4939 0.1464
96.5 25.1152 30.5011 -5.3859
96.55 24.4591 30.508 -6.0489
96.6 30.0815 30.5148 -0.4333
96.65 24.1376 30.522 -6.3844
96.7 32.9554 30.5292 2.4262
96.75 32.8681 30.5379 2.3302
96.8 21.6841 30.5465 -8.8624
96.85 15.3083 30.5566 -15.2483
96.9 35.3674 30.5675 4.7999
96.95 21.3181 30.5793 -9.2612
97 29.6029 30.5911 -0.9882
97.05 26.9952 30.6041 -3.6089
97.1 29.4283 30.6171 -1.1888
97.15 41.2679 30.6333 10.6346
97.2 29.0666 30.6495 -1.5829
97.25 22.8579 30.6749 -7.817
97.3 21.0632 30.7004 -9.6372
97.35 34.1288 30.7433 3.3855
97.4 28.7735 30.7862 -2.0127
97.45 33.9974 30.8323 3.1651
97.5 30.6989 30.8784 -0.1795
97.55 37.9998 30.9321 7.0677
97.6 37.1901 30.9859 6.2042
97.65 26.6001 31.0605 -4.4604
97.7 25.9304 31.1352 -5.2048
97.75 29.5482 31.2498 -1.7016
97.8 33.9833 31.3644 2.6189
97.85 37.3453 31.5539 5.7914
97.9 31.8747 31.7434 0.1313
97.95 26.9319 32.0836 -5.1517
98 24.3487 32.4237 -8.075
98.05 31.7053 33.1079 -1.4026
98.1 39.4242 33.7921 5.6321
98.15 39.6395 35.4025 4.237
98.2 40.0685 37.0129 3.0556
98.25 33.5957 41.737 -8.1413
98.3 44.3862 46.461 -2.0748
98.35 54.4682 58.5837 -4.1155
98.4 80.7914 79.4278 1.3636
98.45 119.816 112.486 7.33
98.5 144.554 146.361 -1.807
98.55 150.801 157.011 -6.21
98.6 139.028 134.686 4.342
98.65 80.296 98.5913 -18.2953
98.7 78.3207 70.3336 7.9871
98.75 64.3961 54.2879 10.1082
98.8 40.6836 45.0106 -4.327
98.85 37.2095 41.0971 -3.8876
98.9 34.6545 37.1836 -2.5291
98.95 36.391 35.6862 0.7048
99 38.9058 34.1888 4.717
99.05 40.8278 33.5037 7.3241
99.1 26.1772 32.8186 -6.6414
99.15 33.8828 32.4617 1.4211
99.2 35.8659 32.1047 3.7612
99.25 37.6146 31.9002 5.7144
99.3 36.3391 31.6956 4.6435
99.35 38.2287 31.5707 6.658
99.4 16.5659 31.4458 -14.8799
99.45 31.9285 31.3651 0.5634
99.5 36.1881 31.2844 4.9037
99.55 26.5595 31.2259 -4.6664
99.6 35.1451 31.1673 3.9778
99.65 31.7936 31.1093 0.6843
99.7 24.7683 31.0513 -6.283
99.75 28.5894 30.997 -2.4076
99.8 25.2362 30.9426 -5.7064
99.85 26.9339 30.9196 -3.9857
99.9 39.171 30.8965 8.2745
99.95 32.0094 30.8874 1.122
100 33.6617 30.8782 2.7835
100.05 23.3209 30.8739 -7.553
100.1 22.9957 30.8695 -7.8738
100.15 27.1254 30.8663 -3.7409
100.2 29.3066 30.8631 -1.5565
100.25 34.3458 30.8605 3.4853
100.3 24.8765 30.8578 -5.9813
100.35 33.0381 30.857 2.1811
100.4 25.686 30.8562 -5.1702
100.45 28.7071 30.8577 -2.1506
100.5 27.2262 30.8592 -3.633
100.55 31.896 30.8618 1.0342
100.6 20.3541 30.8644 -10.5103
100.65 18.2774 30.8666 -12.5892
100.7 18.3308 30.8682 -12.5374
100.75 36.0629 30.8693 5.1936
100.8 26.6615 30.8703 -4.2088
100.85 31.4241 30.872 0.5521
100.9 36.0439 30.8737 5.1702
100.95 25.9136 30.8771 -4.9635
101 29.1272 30.8804 -1.7532
101.05 34.3239 30.8846 3.4393
101.1 29.5973 30.8888 -1.2915
101.15 22.8736 30.8923 -8.0187
101.2 28.1862 30.8959 -2.7097
101.25 35.3881 30.8983 4.4898
101.3 30.3478 30.9008 -0.553
101.35 27.3036 30.9032 -3.5996
101.4 29.0201 30.9057 -1.8856
101.45 25.805 30.9095 -5.1045
101.5 22.2216 30.9133 -8.6917
101.55 26.3746 30.918 -4.5434
101.6 36.5799 30.9228 5.6571
101.65 32.692 30.9271 1.7649
101.7 30.8289 30.9314 -0.1025
101.75 23.5058 30.9336 -7.4278
101.8 30.0023 30.9358 -0.9335
101.85 29.0844 30.939 -1.8546
101.9 25.8265 30.9422 -5.1157
101.95 33.9389 30.9462 2.9927
102 26.1088 30.9501 -4.8413
102.05 36.6968 30.9547 5.7421
102.1 36.8185 30.9592 5.8593
102.15 26.8403 30.9636 -4.1233
102.2 19.1762 30.968 -11.7918
102.25 35.8353 30.9716 4.8637
102.3 25.011 30.9753 -5.9643
102.35 31.4352 30.9787 0.4565
102.4 28.8243 30.9821 -2.1578
102.45 36.3511 30.986 5.3651
102.5 31.5764 30.9899 0.5865
102.55 29.854 30.9944 -1.1404
102.6 30.4423 30.999 -0.5567
102.65 23.7296 31.0035 -7.2739
102.7 34.6183 31.0081 3.6102
102.75 34.4822 31.012 3.4702
102.8 35.9369 31.016 4.9209
102.85 35.5646 31.0195 4.5451
102.9 24.7225 31.023 -6.3005
102.95 35.8601 31.0268 4.8333
103 30.3269 31.0306 -0.7037
103.05 25.2266 31.035 -5.8084
103.1 27.7766 31.0394 -3.2628
103.15 31.1154 31.044 0.0714
103.2 23.5914 31.0486 -7.4572
103.25 29.6859 31.0528 -1.3669
103.3 25.6663 31.057 -5.3907
103.35 34.306 31.0606 3.2454
103.4 33.6413 31.0642 2.5771
103.45 28.949 31.0679 -2.1189
103.5 32.3811 31.0716 1.3095
103.55 33.8263 31.0758 2.7505
103.6 20.8126 31.08 -10.2674
103.65 30.9581 31.0846 -0.1265
103.7 33.9166 31.0891 2.8275
103.75 21.4705 31.0934 -9.6229
103.8 37.6565 31.0978 6.5587
103.85 45.3619 31.1015 14.2604
103.9 28.8875 31.1053 -2.2178
103.95 36.4863 31.1089 5.3774
104 40.6467 31.1125 9.5342
104.05 28.7168 31.1164 -2.3996
104.1 34.0173 31.1204 2.8969
104.15 31.3024 31.1249 0.1775
104.2 32.8375 31.1293 1.7082
104.25 42.871 31.1337 11.7373
104.3 25.0257 31.1381 -6.1124
104.35 24.3852 31.142 -6.7568
104.4 28.7816 31.1459 -2.3643
104.45 31.4054 31.1494 0.256
104.5 35.2674 31.153 4.1144
104.55 28.7868 31.1567 -2.3699
104.6 37.0453 31.1605 5.8848
104.65 30.2463 31.1647 -0.9184
104.7 21.9977 31.1689 -9.1712
104.75 32.9581 31.1733 1.7848
104.8 24.3462 31.1777 -6.8315
104.85 32.1886 31.1817 1.0069
104.9 30.1178 31.1857 -1.0679
104.95 40.9147 31.1893 9.7254
105 25.7747 31.1929 -5.4182
105.05 30.2993 31.1964 -0.8971
105.1 34.2788 31.2 3.0788
105.15 26.7401 31.2039 -4.4638
105.2 29.5631 31.2078 -1.6447
105.25 28.923 31.2121 -2.2891
105.3 27.8002 31.2164 -3.4162
105.35 30.1765 31.2205 -1.044
105.4 28.1557 31.2246 -3.0689
105.45 26.388 31.2283 -4.8403
105.5 24.5072 31.2319 -6.7247
105.55 25.938 31.2353 -5.2973
105.6 26.6335 31.2387 -4.6052
105.65 27.5912 31.2424 -3.6512
105.7 27.4482 31.246 -3.7978
105.75 21.3527 31.2501 -9.8974
105.8 39.7532 31.2541 8.4991
105.85 36.0104 31.2583 4.7521
105.9 32.3436 31.2624 1.0812
105.95 30.2701 31.2661 -0.996
106 27.4677 31.2699 -3.8022
106.05 32.6167 31.2733 1.3434
106.1 27.548 31.2766 -3.7286
106.15 33.4831 31.28 2.2031
106.2 42.2968 31.2834 11.0134
106.25 26.5594 31.2872 -4.7278
106.3 32.0854 31.2909 0.7945
106.35 30.3475 31.2949 -0.9474
106.4 21.1393 31.2989 -10.1596
106.45 28.696 31.3028 -2.6068
106.5 42.7079 31.3066 11.4013
106.55 22.7089 31.31 -8.6011
106.6 26.7505 31.3135 -4.563
106.65 24.3455 31.3166 -6.9711
106.7 28.0943 31.3198 -3.2255
106.75 31.9533 31.3233 0.63
106.8 22.6426 31.3267 -8.6841
106.85 33.1135 31.3304 1.7831
106.9 32.5386 31.3342 1.2044
106.95 25.4616 31.3381 -5.8765
107 32.5372 31.3419 1.1953
107.05 39.5654 31.3454 8.22
107.1 34.9297 31.3489 3.5808
107.15 21.3573 31.3521 -9.9948
107.2 37.7089 31.3552 6.3537
107.25 32.705 31.3583 1.3467
107.3 32.7412 31.3614 1.3798
107.35 27.0235 31.3648 -4.3413
107.4 26.8162 31.3683 -4.5521
107.45 35.4151 31.372 4.0431
107.5 24.8305 31.3757 -6.5452
107.55 33.4024 31.3793 2.0231
107.6 33.9095 31.3829 2.5266
107.65 34.2868 31.386 2.9008
107.7 31.9864 31.3892 0.5972
107.75 28.5739 31.3921 -2.8182
107.8 26.4324 31.395 -4.9626
107.85 22.1838 31.3981 -9.2143
107.9 23.5041 31.4011 -7.897
107.95 27.7639 31.4046 -3.6407
108 44.1722 31.408 12.7642
108.05 26.2354 31.4116 -5.1762
108.1 30.7879 31.4151 -0.6272
108.15 30.3615 31.4184 -1.0569
108.2 28.4532 31.4217 -2.9685
108.25 30.389 31.4246 -1.0356
108.3 37.0424 31.4275 5.6149
108.35 24.9821 31.4304 -6.4483
108.4 31.6447 31.4332 0.2115
108.45 27.807 31.4363 -3.6293
108.5 33.8274 31.4395 2.3879
108.55 21.447 31.4429 -9.9959
108.6 21.8333 31.4464 -9.6131
108.65 27.5119 31.4498 -3.9379
108.7 22.9986 31.4533 -8.4547
108.75 33.635 31.4564 2.1786
108.8 30.1283 31.4595 -1.3312
108.85 27.3853 31.4622 -4.0769
108.9 23.0018 31.465 -8.4632
108.95 21.2261 31.4678 -10.2417
109 29.8864 31.4707 -1.5843
109.05 31.9141 31.4739 0.4402
109.1 25.7662 31.4771 -5.7109
109.15 33.5219 31.4805 2.0414
109.2 30.2357 31.484 -1.2483
109.25 33.1022 31.4873 1.6149
109.3 24.6179 31.4906 -6.8727
109.35 29.9755 31.4935 -1.518
109.4 33.5836 31.4964 2.0872
109.45 31.0872 31.4991 -0.4119
109.5 26.0149 31.5018 -5.4869
109.55 24.9719 31.5046 -6.5327
109.6 25.0298 31.5075 -6.4777
109.65 38.1575 31.5108 6.6467
109.7 36.6995 31.514 5.1855
109.75 33.5487 31.5175 2.0312
109.8 26.5112 31.5209 -5.0097
109.85 26.4964 31.5241 -5.0277
109.9 42.1169 31.5273 10.5896
109.95 25.233 31.53 -6.297
110 30.0562 31.5328 -1.4766
110.05 31.0722 31.5354 -0.4632
110.1 34.0195 31.538 2.4815
110.15 29.3118 31.541 -2.2292
110.2 30.5444 31.5439 -0.9995
110.25 27.7464 31.5472 -3.8008
110.3 29.832 31.5505 -1.7185
110.35 20.3679 31.5539 -11.186
110.4 34.1551 31.5573 2.5978
110.45 41.9156 31.5604 10.3552
110.5 38.2094 31.5634 6.646
110.55 36.1789 31.5661 4.6128
110.6 26.7869 31.5687 -4.7818
110.65 25.3266 31.5713 -6.2447
110.7 34.4288 31.574 2.8548
110.75 36.1738 31.577 4.5968
110.8 36.8099 31.58 5.2299
110.85 35.5633 31.5833 3.98
110.9 27.8281 31.5867 -3.7586
110.95 20.9888 31.5901 -10.6013
111 26.6921 31.5935 -4.9014
111.05 31.8291 31.5964 0.2327
111.1 28.6747 31.5994 -2.9247
111.15 42.8061 31.602 11.2041
111.2 25.7511 31.6046 -5.8535
111.25 39.5797 31.6073 7.9724
111.3 32.8207 31.6099 1.2108
111.35 35.8024 31.613 4.1894
111.4 35.0547 31.6161 3.4386
111.45 27.1214 31.6196 -4.4982
111.5 32.2054 31.6231 0.5823
111.55 26.6982 31.6265 -4.9283
111.6 26.6481 31.6299 -4.9818
111.65 30.4403 31.6328 -1.1925
111.7 30.2173 31.6358 -1.4185
111.75 16.7815 31.6384 -14.8569
111.8 24.6686 31.641 -6.9724
111.85 34.8832 31.6438 3.2394
111.9 28.1055 31.6465 -3.541
111.95 33.5612 31.6498 1.9114
112 32.3992 31.653 0.7462
112.05 28.6124 31.6567 -3.0443
112.1 26.8406 31.6604 -4.8198
112.15 24.7237 31.6639 -6.9402
112.2 22.0654 31.6675 -9.6021
112.25 25.5362 31.6706 -6.1344
112.3 31.1796 31.6737 -0.4941
112.35 33.104 31.6764 1.4276
112.4 27.8585 31.6792 -3.8207
112.45 33.1683 31.6822 1.4861
112.5 32.4285 31.6851 0.7434
112.55 29.7537 31.6887 -1.935
112.6 22.3345 31.6923 -9.3578
112.65 27.6598 31.6964 -4.0366
112.7 35.5663 31.7004 3.8659
112.75 24.0074 31.7044 -7.697
112.8 35.1373 31.7084 3.4289
112.85 27.227 31.7119 -4.4849
112.9 34.2313 31.7154 2.5159
112.95 20.5109 31.7187 -11.2078
113 29.8921 31.7219 -1.8298
113.05 28.4751 31.7255 -3.2504
113.1 40.8473 31.729 9.1183
113.15 30.0813 31.7334 -1.6521
113.2 28.257 31.7378 -3.4808
113.25 30.2049 31.7428 -1.5379
113.3 29.3832 31.7478 -2.3646
113.35 32.9591 31.753 1.2061
113.4 21.8912 31.7581 -9.8669
113.45 29.088 31.7629 -2.6749
113.5 29.2472 31.7677 -2.5205
113.55 36.1024 31.7725 4.3299
113.6 34.4965 31.7772 2.7193
113.65 23.0628 31.7825 -8.7197
113.7 40.6601 31.7879 8.8722
113.75 31.5784 31.7946 -0.2162
113.8 28.208 31.8012 -3.5932
113.85 22.5135 31.8093 -9.2958
113.9 40.1167 31.8173 8.2994
113.95 41.0666 31.8262 9.2404
114 36.6637 31.8352 4.8285
114.05 20.8313 31.8448 -11.0135
114.1 26.9697 31.8543 -4.8846
114.15 35.3713 31.865 3.5063
114.2 41.236 31.8757 9.3603
114.25 26.4988 31.889 -5.3902
114.3 28.3751 31.9022 -3.5271
114.35 23.4565 31.9196 -8.4631
114.4 21.8185 31.9371 -10.1186
114.45 18.2661 31.9607 -13.6946
114.5 32.9537 31.9842 0.9695
114.55 26.9589 32.0164 -5.0575
114.6 26.0057 32.0486 -6.0429
114.65 27.0014 32.0934 -5.092
114.7 32.7466 32.1383 0.6083
114.75 29.5944 32.1992 -2.6048
114.8 31.2453 32.2602 -1.0149
114.85 29.7778 32.3401 -2.5623
114.9 36.2542 32.42 3.8342
114.95 23.2886 32.5311 -9.2425
115 24.9812 32.6422 -7.661
115.05 39.6123 32.8083 6.804
115.1 29.2937 32.9744 -3.6807
115.15 41.8608 33.2374 8.6234
115.2 31.6517 33.5003 -1.8486
115.25 33.5786 33.9407 -0.3621
115.3 27.7257 34.381 -6.6553
115.35 41.7922 35.1662 6.626
115.4 26.7146 35.9514 -9.2368
115.45 30.5797 37.4471 -6.8674
115.5 51.2944 38.9427 12.3517
115.55 44.0884 41.4246 2.6638
115.6 48.7611 44.9912 3.7699
115.65 49.3105 50.1237 -0.8132
115.7 63.119 57.3874 5.7316
115.75 53.6136 67.3088 -13.6952
115.8 75.0127 79.1484 -4.1357
115.85 105.921 91.4144 14.5066
115.9 95.7115 100.516 -4.8045
115.95 103.709 102.877 0.832
116 100.659 97.6827 2.9763
116.05 93.3354 86.9318 6.4036
116.1 74.6314 74.4875 0.1439
116.15 57.9804 63.4238 -5.4434
116.2 61.1814 54.5195 6.6619
116.25 41.205 48.1617 -6.9567
116.3 37.075 43.6989 -6.6239
116.35 50.2609 40.5904 9.6705
116.4 28.018 38.4122 -10.3942
116.45 39.873 37.0832 2.7898
116.5 37.2158 35.7542 1.4616
116.55 40.8041 35.0443 5.7598
116.6 28.8146 34.3344 -5.5198
116.65 24.2992 33.9305 -9.6313
116.7 24.4848 33.5266 -9.0418
116.75 17.7031 33.2829 -15.5798
116.8 28.861 33.0392 -4.1782
116.85 25.2603 32.884 -7.6237
116.9 32.5385 32.7288 -0.1903
116.95 26.4463 32.6242 -6.1779
117 36.3728 32.5195 3.8533
117.05 27.7132 32.4437 -4.7305
117.1 28.8391 32.3679 -3.5288
117.15 22.2472 32.312 -10.0648
117.2 26.7998 32.256 -5.4562
117.25 32.8416 32.2172 0.6244
117.3 30.5912 32.1783 -1.5871
117.35 28.2359 32.1516 -3.9157
117.4 27.4255 32.1249 -4.6994
117.45 32.1746 32.1062 0.0684
117.5 39.759 32.0875 7.6715
117.55 28.1377 32.0747 -3.937
117.6 33.7866 32.0618 1.7248
117.65 34.113 32.0531 2.0599
117.7 29.347 32.0444 -2.6974
117.75 32.5002 32.0384 0.4618
117.8 33.689 32.0324 1.6566
117.85 38.6704 32.0277 6.6427
117.9 30.5464 32.023 -1.4766
117.95 25.7039 32.0189 -6.315
118 25.8138 32.0148 -6.201
118.05 30.1801 32.0113 -1.8312
118.1 29.687 32.0078 -2.3208
118.15 31.9088 32.0055 -0.0967
118.2 33.3892 32.0031 1.3861
118.25 32.448 32.002 0.446
118.3 27.9509 32.001 -4.0501
118.35 21.776 32.0009 -10.2249
118.4 27.0506 32.0008 -4.9502
118.45 33.6765 32.001 1.6755
118.5 20.7094 32.0013 -11.2919
118.55 22.128 32.0012 -9.8732
118.6 25.301 32.0012 -6.7002
118.65 29.7686 32.0009 -2.2323
118.7 35.0958 32.0006 3.0952
118.75 36.4607 32.0005 4.4602
118.8 29.0781 32.0004 -2.9223
118.85 28.2005 32.001 -3.8005
118.9 22.585 32.0015 -9.4165
118.95 34.0503 32.0028 2.0475
119 35.1991 32.0041 3.195
119.05 31.0773 32.0057 -0.9284
119.1 32.7917 32.0074 0.7843
119.15 47.4121 32.0088 15.4033
119.2 25.8657 32.0102 -6.1445
119.25 33.2452 32.0111 1.2341
119.3 29.5226 32.0121 -2.4895
119.35 27.6163 32.0128 -4.3965
119.4 31.991 32.0136 -0.0226
119.45 34.9782 32.0146 2.9636
119.5 26.1401 32.0156 -5.8755
119.55 30.8142 32.0171 -1.2029
119.6 37.9649 32.0187 5.9462
119.65 26.4421 32.0208 -5.5787
119.7 25.1578 32.0228 -6.865
119.75 29.2714 32.0248 -2.7534
119.8 29.3495 32.0269 -2.6774
119.85 31.4624 32.0285 -0.5661
119.9 38.0115 32.0302 5.9813
119.95 24.5113 32.0314 -7.5201
120 27.85 32.0327 -4.1827
120.05 26.4561 32.0338 -5.5777
120.1 26.4396 32.035 -5.5954
120.15 38.034 32.0366 5.9974
120.2 30.4349 32.0381 -1.6032
120.25 31.8145 32.0402 -0.2257
120.3 22.4724 32.0422 -9.5698
120.35 29.6488 32.0445 -2.3957
120.4 27.4331 32.0467 -4.6136
120.45 35.5398 32.0488 3.491
120.5 31.3013 32.0509 -0.7496
120.55 35.7212 32.0526 3.6686
120.6 32.0686 32.0542 0.0144
120.65 34.4943 32.0556 2.4387
120.7 28.8166 32.057 -3.2404
120.75 31.7392 32.0585 -0.3193
120.8 42.1031 32.0599 10.0432
120.85 20.5178 32.0618 -11.544
120.9 21.8327 32.0636 -10.2309
120.95 36.0801 32.0659 4.0142
121 41.9704 32.0681 9.9023
121.05 38.5054 32.0704 6.435
121.1 30.9957 32.0727 -1.077
121.15 23.3594 32.0748 -8.7154
121.2 38.1457 32.0768 6.0689
121.25 30.9588 32.0785 -1.1197
121.3 27.6208 32.0801 -4.4593
121.35 32.4145 32.0816 0.3329
121.4 26.2132 32.0831 -5.8699
121.45 37.2138 32.0847 5.1291
121.5 39.1546 32.0864 7.0682
121.55 22.8139 32.0884 -9.2745
121.6 26.4688 32.0905 -5.6217
121.65 33.0712 32.0928 0.9784
121.7 29.9612 32.0951 -2.1339
121.75 21.1265 32.0974 -10.9709
121.8 34.3091 32.0997 2.2094
121.85 29.3072 32.1016 -2.7944
121.9 23.708 32.1036 -8.3956
121.95 26.6083 32.1052 -5.4969
122 27.3204 32.1069 -4.7865
122.05 31.6992 32.1085 -0.4093
122.1 29.967 32.11 -2.143
122.15 27.7586 32.1118 -4.3532
122.2 36.151 32.1136 4.0374
122.25 34.2023 32.1157 2.0866
122.3 36.24 32.1179 4.1221
122.35 46.0317 32.1202 13.9115
122.4 25.8022 32.1226 -6.3204
122.45 37.9219 32.1248 5.7971
122.5 33.4888 32.127 1.3618
122.55 32.8026 32.129 0.6736
122.6 32.6482 32.1309 0.5173
122.65 31.1192 32.1319 -1.0127
122.7 35.8067 32.133 3.6737
122.75 27.5519 32.1347 -4.5828
122.8 29.08 32.1365 -3.0565
122.85 32.1729 32.1385 0.0344
122.9 31.0061 32.1406 -1.1345
122.95 29.5869 32.1429 -2.556
123 28.1756 32.1452 -3.9696
123.05 29.0681 32.1475 -3.0794
123.1 28.7497 32.1498 -3.4001
123.15 31.6931 32.1518 -0.4587
123.2 22.0693 32.1538 -10.0845
123.25 28.1331 32.1556 -4.0225
123.3 33.9078 32.1573 1.7505
123.35 33.1325 32.159 0.9735
123.4 29.8105 32.1606 -2.3501
123.45 22.2013 32.1624 -9.9611
123.5 27.486 32.1642 -4.6782
123.55 30.2033 32.1663 -1.963
123.6 37.4598 32.1684 5.2914
123.65 28.5699 32.1707 -3.6008
123.7 25.0992 32.173 -7.0738
123.75 29.483 32.1753 -2.6923
123.8 24.9747 32.1776 -7.2029
123.85 34.9545 32.1796 2.7749
123.9 18.9707 32.1816 -13.2109
123.95 40.8856 32.1833 8.7023
124 26.9554 32.1851 -5.2297
124.05 24.2447 32.1867 -7.942
124.1 34.6292 32.1884 2.4408
124.15 25.8649 32.1903 -6.3254
124.2 37.2083 32.1921 5.0162
124.25 24.3556 32.1943 -7.8387
124.3 34.4283 32.1964 2.2319
124.35 30.6126 32.1987 -1.5861
124.4 36.7374 32.201 4.5364
124.45 29.238 32.2032 -2.9652
124.5 29.0384 32.2055 -3.1671
124.55 40.3731 32.2075 8.1656
124.6 30.8276 32.2095 -1.3819
124.65 31.9047 32.2112 -0.3065
124.7 29.5316 32.213 -2.6814
124.75 22.8208 32.2147 -9.3939
124.8 29.6985 32.2164 -2.5179
124.85 32.9138 32.2183 0.6955
124.9 24.2783 32.2202 -7.9419
124.95 22.9103 32.2223 -9.312
125 28.2093 32.2244 -4.0151
125.05 22.9472 32.2267 -9.2795
125.1 31.9067 32.229 -0.3223
125.15 23.8093 32.2312 -8.4219
125.2 37.6816 32.2335 5.4481
125.25 29.8611 32.2355 -2.3744
125.3 21.8131 32.2375 -10.4244
125.35 35.2209 32.2393 2.9816
125.4 36.4758 32.2411 4.2347
125.45 30.0402 32.2429 -2.2027
125.5 27.0664 32.2446 -5.1782
125.55 32.6612 32.2465 0.4147
125.6 30.6807 32.2484 -1.5677
125.65 30.898 32.2505 -1.3525
125.7 25.135 32.2526 -7.1176
125.75 24.9443 32.2549 -7.3106
125.8 32.9321 32.2571 0.675
125.85 33.8784 32.2594 1.619
125.9 25.8893 32.2616 -6.3723
125.95 26.6052 32.2637 -5.6585
126 32.0523 32.2658 -0.2135
126.05 26.0108 32.2676 -6.2568
126.1 29.045 32.2695 -3.2245
126.15 32.4254 32.2713 0.1541
126.2 31.3059 32.273 -0.9671
126.25 26.5916 32.2749 -5.6833
126.3 30.765 32.2768 -1.5118
126.35 25.911 32.2788 -6.3678
126.4 26.7769 32.2809 -5.504
126.45 21.7752 32.2832 -10.508
126.5 23.4512 32.2854 -8.8342
126.55 36.1099 32.2877 3.8222
126.6 31.9917 32.29 -0.2983
126.65 29.5669 32.2921 -2.7252
126.7 28.3192 32.2942 -3.975
126.75 38.9394 32.2961 6.6433
126.8 27.1615 32.2981 -5.1366
126.85 25.8106 32.2999 -6.4893
126.9 27.9448 32.3017 -4.3569
126.95 25.7591 32.3035 -6.5444
127 27.3465 32.3054 -4.9589
127.05 41.2621 32.3074 8.9547
127.1 29.9042 32.3095 -2.4053
127.15 31.8733 32.3117 -0.4384
127.2 26.8898 32.3139 -5.4241
127.25 31.343 32.3162 -0.9732
127.3 23.3555 32.3185 -8.963
127.35 17.2098 32.3207 -15.1109
127.4 33.9424 32.3229 1.6195
127.45 35.5947 32.3249 3.2698
127.5 32.2341 32.3269 -0.0928
127.55 21.7683 32.3287 -10.5604
127.6 23.9033 32.3306 -8.4273
127.65 31.3038 32.3324 -1.0286
127.7 36.9171 32.3343 4.5828
127.75 33.7368 32.3363 1.4005
127.8 41.7036 32.3383 9.3653
127.85 35.4628 32.3405 3.1223
127.9 29.8134 32.3427 -2.5293
127.95 47.4739 32.345 15.1289
128 29.2316 32.3473 -3.1157
128.05 37.6853 32.3495 5.3358
128.1 35.5259 32.3518 3.1741
128.15 28.1841 32.3539 -4.1698
128.2 29.4516 32.356 -2.9044
128.25 30.5339 32.3579 -1.824
128.3 27.178 32.3598 -5.1818
128.35 26.2959 32.3617 -6.0658
128.4 27.4132 32.3636 -4.9504
128.45 39.4805 32.3655 7.115
128.5 26.6468 32.3675 -5.7207
128.55 23.4666 32.3696 -8.903
128.6 28.4158 32.3717 -3.9559
128.65 21.4215 32.374 -10.9525
128.7 45.3147 32.3763 12.9384
128.75 30.3273 32.3786 -2.0513
128.8 28.8106 32.3809 -3.5703
128.85 33.095 32.3831 0.7119
128.9 34.8035 32.3853 2.4182
128.95 21.3353 32.3874 -11.0521
129 28.2629 32.3894 -4.1265
129.05 30.5191 32.3913 -1.8722
129.1 23.3818 32.3933 -9.0115
129.15 26.0491 32.3952 -6.3461
129.2 31.5099 32.3971 -0.8872
129.25 32.5221 32.3992 0.1229
129.3 26.1047 32.4013 -6.2966
129.35 31.2061 32.4035 -1.1974
129.4 35.9257 32.4057 3.52
129.45 31.351 32.4081 -1.0571
129.5 36.2646 32.4104 3.8542
129.55 18.2531 32.4127 -14.1596
129.6 32.9969 32.415 0.5819
129.65 28.7268 32.4172 -3.6904
129.7 32.6194 32.4193 0.2001
129.75 35.0682 32.4214 2.6468
129.8 29.0149 32.4234 -3.4085
129.85 29.6701 32.4253 -2.7552
129.9 34.421 32.4273 1.9937
129.95 39.2864 32.4293 6.8571
130 65.0491 32.4418 32.6073
