
#Surface 0 of 1 surfaces

#IsoCurve 0, 1801 points
#x y z type
 40  57.5254  35.1873 i
 40.05  34.3527  35.1798 i
 40.1  49.5959  35.1724 i
 40.15  47.885  35.1649 i
 40.2  35.155  35.1574 i
 40.25  45.5188  35.1499 i
 40.3  38.6086  35.1423 i
 40.35  29.8787  35.1348 i
 40.4  39.1922  35.1272 i
 40.45  48.3261  35.1196 i
 40.5  41.5998  35.112 i
 40.55  33.8735  35.1044 i
 40.6  39.0184  35.0968 i
 40.65  45.3372  35.0891 i
 40.7  32.0546  35.0815 i
 40.75  37.4853  35.0738 i
 40.8  38.9496  35.0661 i
 40.85  39.9426  35.0584 i
 40.9  34.4947  35.0507 i
 40.95  48.6896  35.0429 i
 41  43.8506  35.0351 i
 41.05  31.9394  35.0274 i
 41.1  43.627  35.0196 i
 41.15  42.016  35.0118 i
 41.2  38.0647  35.0039 i
 41.25  46.9545  34.9961 i
 41.3  35.902  34.9882 i
 41.35  34.0033  34.9804 i
 41.4  40.5717  34.9725 i
 41.45  31.3438  34.9646 i
 41.5  48.9253  34.9567 i
 41.55  38.2962  34.9487 i
 41.6  42.9157  34.9408 i
 41.65  32.5399  34.9328 i
 41.7  39.3687  34.9248 i
 41.75  39.418  34.9168 i
 41.8  43.8501  34.9088 i
 41.85  30.3285  34.9008 i
 41.9  31.9887  34.8928 i
 41.95  33.5008  34.8847 i
 42  43.9887  34.8767 i
 42.05  35.6741  34.8686 i
 42.1  33.323  34.8605 i
 42.15  31.7018  34.8524 i
 42.2  41.7041  34.8442 i
 42.25  31.6578  34.8361 i
 42.3  33.2558  34.8279 i
 42.35  35.1101  34.8198 i
 42.4  45.7089  34.8116 i
 42.45  37.425  34.8034 i
 42.5  41.9598  34.7952 i
 42.55  46.1452  34.787 i
 42.6  41.571  34.7787 i
 42.65  40.6113  34.7705 i
 42.7  33.6982  34.7622 i
 42.75  40.6332  34.7539 i
 42.8  37.9018  34.7456 i
 42.85  33.2462  34.7373 i
 42.9  29.6192  34.729 i
 42.95  45.0809  34.7207 i
 43  29.0607  34.7123 i
 43.05  36.4628  34.704 i
 43.1  30.369  34.6956 i
 43.15  40.8136  34.6872 i
 43.2  41.8197  34.6788 i
 43.25  33.515  34.6704 i
 43.3  25.3594  34.662 i
 43.35  54.6313  34.6536 i
 43.4  30.3328  34.6451 i
 43.45  38.757  34.6366 i
 43.5  46.7538  34.6282 i
 43.55  48.6759  34.6197 i
 43.6  27.3411  34.6112 i
 43.65  31.6461  34.6027 i
 43.7  40.7157  34.5941 i
 43.75  52.7029  34.5856 i
 43.8  32.4422  34.5771 i
 43.85  49.1542  34.5685 i
 43.9  53.0063  34.5599 i
 43.95  65.4408  34.5513 i
 44  50.7173  34.5427 i
 44.05  63.6656  34.5341 i
 44.1  72.3144  34.5255 i
 44.15  101.032  34.5169 i
 44.2  136.577  34.5082 i
 44.25  418.121  34.4996 i
 44.3  1198.82  34.4909 i
 44.35  2101.32  34.4822 i
 44.4  2332.54  34.4735 i
 44.45  1449.85  34.4648 i
 44.5  480.286  34.4561 i
 44.55  191.965  34.4474 i
 44.6  84.8427  34.4387 i
 44.65  72.2283  34.4299 i
 44.7  58.3532  34.4212 i
 44.75  51.7929  34.4124 i
 44.8  56.1028  34.4036 i
 44.85  52.5244  34.3948 i
 44.9  40.0066  34.386 i
 44.95  30.4237  34.3772 i
 45  44.8902  34.3684 i
 45.05  34.0632  34.3596 i
 45.1  41.4135  34.3507 i
 45.15  49.5638  34.3419 i
 45.2  35.4025  34.333 i
 45.25  49.4044  34.3241 i
 45.3  45.3236  34.3152 i
 45.35  36.5013  34.3063 i
 45.4  27.707  34.2974 i
 45.45  37.1979  34.2885 i
 45.5  30.4353  34.2796 i
 45.55  40.215  34.2707 i
 45.6  39.669  34.2617 i
 45.65  33.3608  34.2528 i
 45.7  29.1925  34.2438 i
 45.75  55.5946  34.2348 i
 45.8  39.8081  34.2259 i
 45.85  40.4506  34.2169 i
 45.9  33.671  34.2079 i
 45.95  40.9874  34.1988 i
 46  43.6409  34.1898 i
 46.05  35.9146  34.1808 i
 46.1  29.4467  34.1718 i
 46.15  34.0541  34.1627 i
 46.2  31.2287  34.1537 i
 46.25  35.8724  34.1446 i
 46.3  41.5227  34.1355 i
 46.35  33.9993  34.1264 i
 46.4  34.2532  34.1173 i
 46.45  34.0487  34.1082 i
 46.5  28.4888  34.0991 i
 46.55  37.4534  34.09 i
 46.6  43.3219  34.0809 i
 46.65  34.7585  34.0718 i
 46.7  35.4041  34.0626 i
 46.75  24.3364  34.0535 i
 46.8  23.1843  34.0443 i
 46.85  43.2125  34.0351 i
 46.9  40.4721  34.026 i
 46.95  37.1328  34.0168 i
 47  29.0954  34.0076 i
 47.05  40.5661  33.9984 i
 47.1  26.8642  33.9892 i
 47.15  29.3853  33.98 i
 47.2  34.6265  33.9708 i
 47.25  39.0648  33.9615 i
 47.3  30.0416  33.9523 i
 47.35  27.1661  33.943 i
 47.4  36.9058  33.9338 i
 47.45  41.414  33.9245 i
 47.5  31.0139  33.9153 i
 47.55  34.946  33.906 i
 47.6  38.3568  33.8967 i
 47.65  35.1979  33.8874 i
 47.7  30.7251  33.8781 i
 47.75  26.3733  33.8688 i
 47.8  29.3372  33.8595 i
 47.85  29.7759  33.8502 i
 47.9  30.6698  33.8409 i
 47.95  42.2137  33.8316 i
 48  36.5991  33.8222 i
 48.05  38.6724  33.8129 i
 48.1  40.1716  33.8035 i
 48.15  41.3371  33.7942 i
 48.2  36.8437  33.7848 i
 48.25  40.2846  33.7755 i
 48.3  46.4901  33.7661 i
 48.35  34.351  33.7567 i
 48.4  40.469  33.7473 i
 48.45  33.3559  33.7379 i
 48.5  33.4725  33.7285 i
 48.55  35.941  33.7191 i
 48.6  25.2237  33.7097 i
 48.65  26.8178  33.7003 i
 48.7  29.6684  33.6909 i
 48.75  34.7066  33.6815 i
 48.8  38.6073  33.672 i
 48.85  37.9518  33.6626 i
 48.9  36.0904  33.6532 i
 48.95  35.1608  33.6437 i
 49  39.8307  33.6343 i
 49.05  24.7451  33.6248 i
 49.1  35.4762  33.6153 i
 49.15  22.829  33.6059 i
 49.2  30.8994  33.5964 i
 49.25  36.447  33.5869 i
 49.3  37.2103  33.5774 i
 49.35  28.7045  33.568 i
 49.4  32.0405  33.5585 i
 49.45  29.5772  33.549 i
 49.5  33.0698  33.5395 i
 49.55  36.7907  33.53 i
 49.6  30.3071  33.5205 i
 49.65  35.251  33.5109 i
 49.7  43.449  33.5014 i
 49.75  30.1394  33.4919 i
 49.8  32.1524  33.4824 i
 49.85  26.8313  33.4729 i
 49.9  40.6037  33.4633 i
 49.95  40.9709  33.4538 i
 50  36.5474  33.4442 i
 50.05  33.2117  33.4347 i
 50.1  34.3083  33.4251 i
 50.15  38.9525  33.4156 i
 50.2  37.5137  33.406 i
 50.25  36.3642  33.3965 i
 50.3  35.0441  33.3869 i
 50.35  37.7486  33.3773 i
 50.4  33.7457  33.3678 i
 50.45  25.9737  33.3582 i
 50.5  35.4996  33.3486 i
 50.55  40.8062  33.339 i
 50.6  28.0663  33.3295 i
 50.65  39.5696  33.3199 i
 50.7  34.8086  33.3103 i
 50.75  32.3789  33.3007 i
 50.8  33.7564  33.2911 i
 50.85  41.4466  33.2815 i
 50.9  32.1841  33.2719 i
 50.95  32.2672  33.2623 i
 51  27.2894  33.2527 i
 51.05  38.9603  33.2431 i
 51.1  22.5101  33.2335 i
 51.15  41.5365  33.2239 i
 51.2  34.5367  33.2142 i
 51.25  32.7209  33.2046 i
 51.3  31.824  33.195 i
 51.35  45.1458  33.1854 i
 51.4  28.4499  33.1758 i
 51.45  38.315  33.1661 i
 51.5  34.916  33.1565 i
 51.55  33.6573  33.1469 i
 51.6  38.7317  33.1373 i
 51.65  33.2482  33.1276 i
 51.7  29.1594  33.118 i
 51.75  32.0204  33.1084 i
 51.8  36.0202  33.0987 i
 51.85  34.9783  33.0891 i
 51.9  27.989  33.0794 i
 51.95  33.0581  33.0698 i
 52  42.3078  33.0602 i
 52.05  27.0542  33.0505 i
 52.1  29.5396  33.0409 i
 52.15  34.0016  33.0312 i
 52.2  36.6493  33.0216 i
 52.25  40.9802  33.0119 i
 52.3  33.4633  33.0023 i
 52.35  49.6605  32.9926 i
 52.4  29.3747  32.983 i
 52.45  32.6186  32.9733 i
 52.5  33.0447  32.9637 i
 52.55  35.4856  32.954 i
 52.6  25.7222  32.9444 i
 52.65  24.7881  32.9347 i
 52.7  20.2447  32.9251 i
 52.75  28.037  32.9154 i
 52.8  28.2521  32.9058 i
 52.85  26.1911  32.8961 i
 52.9  37.2869  32.8865 i
 52.95  27.7001  32.8768 i
 53  41.703  32.8672 i
 53.05  39.9531  32.8575 i
 53.1  33.1325  32.8479 i
 53.15  39.3509  32.8382 i
 53.2  29.3148  32.8286 i
 53.25  36.3291  32.8189 i
 53.3  35.039  32.8093 i
 53.35  35.6352  32.7996 i
 53.4  35.6391  32.79 i
 53.45  38.0731  32.7803 i
 53.5  38.0691  32.7707 i
 53.55  35.6683  32.7611 i
 53.6  27.891  32.7514 i
 53.65  34.0293  32.7418 i
 53.7  38.9839  32.7321 i
 53.75  32.417  32.7225 i
 53.8  31.5913  32.7128 i
 53.85  33.6602  32.7032 i
 53.9  41.6437  32.6936 i
 53.95  33.6359  32.6839 i
 54  30.1576  32.6743 i
 54.05  27.5599  32.6647 i
 54.1  30.3314  32.655 i
 54.15  37.1803  32.6454 i
 54.2  28.679  32.6358 i
 54.25  39.9351  32.6262 i
 54.3  39.3882  32.6165 i
 54.35  32.2101  32.6069 i
 54.4  36.6363  32.5973 i
 54.45  32.3733  32.5877 i
 54.5  37.0008  32.5781 i
 54.55  37.3489  32.5684 i
 54.6  32.8088  32.5588 i
 54.65  35.0163  32.5492 i
 54.7  32.0844  32.5396 i
 54.75  27.2189  32.53 i
 54.8  37.875  32.5204 i
 54.85  28.5945  32.5108 i
 54.9  25.3457  32.5012 i
 54.95  29.8188  32.4916 i
 55  36.5938  32.482 i
 55.05  31.2615  32.4725 i
 55.1  38.7702  32.4629 i
 55.15  31.8007  32.4533 i
 55.2  36.5199  32.4437 i
 55.25  39.2125  32.4341 i
 55.3  34.486  32.4246 i
 55.35  26.5704  32.415 i
 55.4  41.8745  32.4054 i
 55.45  31.8642  32.3959 i
 55.5  32.8611  32.3863 i
 55.55  27.0834  32.3768 i
 55.6  25.675  32.3672 i
 55.65  25.1086  32.3577 i
 55.7  26.8925  32.3481 i
 55.75  27.3082  32.3386 i
 55.8  22.5592  32.3291 i
 55.85  33.5266  32.3195 i
 55.9  29.1068  32.31 i
 55.95  27.8137  32.3005 i
 56  30.9039  32.291 i
 56.05  29.2733  32.2814 i
 56.1  27.9803  32.2719 i
 56.15  30.5061  32.2624 i
 56.2  29.5125  32.2529 i
 56.25  32.3946  32.2434 i
 56.3  28.1053  32.2339 i
 56.35  41.0376  32.2244 i
 56.4  31.8809  32.215 i
 56.45  19.4373  32.2055 i
 56.5  37.5245  32.196 i
 56.55  33.4416  32.1865 i
 56.6  30.5449  32.1771 i
 56.65  27.2816  32.1676 i
 56.7  33.1783  32.1582 i
 56.75  30.0023  32.1487 i
 56.8  37.2755  32.1393 i
 56.85  32.608  32.1298 i
 56.9  41.4916  32.1204 i
 56.95  38.3499  32.111 i
 57  39.7727  32.1016 i
 57.05  32.7522  32.0922 i
 57.1  20.9818  32.0827 i
 57.15  26.1614  32.0733 i
 57.2  32.908  32.0639 i
 57.25  27.3616  32.0546 i
 57.3  29.6037  32.0452 i
 57.35  26.1575  32.0358 i
 57.4  30.6924  32.0264 i
 57.45  34.8755  32.017 i
 57.5  30.5822  32.0077 i
 57.55  37.6123  31.9983 i
 57.6  20.0457  31.989 i
 57.65  31.4281  31.9796 i
 57.7  30.4443  31.9703 i
 57.75  28.4807  31.961 i
 57.8  29.5665  31.9517 i
 57.85  28.3495  31.9423 i
 57.9  30.8824  31.933 i
 57.95  33.4044  31.9237 i
 58  43.4862  31.9144 i
 58.05  21.4897  31.9051 i
 58.1  32.1333  31.8959 i
 58.15  32.1857  31.8866 i
 58.2  37.2648  31.8773 i
 58.25  47.7354  31.8681 i
 58.3  39.3127  31.8588 i
 58.35  24.2719  31.8496 i
 58.4  28.3798  31.8403 i
 58.45  39.303  31.8311 i
 58.5  25.4413  31.8219 i
 58.55  37.2817  31.8127 i
 58.6  31.623  31.8034 i
 58.65  26.8049  31.7942 i
 58.7  37.7795  31.7851 i
 58.75  33.7094  31.7759 i
 58.8  24.9275  31.7667 i
 58.85  28.695  31.7575 i
 58.9  36.0759  31.7484 i
 58.95  26.7019  31.7392 i
 59  34.562  31.7301 i
 59.05  26.0966  31.7209 i
 59.1  20.7017  31.7118 i
 59.15  27.5673  31.7027 i
 59.2  20.5619  31.6936 i
 59.25  27.6965  31.6845 i
 59.3  52.1351  31.6754 i
 59.35  29.2603  31.6663 i
 59.4  29.405  31.6572 i
 59.45  27.8213  31.6482 i
 59.5  20.9011  31.6391 i
 59.55  28.9492  31.63 i
 59.6  28.319  31.621 i
 59.65  31.9899  31.612 i
 59.7  33.2755  31.603 i
 59.75  27.005  31.5939 i
 59.8  29.5781  31.5849 i
 59.85  25.7679  31.5759 i
 59.9  39.3067  31.567 i
 59.95  23.9375  31.558 i
 60  31.083  31.549 i
 60.05  22.36  31.5401 i
 60.1  29.732  31.5311 i
 60.15  37.3395  31.5222 i
 60.2  36.4808  31.5133 i
 60.25  25.6904  31.5043 i
 60.3  27.6914  31.4954 i
 60.35  17.5468  31.4865 i
 60.4  28.8477  31.4777 i
 60.45  30.6961  31.4688 i
 60.5  28.835  31.4599 i
 60.55  24.903  31.4511 i
 60.6  24.1351  31.4422 i
 60.65  29.1656  31.4334 i
 60.7  29.6964  31.4246 i
 60.75  26.5286  31.4157 i
 60.8  27.5845  31.4069 i
 60.85  17.7253  31.3981 i
 60.9  33.1451  31.3894 i
 60.95  39.8173  31.3806 i
 61  28.5179  31.3718 i
 61.05  43.0351  31.3631 i
 61.1  30.6754  31.3543 i
 61.15  29.3663  31.3456 i
 61.2  40.018  31.3369 i
 61.25  22.5616  31.3282 i
 61.3  35.8428  31.3195 i
 61.35  36.9303  31.3108 i
 61.4  40.3124  31.3022 i
 61.45  29.0956  31.2935 i
 61.5  30.6671  31.2849 i
 61.55  31.5976  31.2762 i
 61.6  34.4854  31.2676 i
 61.65  28.7133  31.259 i
 61.7  30.0335  31.2504 i
 61.75  22.7497  31.2418 i
 61.8  38.6123  31.2332 i
 61.85  31.705  31.2247 i
 61.9  23.6412  31.2161 i
 61.95  25.5706  31.2076 i
 62  29.8266  31.199 i
 62.05  29.3336  31.1905 i
 62.1  34.3065  31.182 i
 62.15  33.833  31.1735 i
 62.2  26.0043  31.1651 i
 62.25  31.2851  31.1566 i
 62.3  41.4682  31.1481 i
 62.35  34.7207  31.1397 i
 62.4  27.8171  31.1313 i
 62.45  34.6244  31.1229 i
 62.5  33.8168  31.1145 i
 62.55  24.8065  31.1061 i
 62.6  21.5818  31.0977 i
 62.65  33.0975  31.0893 i
 62.7  28.523  31.081 i
 62.75  29.6483  31.0726 i
 62.8  27.8973  31.0643 i
 62.85  36.6788  31.056 i
 62.9  39.403  31.0477 i
 62.95  29.6269  31.0394 i
 63  31.9304  31.0312 i
 63.05  39.0225  31.0229 i
 63.1  31.859  31.0147 i
 63.15  32.0301  31.0065 i
 63.2  37.5984  30.9982 i
 63.25  31.6945  30.99 i
 63.3  29.7463  30.9819 i
 63.35  31.2258  30.9737 i
 63.4  40.0787  30.9655 i
 63.45  27.3531  30.9574 i
 63.5  35.0951  30.9493 i
 63.55  33.1138  30.9411 i
 63.6  34.95  30.933 i
 63.65  25.1432  30.925 i
 63.7  36.8243  30.9169 i
 63.75  38.8486  30.9088 i
 63.8  40.3723  30.9008 i
 63.85  40.3113  30.8928 i
 63.9  29.9863  30.8848 i
 63.95  31.2122  30.8768 i
 64  33.18  30.8688 i
 64.05  26.894  30.8608 i
 64.1  29.7685  30.8529 i
 64.15  32.7874  30.8449 i
 64.2  27.553  30.837 i
 64.25  43.9719  30.8291 i
 64.3  37.8119  30.8212 i
 64.35  31.9206  30.8133 i
 64.4  41.1538  30.8055 i
 64.45  44.4943  30.7976 i
 64.5  53.6682  30.7898 i
 64.55  70.3107  30.782 i
 64.6  101.215  30.7742 i
 64.65  161.284  30.7664 i
 64.7  152.18  30.7586 i
 64.75  145.017  30.7509 i
 64.8  91.4009  30.7432 i
 64.85  67.6904  30.7354 i
 64.9  48.715  30.7277 i
 64.95  43.434  30.7201 i
 65  47.8941  30.7124 i
 65.05  42.6301  30.7047 i
 65.1  31.5609  30.6971 i
 65.15  31.0117  30.6895 i
 65.2  40.1495  30.6819 i
 65.25  29.4269  30.6743 i
 65.3  30.2427  30.6667 i
 65.35  24.1989  30.6592 i
 65.4  35.7949  30.6516 i
 65.45  35.5416  30.6441 i
 65.5  15.2987  30.6366 i
 65.55  35.5397  30.6291 i
 65.6  24.2123  30.6217 i
 65.65  35.9933  30.6142 i
 65.7  37.844  30.6068 i
 65.75  27.0976  30.5994 i
 65.8  29.1477  30.592 i
 65.85  29.7334  30.5846 i
 65.9  33.6043  30.5772 i
 65.95  30.2163  30.5699 i
 66  36.2093  30.5625 i
 66.05  40.7868  30.5552 i
 66.1  27.4944  30.5479 i
 66.15  33.0093  30.5407 i
 66.2  42.5533  30.5334 i
 66.25  35.9382  30.5262 i
 66.3  41.0346  30.5189 i
 66.35  33.6632  30.5117 i
 66.4  38.874  30.5046 i
 66.45  27.6227  30.4974 i
 66.5  29.5575  30.4902 i
 66.55  34.5504  30.4831 i
 66.6  27.9645  30.476 i
 66.65  32.7149  30.4689 i
 66.7  26.2858  30.4618 i
 66.75  29.3995  30.4548 i
 66.8  35.2178  30.4477 i
 66.85  28.9971  30.4407 i
 66.9  28.7325  30.4337 i
 66.95  30.004  30.4267 i
 67  21.1463  30.4198 i
 67.05  24.9481  30.4128 i
 67.1  24.2119  30.4059 i
 67.15  32.2122  30.399 i
 67.2  35.4088  30.3921 i
 67.25  47.3248  30.3853 i
 67.3  33.0408  30.3784 i
 67.35  29.3479  30.3716 i
 67.4  35.6806  30.3648 i
 67.45  24.5815  30.358 i
 67.5  32.4647  30.3512 i
 67.55  32.4342  30.3445 i
 67.6  52.0555  30.3377 i
 67.65  40.0934  30.331 i
 67.7  36.0923  30.3243 i
 67.75  32.5754  30.3177 i
 67.8  36.0751  30.311 i
 67.85  30.7818  30.3044 i
 67.9  27.154  30.2978 i
 67.95  35.7313  30.2912 i
 68  34.5959  30.2846 i
 68.05  16.0903  30.2781 i
 68.1  31.6765  30.2716 i
 68.15  29.4194  30.265 i
 68.2  30.4017  30.2586 i
 68.25  24.8314  30.2521 i
 68.3  35.9868  30.2457 i
 68.35  19.0532  30.2392 i
 68.4  21.3011  30.2328 i
 68.45  27.4981  30.2264 i
 68.5  27.4524  30.2201 i
 68.55  21.4911  30.2137 i
 68.6  22.1519  30.2074 i
 68.65  29.4297  30.2011 i
 68.7  36.7044  30.1949 i
 68.75  35.3491  30.1886 i
 68.8  23.9155  30.1824 i
 68.85  22.4371  30.1761 i
 68.9  27.4006  30.17 i
 68.95  27.154  30.1638 i
 69  29.4419  30.1576 i
 69.05  28.8396  30.1515 i
 69.1  35.256  30.1454 i
 69.15  30.5063  30.1393 i
 69.2  40.6858  30.1333 i
 69.25  37.457  30.1272 i
 69.3  21.4506  30.1212 i
 69.35  27.1262  30.1152 i
 69.4  30.5798  30.1093 i
 69.45  32.2863  30.1033 i
 69.5  30.6601  30.0974 i
 69.55  30.2297  30.0915 i
 69.6  24.1624  30.0856 i
 69.65  34.9704  30.0797 i
 69.7  23.2541  30.0739 i
 69.75  37.1683  30.0681 i
 69.8  43.642  30.0623 i
 69.85  32.3296  30.0565 i
 69.9  35.7704  30.0508 i
 69.95  24.7697  30.045 i
 70  42.3662  30.0394 i
 70.05  34.5202  30.0337 i
 70.1  22.9084  30.028 i
 70.15  29.1507  30.0224 i
 70.2  32.7094  30.0168 i
 70.25  25.1917  30.0112 i
 70.3  31.6528  30.0056 i
 70.35  28.4505  30.0001 i
 70.4  29.4579  29.9946 i
 70.45  28.5341  29.9891 i
 70.5  34.7189  29.9836 i
 70.55  26.0791  29.9782 i
 70.6  35.0964  29.9728 i
 70.65  34.7189  29.9674 i
 70.7  37.0092  29.962 i
 70.75  24.0995  29.9567 i
 70.8  33.1154  29.9513 i
 70.85  32.5959  29.946 i
 70.9  33.7528  29.9408 i
 70.95  36.3667  29.9355 i
 71  33.4806  29.9303 i
 71.05  30.4972  29.9251 i
 71.1  24.9591  29.9199 i
 71.15  30.9093  29.9148 i
 71.2  27.6048  29.9096 i
 71.25  34.2678  29.9045 i
 71.3  23.343  29.8995 i
 71.35  29.9978  29.8944 i
 71.4  32.2689  29.8894 i
 71.45  38.7864  29.8844 i
 71.5  18.8412  29.8794 i
 71.55  29.2584  29.8744 i
 71.6  32.4485  29.8695 i
 71.65  31.723  29.8646 i
 71.7  29.1571  29.8597 i
 71.75  31.9889  29.8549 i
 71.8  36.8413  29.8501 i
 71.85  33.891  29.8452 i
 71.9  28.7348  29.8405 i
 71.95  26.2451  29.8357 i
 72  30.7525  29.831 i
 72.05  39.0281  29.8263 i
 72.1  38.719  29.8216 i
 72.15  24.9493  29.817 i
 72.2  26.5703  29.8124 i
 72.25  32.8791  29.8078 i
 72.3  25.419  29.8032 i
 72.35  29.1741  29.7987 i
 72.4  32.9476  29.7941 i
 72.45  19.7392  29.7897 i
 72.5  35.2303  29.7852 i
 72.55  26.6892  29.7808 i
 72.6  33.828  29.7763 i
 72.65  32.0029  29.772 i
 72.7  32.5252  29.7676 i
 72.75  38.9747  29.7633 i
 72.8  28.2365  29.759 i
 72.85  33.4134  29.7547 i
 72.9  33.9068  29.7504 i
 72.95  31.4608  29.7462 i
 73  33.6701  29.742 i
 73.05  22.4278  29.7378 i
 73.1  35.7511  29.7337 i
 73.15  25.112  29.7296 i
 73.2  31.1438  29.7255 i
 73.25  38.3015  29.7214 i
 73.3  26.6604  29.7174 i
 73.35  42.3035  29.7134 i
 73.4  32.8453  29.7094 i
 73.45  39.3418  29.7055 i
 73.5  32.9992  29.7016 i
 73.55  30.259  29.6977 i
 73.6  27.2226  29.6938 i
 73.65  28.7254  29.69 i
 73.7  33.5392  29.6863 i
 73.75  30.064  29.6826 i
 73.8  23.285  29.6789 i
 73.85  28.6706  29.6753 i
 73.9  31.4876  29.6718 i
 73.95  30.3957  29.6683 i
 74  40.1763  29.6648 i
 74.05  27.0708  29.6614 i
 74.1  41.378  29.658 i
 74.15  19.6582  29.6547 i
 74.2  41.2442  29.6514 i
 74.25  26.2851  29.6482 i
 74.3  24.9092  29.645 i
 74.35  40.741  29.6419 i
 74.4  47.436  29.6388 i
 74.45  40.2502  29.6358 i
 74.5  31.6555  29.6328 i
 74.55  42.7271  29.6298 i
 74.6  27.5514  29.6269 i
 74.65  32.8221  29.624 i
 74.7  26.5583  29.6212 i
 74.75  39.926  29.6184 i
 74.8  30.7992  29.6157 i
 74.85  43.944  29.613 i
 74.9  30.7183  29.6104 i
 74.95  29.3918  29.6078 i
 75  25.7884  29.6052 i
 75.05  30.1428  29.6027 i
 75.1  33.9139  29.6002 i
 75.15  28.8188  29.5978 i
 75.2  34.3674  29.5954 i
 75.25  24.3849  29.5931 i
 75.3  37.2925  29.5908 i
 75.35  45.8498  29.5886 i
 75.4  27.2113  29.5863 i
 75.45  36.6507  29.5842 i
 75.5  29.1667  29.582 i
 75.55  29.403  29.58 i
 75.6  28.2573  29.5779 i
 75.65  30.2722  29.5759 i
 75.7  41.7231  29.5739 i
 75.75  38.602  29.572 i
 75.8  26.688  29.5701 i
 75.85  37.6142  29.5683 i
 75.9  34.8978  29.5665 i
 75.95  24.2741  29.5647 i
 76  38.3557  29.563 i
 76.05  38.747  29.5613 i
 76.1  38.9874  29.5597 i
 76.15  21.0911  29.5581 i
 76.2  22.4215  29.5565 i
 76.25  20.8457  29.555 i
 76.3  28.4667  29.5535 i
 76.35  24.845  29.5521 i
 76.4  23.3112  29.5507 i
 76.45  26.512  29.5493 i
 76.5  30.2398  29.548 i
 76.55  38.8321  29.5467 i
 76.6  25.963  29.5454 i
 76.65  29.5418  29.5442 i
 76.7  33.3934  29.5431 i
 76.75  34.1158  29.5419 i
 76.8  30.6109  29.5408 i
 76.85  25.9374  29.5397 i
 76.9  33.6429  29.5387 i
 76.95  33.6913  29.5377 i
 77  17.9526  29.5368 i
 77.05  30.1247  29.5359 i
 77.1  23.5533  29.535 i
 77.15  26.5114  29.5341 i
 77.2  34.7823  29.5333 i
 77.25  30.4538  29.5325 i
 77.3  31.9325  29.5318 i
 77.35  43.185  29.5311 i
 77.4  31.5092  29.5304 i
 77.45  35.419  29.5298 i
 77.5  26.8201  29.5292 i
 77.55  31.1592  29.5286 i
 77.6  28.7234  29.5281 i
 77.65  20.9926  29.5276 i
 77.7  30.5353  29.5271 i
 77.75  36.2728  29.5267 i
 77.8  35.1788  29.5263 i
 77.85  27.368  29.5259 i
 77.9  33.3652  29.5256 i
 77.95  16.6718  29.5253 i
 78  22.9937  29.525 i
 78.05  20.9666  29.5248 i
 78.1  31.7287  29.5246 i
 78.15  28.0997  29.5244 i
 78.2  37.4395  29.5243 i
 78.25  22.892  29.5242 i
 78.3  39.9624  29.5241 i
 78.35  27.0878  29.5241 i
 78.4  35.4631  29.5241 i
 78.45  38.5701  29.5241 i
 78.5  25.1266  29.5242 i
 78.55  37.7709  29.5243 i
 78.6  33.283  29.5244 i
 78.65  29.2727  29.5245 i
 78.7  28.9783  29.5247 i
 78.75  26.6847  29.5249 i
 78.8  30.7875  29.5252 i
 78.85  31.1914  29.5254 i
 78.9  35.1282  29.5257 i
 78.95  27.8802  29.5261 i
 79  40.4156  29.5264 i
 79.05  36.5456  29.5268 i
 79.1  28.3923  29.5272 i
 79.15  26.9769  29.5277 i
 79.2  28.3561  29.5281 i
 79.25  34.367  29.5286 i
 79.3  15.408  29.5292 i
 79.35  27.0734  29.5297 i
 79.4  29.3442  29.5303 i
 79.45  29.2739  29.5309 i
 79.5  31.3454  29.5316 i
 79.55  26.2304  29.5322 i
 79.6  23.2186  29.5329 i
 79.65  34.5179  29.5337 i
 79.7  26.1937  29.5344 i
 79.75  32.4821  29.5352 i
 79.8  27.9578  29.536 i
 79.85  39.2007  29.5368 i
 79.9  26.8816  29.5377 i
 79.95  22.9174  29.5385 i
 80  36.8164  29.5395 i
 80.05  41.041  29.5404 i
 80.1  22.2763  29.5413 i
 80.15  23.7243  29.5423 i
 80.2  36.2101  29.5433 i
 80.25  27.7973  29.5444 i
 80.3  20.498  29.5454 i
 80.35  26.6404  29.5465 i
 80.4  33.7627  29.5476 i
 80.45  33.5821  29.5488 i
 80.5  31.8465  29.5499 i
 80.55  21.1537  29.5511 i
 80.6  26.0612  29.5523 i
 80.65  26.2841  29.5535 i
 80.7  31.8084  29.5548 i
 80.75  41.1236  29.556 i
 80.8  31.3995  29.5573 i
 80.85  41.5061  29.5587 i
 80.9  34.9168  29.56 i
 80.95  30.6578  29.5614 i
 81  27.8349  29.5627 i
 81.05  26.8505  29.5642 i
 81.1  30.2341  29.5656 i
 81.15  34.1535  29.567 i
 81.2  33.0119  29.5685 i
 81.25  32.1712  29.57 i
 81.3  28.3378  29.5715 i
 81.35  29.9815  29.573 i
 81.4  29.1783  29.5746 i
 81.45  28.6301  29.5762 i
 81.5  32.4447  29.5778 i
 81.55  44.8561  29.5794 i
 81.6  23.7757  29.581 i
 81.65  36.5312  29.5827 i
 81.7  39.5212  29.5844 i
 81.75  77.8884  29.5861 i
 81.8  66.4097  29.5878 i
 81.85  97.7142  29.5895 i
 81.9  178.652  29.5913 i
 81.95  280.088  29.5931 i
 82  297.983  29.5948 i
 82.05  205.7  29.5967 i
 82.1  100.533  29.5985 i
 82.15  81.545  29.6003 i
 82.2  50.3048  29.6022 i
 82.25  62.0745  29.6041 i
 82.3  37.3817  29.606 i
 82.35  41.2986  29.6079 i
 82.4  44.3043  29.6098 i
 82.45  30.0283  29.6118 i
 82.5  30.1754  29.6138 i
 82.55  25.7114  29.6158 i
 82.6  32.3801  29.6178 i
 82.65  36.7494  29.6198 i
 82.7  33.5262  29.6218 i
 82.75  26.2318  29.6239 i
 82.8  28.807  29.6259 i
 82.85  27.2346  29.628 i
 82.9  42.9463  29.6301 i
 82.95  41.3798  29.6322 i
 83  33.2989  29.6343 i
 83.05  23.9314  29.6365 i
 83.1  18.1492  29.6387 i
 83.15  29.8017  29.6408 i
 83.2  36.2133  29.643 i
 83.25  28.5528  29.6452 i
 83.3  38.4532  29.6474 i
 83.35  35.5367  29.6497 i
 83.4  36.6428  29.6519 i
 83.45  26.51  29.6542 i
 83.5  29.9339  29.6564 i
 83.55  28.2067  29.6587 i
 83.6  39.5455  29.661 i
 83.65  36.8709  29.6633 i
 83.7  38.4092  29.6656 i
 83.75  44.6233  29.668 i
 83.8  29.8943  29.6703 i
 83.85  37.1807  29.6727 i
 83.9  26.6436  29.675 i
 83.95  34.5301  29.6774 i
 84  22.8906  29.6798 i
 84.05  30.4326  29.6822 i
 84.1  31.0156  29.6846 i
 84.15  30.9563  29.6871 i
 84.2  37.7038  29.6895 i
 84.25  21.4601  29.6919 i
 84.3  26.7768  29.6944 i
 84.35  28.6823  29.6969 i
 84.4  35.0624  29.6994 i
 84.45  21.7073  29.7018 i
 84.5  27.7649  29.7043 i
 84.55  20.4573  29.7068 i
 84.6  22.1538  29.7094 i
 84.65  25.8712  29.7119 i
 84.7  34.3272  29.7144 i
 84.75  36.0844  29.717 i
 84.8  35.6653  29.7195 i
 84.85  30.8343  29.7221 i
 84.9  20.3666  29.7247 i
 84.95  30.5019  29.7272 i
 85  30.2237  29.7298 i
 85.05  32.8324  29.7324 i
 85.1  27.0546  29.735 i
 85.15  27.389  29.7376 i
 85.2  29.6549  29.7402 i
 85.25  35.4097  29.7429 i
 85.3  35.367  29.7455 i
 85.35  25.5553  29.7481 i
 85.4  23.3537  29.7508 i
 85.45  30.7952  29.7534 i
 85.5  26.2941  29.7561 i
 85.55  28.4006  29.7587 i
 85.6  40.977  29.7614 i
 85.65  33.2127  29.7641 i
 85.7  28.8911  29.7668 i
 85.75  30.3933  29.7694 i
 85.8  35.0311  29.7721 i
 85.85  36.5305  29.7748 i
 85.9  33.1981  29.7775 i
 85.95  28.623  29.7802 i
 86  15.5545  29.7829 i
 86.05  25.6709  29.7857 i
 86.1  31.0199  29.7884 i
 86.15  33.5417  29.7911 i
 86.2  31.1588  29.7938 i
 86.25  28.0825  29.7965 i
 86.3  32.1211  29.7993 i
 86.35  21.9624  29.802 i
 86.4  32.8254  29.8047 i
 86.45  22.4422  29.8075 i
 86.5  32.2887  29.8102 i
 86.55  36.8297  29.813 i
 86.6  28.5462  29.8157 i
 86.65  32.2873  29.8185 i
 86.7  27.1102  29.8212 i
 86.75  24.5577  29.824 i
 86.8  35.0041  29.8267 i
 86.85  28.8661  29.8295 i
 86.9  38.2874  29.8322 i
 86.95  22.8181  29.835 i
 87  40.5089  29.8377 i
 87.05  33.2367  29.8405 i
 87.1  36.6552  29.8433 i
 87.15  38.3267  29.846 i
 87.2  35.7425  29.8488 i
 87.25  27.6361  29.8515 i
 87.3  27.4296  29.8543 i
 87.35  37.7341  29.8571 i
 87.4  24.4621  29.8598 i
 87.45  27.3002  29.8626 i
 87.5  33.8027  29.8653 i
 87.55  36.2098  29.8681 i
 87.6  27.5858  29.8708 i
 87.65  22.835  29.8736 i
 87.7  30.8932  29.8763 i
 87.75  23.7263  29.8791 i
 87.8  29.3164  29.8818 i
 87.85  28.4941  29.8846 i
 87.9  32.1337  29.8873 i
 87.95  33.7862  29.8901 i
 88  28.9817  29.8928 i
 88.05  20.7561  29.8955 i
 88.1  30.7884  29.8983 i
 88.15  35.9974  29.901 i
 88.2  24.955  29.9037 i
 88.25  40.6492  29.9065 i
 88.3  33.222  29.9092 i
 88.35  24.9771  29.9119 i
 88.4  22.9064  29.9146 i
 88.45  33.2597  29.9173 i
 88.5  29.5962  29.92 i
 88.55  20.1854  29.9227 i
 88.6  22.6446  29.9254 i
 88.65  24.2853  29.9281 i
 88.7  25.5227  29.9307 i
 88.75  30.4648  29.9334 i
 88.8  31.4182  29.9361 i
 88.85  30.2531  29.9388 i
 88.9  31.6614  29.9414 i
 88.95  24.0846  29.9441 i
 89  20.8026  29.9467 i
 89.05  28.4408  29.9494 i
 89.1  34.3159  29.952 i
 89.15  32.4388  29.9546 i
 89.2  22.222  29.9572 i
 89.25  25.7047  29.9598 i
 89.3  30.858  29.9624 i
 89.35  23.9226  29.965 i
 89.4  22.9322  29.9676 i
 89.45  32.0249  29.9702 i
 89.5  28.3054  29.9728 i
 89.55  26.3803  29.9753 i
 89.6  34.0996  29.9779 i
 89.65  28.6845  29.9804 i
 89.7  29.0247  29.983 i
 89.75  29.8472  29.9855 i
 89.8  33.4955  29.988 i
 89.85  34.2398  29.9905 i
 89.9  34.3302  29.993 i
 89.95  30.4983  29.9955 i
 90  29.868  29.998 i
 90.05  31.0379  30.0005 i
 90.1  30.0036  30.003 i
 90.15  27.2616  30.0055 i
 90.2  31.6197  30.008 i
 90.25  37.6669  30.0105 i
 90.3  29.7249  30.0131 i
 90.35  33.6699  30.0157 i
 90.4  34.4681  30.0183 i
 90.45  34.6334  30.0209 i
 90.5  31.9781  30.0235 i
 90.55  28.4356  30.0262 i
 90.6  33.5837  30.0289 i
 90.65  31.9655  30.0316 i
 90.7  32.6364  30.0343 i
 90.75  28.4992  30.037 i
 90.8  29.3747  30.0398 i
 90.85  32.403  30.0426 i
 90.9  31.0719  30.0453 i
 90.95  32.5829  30.0482 i
 91  25.3472  30.051 i
 91.05  20.8252  30.0538 i
 91.1  23.9103  30.0567 i
 91.15  23.9238  30.0596 i
 91.2  36.1417  30.0625 i
 91.25  38.5333  30.0654 i
 91.3  22.0401  30.0683 i
 91.35  42.6481  30.0713 i
 91.4  34.3446  30.0742 i
 91.45  33.1947  30.0772 i
 91.5  23.3528  30.0802 i
 91.55  27.9171  30.0832 i
 91.6  21.3731  30.0863 i
 91.65  29.9478  30.0893 i
 91.7  36.2373  30.0924 i
 91.75  25.9827  30.0955 i
 91.8  40.3239  30.0986 i
 91.85  32.3604  30.1017 i
 91.9  24.5009  30.1049 i
 91.95  27.9132  30.108 i
 92  28.8659  30.1112 i
 92.05  36.089  30.1144 i
 92.1  34.3013  30.1176 i
 92.15  34.456  30.1208 i
 92.2  42.8503  30.124 i
 92.25  29.1375  30.1273 i
 92.3  27.5988  30.1305 i
 92.35  29.7882  30.1338 i
 92.4  26.4789  30.1371 i
 92.45  32.0282  30.1404 i
 92.5  24.3771  30.1437 i
 92.55  24.7611  30.1471 i
 92.6  27.3878  30.1504 i
 92.65  34.1979  30.1538 i
 92.7  29.4969  30.1572 i
 92.75  35.8949  30.1606 i
 92.8  25.5613  30.164 i
 92.85  31.5666  30.1674 i
 92.9  33.591  30.1709 i
 92.95  28.1688  30.1743 i
 93  32.588  30.1778 i
 93.05  35.493  30.1813 i
 93.1  33.627  30.1848 i
 93.15  36.3149  30.1883 i
 93.2  24.4384  30.1918 i
 93.25  34.8073  30.1954 i
 93.3  15.6122  30.1989 i
 93.35  37.6295  30.2025 i
 93.4  31.3367  30.2061 i
 93.45  28.14  30.2097 i
 93.5  33.456  30.2133 i
 93.55  27.2819  30.2169 i
 93.6  36.5053  30.2206 i
 93.65  34.2656  30.2242 i
 93.7  34.9311  30.2279 i
 93.75  39.3918  30.2315 i
 93.8  33.7533  30.2352 i
 93.85  37.1142  30.2389 i
 93.9  33.2452  30.2426 i
 93.95  31.291  30.2464 i
 94  28.0788  30.2501 i
 94.05  16.9202  30.2538 i
 94.1  21.5606  30.2576 i
 94.15  25.5842  30.2614 i
 94.2  38.47  30.2652 i
 94.25  35.0677  30.269 i
 94.3  34.3954  30.2728 i
 94.35  34.41  30.2766 i
 94.4  37.7108  30.2804 i
 94.45  32.3426  30.2842 i
 94.5  23.9617  30.2881 i
 94.55  39.8542  30.292 i
 94.6  30.479  30.2958 i
 94.65  24.7407  30.2997 i
 94.7  26.5062  30.3036 i
 94.75  23.997  30.3075 i
 94.8  24.7055  30.3114 i
 94.85  29.3363  30.3154 i
 94.9  28.5248  30.3193 i
 94.95  25.3709  30.3232 i
 95  22.2409  30.3272 i
 95.05  29.7838  30.3312 i
 95.1  32.6779  30.3352 i
 95.15  23.8977  30.3391 i
 95.2  29.9881  30.3431 i
 95.25  31.3121  30.3471 i
 95.3  28.708  30.3512 i
 95.35  25.8792  30.3552 i
 95.4  22.1122  30.3592 i
 95.45  30.1756  30.3633 i
 95.5  34.877  30.3673 i
 95.55  27.3719  30.3714 i
 95.6  40.7941  30.3755 i
 95.65  31.5443  30.3795 i
 95.7  37.7212  30.3836 i
 95.75  37.696  30.3877 i
 95.8  30.4948  30.3918 i
 95.85  44.3917  30.396 i
 95.9  34.82  30.4001 i
 95.95  33.3188  30.4042 i
 96  32.2193  30.4083 i
 96.05  35.9801  30.4125 i
 96.1  28.9889  30.4167 i
 96.15  33.5501  30.4208 i
 96.2  24.1779  30.425 i
 96.25  31.3483  30.4292 i
 96.3  32.669  30.4334 i
 96.35  23.6492  30.4376 i
 96.4  28.8105  30.4418 i
 96.45  30.6403  30.446 i
 96.5  25.1152  30.4502 i
 96.55  24.4591  30.4544 i
 96.6  30.0815  30.4586 i
 96.65  24.1376  30.4629 i
 96.7  32.9554  30.4671 i
 96.75  32.8681  30.4714 i
 96.8  21.6841  30.4756 i
 96.85  15.3083  30.4799 i
 96.9  35.3674  30.4842 i
 96.95  21.3181  30.4884 i
 97  29.6029  30.4927 i
 97.05  26.9952  30.497 i
 97.1  29.4283  30.5013 i
 97.15  41.2679  30.5056 i
 97.2  29.0666  30.5099 i
 97.25  22.8579  30.5142 i
 97.3  21.0632  30.5185 i
 97.35  34.1288  30.5229 i
 97.4  28.7735  30.5272 i
 97.45  33.9974  30.5315 i
 97.5  30.6989  30.5359 i
 97.55  37.9998  30.5402 i
 97.6  37.1901  30.5445 i
 97.65  26.6001  30.5489 i
 97.7  25.9304  30.5533 i
 97.75  29.5482  30.5576 i
 97.8  33.9833  30.562 i
 97.85  37.3453  30.5664 i
 97.9  31.8747  30.5707 i
 97.95  26.9319  30.5751 i
 98  24.3487  30.5795 i
 98.05  31.7053  30.5839 i
 98.1  39.4242  30.5883 i
 98.15  39.6395  30.5927 i
 98.2  40.0685  30.5971 i
 98.25  33.5957  30.6015 i
 98.3  44.3862  30.6059 i
 98.35  54.4682  30.6103 i
 98.4  80.7914  30.6147 i
 98.45  119.816  30.6191 i
 98.5  144.554  30.6235 i
 98.55  150.801  30.628 i
 98.6  139.028  30.6324 i
 98.65  80.296  30.6368 i
 98.7  78.3207  30.6413 i
 98.75  64.3961  30.6457 i
 98.8  40.6836  30.6501 i
 98.85  37.2095  30.6546 i
 98.9  34.6545  30.659 i
 98.95  36.391  30.6634 i
 99  38.9058  30.6679 i
 99.05  40.8278  30.6723 i
 99.1  26.1772  30.6768 i
 99.15  33.8828  30.6812 i
 99.2  35.8659  30.6857 i
 99.25  37.6146  30.6901 i
 99.3  36.3391  30.6946 i
 99.35  38.2287  30.6991 i
 99.4  16.5659  30.7035 i
 99.45  31.9285  30.708 i
 99.5  36.1881  30.7124 i
 99.55  26.5595  30.7169 i
 99.6  35.1451  30.7214 i
 99.65  31.7936  30.7258 i
 99.7  24.7683  30.7303 i
 99.75  28.5894  30.7348 i
 99.8  25.2362  30.7392 i
 99.85  26.9339  30.7437 i
 99.9  39.171  30.7482 i
 99.95  32.0094  30.7526 i
 100  33.6617  30.7571 i
 100.05  23.3209  30.7616 i
 100.1  22.9957  30.766 i
 100.15  27.1254  30.7705 i
 100.2  29.3066  30.775 i
 100.25  34.3458  30.7794 i
 100.3  24.8765  30.7839 i
 100.35  33.0381  30.7884 i
 100.4  25.686  30.7928 i
 100.45  28.7071  30.7973 i
 100.5  27.2262  30.8017 i
 100.55  31.896  30.8062 i
 100.6  20.3541  30.8107 i
 100.65  18.2774  30.8151 i
 100.7  18.3308  30.8196 i
 100.75  36.0629  30.824 i
 100.8  26.6615  30.8285 i
 100.85  31.4241  30.833 i
 100.9  36.0439  30.8374 i
 100.95  25.9136  30.8419 i
 101  29.1272  30.8463 i
 101.05  34.3239  30.8507 i
 101.1  29.5973  30.8552 i
 101.15  22.8736  30.8596 i
 101.2  28.1862  30.8641 i
 101.25  35.3881  30.8685 i
 101.3  30.3478  30.8729 i
 101.35  27.3036  30.8774 i
 101.4  29.0201  30.8818 i
 101.45  25.805  30.8862 i
 101.5  22.2216  30.8907 i
 101.55  26.3746  30.8951 i
 101.6  36.5799  30.8995 i
 101.65  32.692  30.9039 i
 101.7  30.8289  30.9083 i
 101.75  23.5058  30.9127 i
 101.8  30.0023  30.9171 i
 101.85  29.0844  30.9215 i
 101.9  25.8265  30.9259 i
 101.95  33.9389  30.9303 i
 102  26.1088  30.9347 i
 102.05  36.6968  30.9391 i
 102.1  36.8185  30.9435 i
 102.15  26.8403  30.9478 i
 102.2  19.1762  30.9522 i
 102.25  35.8353  30.9566 i
 102.3  25.011  30.9609 i
 102.35  31.4352  30.9653 i
 102.4  28.8243  30.9697 i
 102.45  36.3511  30.974 i
 102.5  31.5764  30.9784 i
 102.55  29.854  30.9827 i
 102.6  30.4423  30.987 i
 102.65  23.7296  30.9914 i
 102.7  34.6183  30.9957 i
 102.75  34.4822  31 i
 102.8  35.9369  31.0043 i
 102.85  35.5646  31.0086 i
 102.9  24.7225  31.0129 i
 102.95  35.8601  31.0172 i
 103  30.3269  31.0215 i
 103.05  25.2266  31.0258 i
 103.1  27.7766  31.0301 i
 103.15  31.1154  31.0343 i
 103.2  23.5914  31.0386 i
 103.25  29.6859  31.0429 i
 103.3  25.6663  31.0471 i
 103.35  34.306  31.0514 i
 103.4  33.6413  31.0556 i
 103.45  28.949  31.0598 i
 103.5  32.3811  31.064 i
 103.55  33.8263  31.0683 i
 103.6  20.8126  31.0725 i
 103.65  30.9581  31.0767 i
 103.7  33.9166  31.0809 i
 103.75  21.4705  31.0851 i
 103.8  37.6565  31.0892 i
 103.85  45.3619  31.0934 i
 103.9  28.8875  31.0976 i
 103.95  36.4863  31.1017 i
 104  40.6467  31.1059 i
 104.05  28.7168  31.11 i
 104.1  34.0173  31.1142 i
 104.15  31.3024  31.1183 i
 104.2  32.8375  31.1224 i
 104.25  42.871  31.1265 i
 104.3  25.0257  31.1306 i
 104.35  24.3852  31.1347 i
 104.4  28.7816  31.1388 i
 104.45  31.4054  31.1429 i
 104.5  35.2674  31.1469 i
 104.55  28.7868  31.151 i
 104.6  37.0453  31.155 i
 104.65  30.2463  31.1591 i
 104.7  21.9977  31.1631 i
 104.75  32.9581  31.1671 i
 104.8  24.3462  31.1711 i
 104.85  32.1886  31.1751 i
 104.9  30.1178  31.1791 i
 104.95  40.9147  31.1831 i
 105  25.7747  31.1871 i
 105.05  30.2993  31.191 i
 105.1  34.2788  31.195 i
 105.15  26.7401  31.1989 i
 105.2  29.5631  31.2028 i
 105.25  28.923  31.2067 i
 105.3  27.8002  31.2107 i
 105.35  30.1765  31.2145 i
 105.4  28.1557  31.2184 i
 105.45  26.388  31.2223 i
 105.5  24.5072  31.2262 i
 105.55  25.938  31.23 i
 105.6  26.6335  31.2339 i
 105.65  27.5912  31.2377 i
 105.7  27.4482  31.2415 i
 105.75  21.3527  31.2453 i
 105.8  39.7532  31.2491 i
 105.85  36.0104  31.2529 i
 105.9  32.3436  31.2567 i
 105.95  30.2701  31.2604 i
 106  27.4677  31.2642 i
 106.05  32.6167  31.2679 i
 106.1  27.548  31.2717 i
 106.15  33.4831  31.2754 i
 106.2  42.2968  31.2791 i
 106.25  26.5594  31.2828 i
 106.3  32.0854  31.2864 i
 106.35  30.3475  31.2901 i
 106.4  21.1393  31.2937 i
 106.45  28.696  31.2974 i
 106.5  42.7079  31.301 i
 106.55  22.7089  31.3046 i
 106.6  26.7505  31.3082 i
 106.65  24.3455  31.3118 i
 106.7  28.0943  31.3154 i
 106.75  31.9533  31.3189 i
 106.8  22.6426  31.3225 i
 106.85  33.1135  31.326 i
 106.9  32.5386  31.3295 i
 106.95  25.4616  31.333 i
 107  32.5372  31.3365 i
 107.05  39.5654  31.34 i
 107.1  34.9297  31.3434 i
 107.15  21.3573  31.3469 i
 107.2  37.7089  31.3503 i
 107.25  32.705  31.3537 i
 107.3  32.7412  31.3571 i
 107.35  27.0235  31.3605 i
 107.4  26.8162  31.3639 i
 107.45  35.4151  31.3673 i
 107.5  24.8305  31.3706 i
 107.55  33.4024  31.3739 i
 107.6  33.9095  31.3772 i
 107.65  34.2868  31.3805 i
 107.7  31.9864  31.3838 i
 107.75  28.5739  31.3871 i
 107.8  26.4324  31.3903 i
 107.85  22.1838  31.3936 i
 107.9  23.5041  31.3968 i
 107.95  27.7639  31.4 i
 108  44.1722  31.4032 i
 108.05  26.2354  31.4064 i
 108.1  30.7879  31.4096 i
 108.15  30.3615  31.4127 i
 108.2  28.4532  31.4159 i
 108.25  30.389  31.419 i
 108.3  37.0424  31.4222 i
 108.35  24.9821  31.4253 i
 108.4  31.6447  31.4285 i
 108.45  27.807  31.4316 i
 108.5  33.8274  31.4347 i
 108.55  21.447  31.4379 i
 108.6  21.8333  31.441 i
 108.65  27.5119  31.4441 i
 108.7  22.9986  31.4472 i
 108.75  33.635  31.4502 i
 108.8  30.1283  31.4533 i
 108.85  27.3853  31.4564 i
 108.9  23.0018  31.4595 i
 108.95  21.2261  31.4625 i
 109  29.8864  31.4656 i
 109.05  31.9141  31.4686 i
 109.1  25.7662  31.4717 i
 109.15  33.5219  31.4747 i
 109.2  30.2357  31.4778 i
 109.25  33.1022  31.4808 i
 109.3  24.6179  31.4838 i
 109.35  29.9755  31.4868 i
 109.4  33.5836  31.4898 i
 109.45  31.0872  31.4928 i
 109.5  26.0149  31.4958 i
 109.55  24.9719  31.4988 i
 109.6  25.0298  31.5018 i
 109.65  38.1575  31.5047 i
 109.7  36.6995  31.5077 i
 109.75  33.5487  31.5107 i
 109.8  26.5112  31.5136 i
 109.85  26.4964  31.5166 i
 109.9  42.1169  31.5195 i
 109.95  25.233  31.5224 i
 110  30.0562  31.5254 i
 110.05  31.0722  31.5283 i
 110.1  34.0195  31.5312 i
 110.15  29.3118  31.5341 i
 110.2  30.5444  31.537 i
 110.25  27.7464  31.5399 i
 110.3  29.832  31.5428 i
 110.35  20.3679  31.5457 i
 110.4  34.1551  31.5486 i
 110.45  41.9156  31.5515 i
 110.5  38.2094  31.5543 i
 110.55  36.1789  31.5572 i
 110.6  26.7869  31.56 i
 110.65  25.3266  31.5629 i
 110.7  34.4288  31.5657 i
 110.75  36.1738  31.5686 i
 110.8  36.8099  31.5714 i
 110.85  35.5633  31.5742 i
 110.9  27.8281  31.5771 i
 110.95  20.9888  31.5799 i
 111  26.6921  31.5827 i
 111.05  31.8291  31.5855 i
 111.1  28.6747  31.5883 i
 111.15  42.8061  31.5911 i
 111.2  25.7511  31.5939 i
 111.25  39.5797  31.5966 i
 111.3  32.8207  31.5994 i
 111.35  35.8024  31.6022 i
 111.4  35.0547  31.605 i
 111.45  27.1214  31.6077 i
 111.5  32.2054  31.6105 i
 111.55  26.6982  31.6132 i
 111.6  26.6481  31.616 i
 111.65  30.4403  31.6187 i
 111.7  30.2173  31.6214 i
 111.75  16.7815  31.6242 i
 111.8  24.6686  31.6269 i
 111.85  34.8832  31.6296 i
 111.9  28.1055  31.6323 i
 111.95  33.5612  31.635 i
 112  32.3992  31.6377 i
 112.05  28.6124  31.6404 i
 112.1  26.8406  31.6431 i
 112.15  24.7237  31.6458 i
 112.2  22.0654  31.6484 i
 112.25  25.5362  31.6511 i
 112.3  31.1796  31.6538 i
 112.35  33.104  31.6565 i
 112.4  27.8585  31.6591 i
 112.45  33.1683  31.6618 i
 112.5  32.4285  31.6644 i
 112.55  29.7537  31.6671 i
 112.6  22.3345  31.6697 i
 112.65  27.6598  31.6723 i
 112.7  35.5663  31.6749 i
 112.75  24.0074  31.6776 i
 112.8  35.1373  31.6802 i
 112.85  27.227  31.6828 i
 112.9  34.2313  31.6854 i
 112.95  20.5109  31.688 i
 113  29.8921  31.6906 i
 113.05  28.4751  31.6932 i
 113.1  40.8473  31.6958 i
 113.15  30.0813  31.6984 i
 113.2  28.257  31.7009 i
 113.25  30.2049  31.7035 i
 113.3  29.3832  31.7061 i
 113.35  32.9591  31.7087 i
 113.4  21.8912  31.7112 i
 113.45  29.088  31.7138 i
 113.5  29.2472  31.7163 i
 113.55  36.1024  31.7189 i
 113.6  34.4965  31.7214 i
 113.65  23.0628  31.7239 i
 113.7  40.6601  31.7265 i
 113.75  31.5784  31.729 i
 113.8  28.208  31.7315 i
 113.85  22.5135  31.734 i
 113.9  40.1167  31.7365 i
 113.95  41.0666  31.7391 i
 114  36.6637  31.7416 i
 114.05  20.8313  31.7441 i
 114.1  26.9697  31.7466 i
 114.15  35.3713  31.749 i
 114.2  41.236  31.7515 i
 114.25  26.4988  31.754 i
 114.3  28.3751  31.7565 i
 114.35  23.4565  31.759 i
 114.4  21.8185  31.7614 i
 114.45  18.2661  31.7639 i
 114.5  32.9537  31.7664 i
 114.55  26.9589  31.7688 i
 114.6  26.0057  31.7713 i
 114.65  27.0014  31.7737 i
 114.7  32.7466  31.7762 i
 114.75  29.5944  31.7786 i
 114.8  31.2453  31.781 i
 114.85  29.7778  31.7835 i
 114.9  36.2542  31.7859 i
 114.95  23.2886  31.7883 i
 115  24.9812  31.7907 i
 115.05  39.6123  31.7931 i
 115.1  29.2937  31.7956 i
 115.15  41.8608  31.798 i
 115.2  31.6517  31.8004 i
 115.25  33.5786  31.8028 i
 115.3  27.7257  31.8052 i
 115.35  41.7922  31.8076 i
 115.4  26.7146  31.8099 i
 115.45  30.5797  31.8123 i
 115.5  51.2944  31.8147 i
 115.55  44.0884  31.8171 i
 115.6  48.7611  31.8195 i
 115.65  49.3105  31.8218 i
 115.7  63.119  31.8242 i
 115.75  53.6136  31.8265 i
 115.8  75.0127  31.8289 i
 115.85  105.921  31.8313 i
 115.9  95.7115  31.8336 i
 115.95  103.709  31.836 i
 116  100.659  31.8383 i
 116.05  93.3354  31.8406 i
 116.1  74.6314  31.843 i
 116.15  57.9804  31.8453 i
 116.2  61.1814  31.8476 i
 116.25  41.205  31.85 i
 116.3  37.075  31.8523 i
 116.35  50.2609  31.8546 i
 116.4  28.018  31.8569 i
 116.45  39.873  31.8592 i
 116.5  37.2158  31.8615 i
 116.55  40.8041  31.8638 i
 116.6  28.8146  31.8661 i
 116.65  24.2992  31.8684 i
 116.7  24.4848  31.8707 i
 116.75  17.7031  31.873 i
 116.8  28.861  31.8753 i
 116.85  25.2603  31.8776 i
 116.9  32.5385  31.8799 i
 116.95  26.4463  31.8821 i
 117  36.3728  31.8844 i
 117.05  27.7132  31.8867 i
 117.1  28.8391  31.889 i
 117.15  22.2472  31.8912 i
 117.2  26.7998  31.8935 i
 117.25  32.8416  31.8957 i
 117.3  30.5912  31.898 i
 117.35  28.2359  31.9003 i
 117.4  27.4255  31.9025 i
 117.45  32.1746  31.9047 i
 117.5  39.759  31.907 i
 117.55  28.1377  31.9092 i
 117.6  33.7866  31.9115 i
 117.65  34.113  31.9137 i
 117.7  29.347  31.9159 i
 117.75  32.5002  31.9182 i
 117.8  33.689  31.9204 i
 117.85  38.6704  31.9226 i
 117.9  30.5464  31.9248 i
 117.95  25.7039  31.9271 i
 118  25.8138  31.9293 i
 118.05  30.1801  31.9315 i
 118.1  29.687  31.9337 i
 118.15  31.9088  31.9359 i
 118.2  33.3892  31.9381 i
 118.25  32.448  31.9403 i
 118.3  27.9509  31.9425 i
 118.35  21.776  31.9447 i
 118.4  27.0506  31.9469 i
 118.45  33.6765  31.9491 i
 118.5  20.7094  31.9513 i
 118.55  22.128  31.9535 i
 118.6  25.301  31.9556 i
 118.65  29.7686  31.9578 i
 118.7  35.0958  31.96 i
 118.75  36.4607  31.9622 i
 118.8  29.0781  31.9644 i
 118.85  28.2005  31.9665 i
 118.9  22.585  31.9687 i
 118.95  34.0503  31.9709 i
 119  35.1991  31.973 i
 119.05  31.0773  31.9752 i
 119.1  32.7917  31.9773 i
 119.15  47.4121  31.9795 i
 119.2  25.8657  31.9817 i
 119.25  33.2452  31.9838 i
 119.3  29.5226  31.986 i
 119.35  27.6163  31.9881 i
 119.4  31.991  31.9903 i
 119.45  34.9782  31.9924 i
 119.5  26.1401  31.9945 i
 119.55  30.8142  31.9967 i
 119.6  37.9649  31.9988 i
 119.65  26.4421  32.001 i
 119.7  25.1578  32.0031 i
 119.75  29.2714  32.0052 i
 119.8  29.3495  32.0074 i
 119.85  31.4624  32.0095 i
 119.9  38.0115  32.0116 i
 119.95  24.5113  32.0137 i
 120  27.85  32.0159 i
 120.05  26.4561  32.018 i
 120.1  26.4396  32.0201 i
 120.15  38.034  32.0222 i
 120.2  30.4349  32.0243 i
 120.25  31.8145  32.0264 i
 120.3  22.4724  32.0285 i
 120.35  29.6488  32.0307 i
 120.4  27.4331  32.0328 i
 120.45  35.5398  32.0349 i
 120.5  31.3013  32.037 i
 120.55  35.7212  32.0391 i
 120.6  32.0686  32.0412 i
 120.65  34.4943  32.0433 i
 120.7  28.8166  32.0454 i
 120.75  31.7392  32.0475 i
 120.8  42.1031  32.0496 i
 120.85  20.5178  32.0516 i
 120.9  21.8327  32.0537 i
 120.95  36.0801  32.0558 i
 121  41.9704  32.0579 i
 121.05  38.5054  32.06 i
 121.1  30.9957  32.0621 i
 121.15  23.3594  32.0642 i
 121.2  38.1457  32.0663 i
 121.25  30.9588  32.0683 i
 121.3  27.6208  32.0704 i
 121.35  32.4145  32.0725 i
 121.4  26.2132  32.0746 i
 121.45  37.2138  32.0766 i
 121.5  39.1546  32.0787 i
 121.55  22.8139  32.0808 i
 121.6  26.4688  32.0829 i
 121.65  33.0712  32.0849 i
 121.7  29.9612  32.087 i
 121.75  21.1265  32.0891 i
 121.8  34.3091  32.0911 i
 121.85  29.3072  32.0932 i
 121.9  23.708  32.0953 i
 121.95  26.6083  32.0973 i
 122  27.3204  32.0994 i
 122.05  31.6992  32.1015 i
 122.1  29.967  32.1035 i
 122.15  27.7586  32.1056 i
 122.2  36.151  32.1076 i
 122.25  34.2023  32.1097 i
 122.3  36.24  32.1117 i
 122.35  46.0317  32.1138 i
 122.4  25.8022  32.1159 i
 122.45  37.9219  32.1179 i
 122.5  33.4888  32.12 i
 122.55  32.8026  32.122 i
 122.6  32.6482  32.1241 i
 122.65  31.1192  32.1261 i
 122.7  35.8067  32.1282 i
 122.75  27.5519  32.1302 i
 122.8  29.08  32.1323 i
 122.85  32.1729  32.1343 i
 122.9  31.0061  32.1364 i
 122.95  29.5869  32.1384 i
 123  28.1756  32.1405 i
 123.05  29.0681  32.1425 i
 123.1  28.7497  32.1445 i
 123.15  31.6931  32.1466 i
 123.2  22.0693  32.1486 i
 123.25  28.1331  32.1507 i
 123.3  33.9078  32.1527 i
 123.35  33.1325  32.1548 i
 123.4  29.8105  32.1568 i
 123.45  22.2013  32.1588 i
 123.5  27.486  32.1609 i
 123.55  30.2033  32.1629 i
 123.6  37.4598  32.165 i
 123.65  28.5699  32.167 i
 123.7  25.0992  32.169 i
 123.75  29.483  32.1711 i
 123.8  24.9747  32.1731 i
 123.85  34.9545  32.1752 i
 123.9  18.9707  32.1772 i
 123.95  40.8856  32.1792 i
 124  26.9554  32.1813 i
 124.05  24.2447  32.1833 i
 124.1  34.6292  32.1853 i
 124.15  25.8649  32.1874 i
 124.2  37.2083  32.1894 i
 124.25  24.3556  32.1914 i
 124.3  34.4283  32.1935 i
 124.35  30.6126  32.1955 i
 124.4  36.7374  32.1976 i
 124.45  29.238  32.1996 i
 124.5  29.0384  32.2016 i
 124.55  40.3731  32.2037 i
 124.6  30.8276  32.2057 i
 124.65  31.9047  32.2077 i
 124.7  29.5316  32.2098 i
 124.75  22.8208  32.2118 i
 124.8  29.6985  32.2138 i
 124.85  32.9138  32.2159 i
 124.9  24.2783  32.2179 i
 124.95  22.9103  32.22 i
 125  28.2093  32.222 i
 125.05  22.9472  32.224 i
 125.1  31.9067  32.2261 i
 125.15  23.8093  32.2281 i
 125.2  37.6816  32.2301 i
 125.25  29.8611  32.2322 i
 125.3  21.8131  32.2342 i
 125.35  35.2209  32.2363 i
 125.4  36.4758  32.2383 i
 125.45  30.0402  32.2403 i
 125.5  27.0664  32.2424 i
 125.55  32.6612  32.2444 i
 125.6  30.6807  32.2465 i
 125.65  30.898  32.2485 i
 125.7  25.135  32.2506 i
 125.75  24.9443  32.2526 i
 125.8  32.9321  32.2546 i
 125.85  33.8784  32.2567 i
 125.9  25.8893  32.2587 i
 125.95  26.6052  32.2608 i
 126  32.0523  32.2628 i
 126.05  26.0108  32.2649 i
 126.1  29.045  32.2669 i
 126.15  32.4254  32.269 i
 126.2  31.3059  32.271 i
 126.25  26.5916  32.2731 i
 126.3  30.765  32.2751 i
 126.35  25.911  32.2772 i
 126.4  26.7769  32.2792 i
 126.45  21.7752  32.2813 i
 126.5  23.4512  32.2833 i
 126.55  36.1099  32.2854 i
 126.6  31.9917  32.2874 i
 126.65  29.5669  32.2895 i
 126.7  28.3192  32.2915 i
 126.75  38.9394  32.2936 i
 126.8  27.1615  32.2957 i
 126.85  25.8106  32.2977 i
 126.9  27.9448  32.2998 i
 126.95  25.7591  32.3018 i
 127  27.3465  32.3039 i
 127.05  41.2621  32.306 i
 127.1  29.9042  32.308 i
 127.15  31.8733  32.3101 i
 127.2  26.8898  32.3122 i
 127.25  31.343  32.3142 i
 127.3  23.3555  32.3163 i
 127.35  17.2098  32.3184 i
 127.4  33.9424  32.3205 i
 127.45  35.5947  32.3225 i
 127.5  32.2341  32.3246 i
 127.55  21.7683  32.3267 i
 127.6  23.9033  32.3288 i
 127.65  31.3038  32.3308 i
 127.7  36.9171  32.3329 i
 127.75  33.7368  32.335 i
 127.8  41.7036  32.3371 i
 127.85  35.4628  32.3392 i
 127.9  29.8134  32.3412 i
 127.95  47.4739  32.3433 i
 128  29.2316  32.3454 i
 128.05  37.6853  32.3475 i
 128.1  35.5259  32.3496 i
 128.15  28.1841  32.3517 i
 128.2  29.4516  32.3538 i
 128.25  30.5339  32.3559 i
 128.3  27.178  32.358 i
 128.35  26.2959  32.3601 i
 128.4  27.4132  32.3622 i
 128.45  39.4805  32.3643 i
 128.5  26.6468  32.3664 i
 128.55  23.4666  32.3685 i
 128.6  28.4158  32.3706 i
 128.65  21.4215  32.3727 i
 128.7  45.3147  32.3748 i
 128.75  30.3273  32.3769 i
 128.8  28.8106  32.3791 i
 128.85  33.095  32.3812 i
 128.9  34.8035  32.3833 i
 128.95  21.3353  32.3854 i
 129  28.2629  32.3875 i
 129.05  30.5191  32.3897 i
 129.1  23.3818  32.3918 i
 129.15  26.0491  32.3939 i
 129.2  31.5099  32.3961 i
 129.25  32.5221  32.3982 i
 129.3  26.1047  32.4003 i
 129.35  31.2061  32.4025 i
 129.4  35.9257  32.4046 i
 129.45  31.351  32.4067 i
 129.5  36.2646  32.4089 i
 129.55  18.2531  32.411 i
 129.6  32.9969  32.4132 i
 129.65  28.7268  32.4153 i
 129.7  32.6194  32.4175 i
 129.75  35.0682  32.4196 i
 129.8  29.0149  32.4218 i
 129.85  29.6701  32.4239 i
 129.9  34.421  32.4261 i
 129.95  39.2864  32.4283 i
 130  65.0491  32.4304 i

