40 57.5254 7.58455008553573
40.05 34.3527 5.86111764085997
40.1 49.5959 7.04243565820803
40.15 47.885 6.91989884319128
40.2 35.155 5.92916520262338
40.25 45.5188 6.74676218641209
40.3 38.6086 6.21358189774626
40.35 29.8787 5.46614123491152
40.4 39.1922 6.26036740135913
40.45 48.3261 6.95169763439119
40.5 41.5998 6.44979069427838
40.55 33.8735 5.82009450095099
40.6 39.0184 6.24647100369481
40.65 45.3372 6.73329042890621
40.7 32.0546 5.66167819643611
40.75 37.4853 6.12252398933642
40.8 38.9496 6.24096146438992
40.85 39.9426 6.320015822765
40.9 34.4947 5.87321887894534
40.95 48.6896 6.97779334747024
41 43.8506 6.62197855629267
41.05 31.9394 5.65149537733156
41.1 43.627 6.60507380730905
41.15 42.016 6.48197500766549
41.2 38.0647 6.16965963404789
41.25 46.9545 6.85233536832517
41.3 35.902 5.99182776788519
41.35 34.0033 5.83123486064487
41.4 40.5717 6.36959182365715
41.45 31.3438 5.5985533845807
41.5 48.9253 6.99466225060224
41.55 38.2962 6.18839235989445
41.6 42.9157 6.55100755609395
41.65 32.5399 5.70437551358604
41.7 39.3687 6.2744481829082
41.75 39.418 6.27837558608913
41.8 43.8501 6.62194080311807
41.85 30.3285 5.50713173984425
41.9 31.9887 5.6558553729741
41.95 33.5008 5.78798756045657
42 43.9887 6.63239775646787
42.05 35.6741 5.97277992228075
42.1 33.323 5.77260772961406
42.15 31.7018 5.6304351519221
42.2 41.7041 6.45787116625905
42.25 31.6578 5.62652645954856
42.3 33.2558 5.76678419918762
42.35 35.1101 5.92537762509699
42.4 45.7089 6.76083574715434
42.45 37.425 6.11759756767311
42.5 41.9598 6.47763845857424
42.55 46.1452 6.79302583536968
42.6 41.571 6.44755767713636
42.65 40.6113 6.37269958494828
42.7 33.6982 5.80501507319318
42.75 40.6332 6.37441762045757
42.8 37.9018 6.15644377867613
42.85 33.2462 5.7659517861321
42.9 29.6192 5.44235243254238
42.95 45.0809 6.71423115479353
43 29.0607 5.39079771462443
43.05 36.4628 6.03844350805735
43.1 30.369 5.510807563325
43.15 40.8136 6.38855226166304
43.2 41.8197 6.46681529038831
43.25 33.515 5.78921410901342
43.3 25.3594 5.03581175184299
43.35 54.6313 7.39129893861695
43.4 30.3328 5.50752212887066
43.45 38.757 6.2255120271348
43.5 46.7538 6.83767504346324
43.55 48.6759 6.97681159269763
43.6 27.3411 5.22887177123326
43.65 31.6461 5.62548664561565
43.7 40.7157 6.38088551848409
43.75 52.7029 7.25967630132363
43.8 32.4422 5.69580547420644
43.85 49.1542 7.01100563400145
43.9 53.0063 7.28054256219961
43.95 65.4408 8.0895488131292
44 50.7173 7.12160796449791
44.05 63.6656 7.97907262781835
44.1 72.3144 8.50378739150974
44.15 101.0322 10.0514775033325
44.2 136.577 11.6866162767501
44.25 418.1212 20.4480121283219
44.3 1198.8173 34.6239411390442
44.35 2101.3167 45.8401210731385
44.4 2332.5435 48.2964129102773
44.45 1449.8477 38.0768656798324
44.5 480.2856 21.9154192293919
44.55 191.9646 13.8551290141954
44.6 84.8427 9.21100971663802
44.65 72.2283 8.49872343355165
44.7 58.3532 7.63892662616941
44.75 51.7929 7.19672842338795
44.8 56.1028 7.49018023815182
44.85 52.5244 7.24737193746809
44.9 40.0066 6.32507707462921
44.95 30.4237 5.51576830550378
45 44.8902 6.70001492535651
45.05 34.0632 5.83636873406744
45.1 41.4135 6.43533215925954
45.15 49.5638 7.04015624826609
45.2 35.4025 5.95
45.25 49.4044 7.02882636006894
45.3 45.3236 6.73228044573308
45.35 36.5013 6.04163057460484
45.4 27.707 5.26374391474357
45.45 37.1979 6.0990081160792
45.5 30.4353 5.51681973604358
45.55 40.215 6.34152978389284
45.6 39.669 6.29833311281644
45.65 33.3608 5.77588088519838
45.7 29.1925 5.40300842124089
45.75 55.5946 7.45617864592849
45.8 39.8081 6.30936605373313
45.85 40.4506 6.36007861586632
45.9 33.671 5.80267179840459
45.95 40.9874 6.40214026712942
46 43.6409 6.60612594490901
46.05 35.9146 5.99287910774112
46.1 29.4467 5.42648136456765
46.15 34.0541 5.83558908765859
46.2 31.2287 5.58826448908782
46.25 35.8724 5.98935722761633
46.3 41.5227 6.44381098419251
46.35 33.9993 5.83089187003155
46.4 34.2532 5.85262334342472
46.45 34.0487 5.83512639109043
46.5 28.4888 5.33749004682913
46.55 37.4534 6.11991830010826
46.6 43.3219 6.58193740474642
46.65 34.7585 5.8956339777839
46.7 35.4041 5.9501344522624
46.75 24.3364 4.93319369171736
46.8 23.1843 4.81500778815569
46.85 43.2125 6.57362152850314
46.9 40.4721 6.36176862201071
46.95 37.1328 6.09366884561345
47 29.0954 5.39401520205496
47.05 40.5661 6.36915221987982
47.1 26.8642 5.18306858916607
47.15 29.3853 5.42082097103382
47.2 34.6265 5.88442860437613
47.25 39.0648 6.2501839972916
47.3 30.0416 5.4810218025474
47.35 27.1661 5.21211089674807
47.4 36.9058 6.07501440327511
47.45 41.414 6.43537100717589
47.5 31.0139 5.5690124797849
47.55 34.946 5.91151418842922
47.6 38.3568 6.19328668801954
47.65 35.1979 5.93278180957298
47.7 30.7251 5.5430226411228
47.75 26.3733 5.13549413396608
47.8 29.3372 5.41638255665163
47.85 29.7759 5.45672978990164
47.9 30.6698 5.53803214147408
47.95 42.2137 6.49720709228204
48 36.5991 6.04971900173884
48.05 38.6724 6.21871369336135
48.1 40.1716 6.33810697290603
48.15 41.3371 6.42939343950889
48.2 36.8437 6.06990115240767
48.25 40.2846 6.34701504646082
48.3 46.4901 6.81836490663267
48.35 34.351 5.86097261553063
48.4 40.469 6.36152497440669
48.45 33.3559 5.77545669189892
48.5 33.4725 5.78554232548687
48.55 35.941 5.9950813172133
48.6 25.2237 5.02232018095223
48.65 26.8178 5.17859054183665
48.7 29.6684 5.44687066121457
48.75 34.7066 5.89123077123957
48.8 38.6073 6.21347728731666
48.85 37.9518 6.16050322619833
48.9 36.0904 6.00752861000262
48.95 35.1608 5.92965429009146
49 39.8307 6.31115678778463
49.05 24.7451 4.9744446926265
49.1 35.4762 5.95619005741086
49.15 22.829 4.77797028035964
49.2 30.8994 5.55872287490571
49.25 36.447 6.03713508213954
49.3 37.2103 6.10002459011437
49.35 28.7045 5.35765807046325
49.4 32.0405 5.66043284563999
49.45 29.5772 5.43849243816703
49.5 33.0698 5.75063474757352
49.55 36.7907 6.06553377700594
49.6 30.3071 5.50518846180583
49.65 35.251 5.9372552581138
49.7 43.449 6.59158554522355
49.75 30.1394 5.48993624735297
49.8 32.1524 5.67030863357542
49.85 26.8313 5.17989382130561
49.9 40.6037 6.3721032634445
49.95 40.9709 6.40085150585451
50 36.5474 6.04544456595212
50.05 33.2117 5.76295930924382
50.1 34.3083 5.85732874269492
50.15 38.9525 6.24119379606178
50.2 37.5137 6.12484285512698
50.25 36.3642 6.03027362563259
50.3 35.0441 5.919805740056
50.35 37.7486 6.1439889322817
50.4 33.7457 5.80910492244718
50.45 25.9737 5.09643993391465
50.5 35.4996 5.9581540765576
50.55 40.8062 6.38797307445797
50.6 28.0663 5.29776367913859
50.65 39.5696 6.29043718671445
50.7 34.8086 5.89988135473926
50.75 32.3789 5.6902460403747
50.8 33.7564 5.81002581749858
50.85 41.4466 6.43790338541982
50.9 32.1841 5.67310320724028
50.95 32.2672 5.68042251949624
51 27.2894 5.22392572688395
51.05 38.9603 6.24181864523474
51.1 22.5101 4.74448100428277
51.15 41.5365 6.44488169014762
51.2 34.5367 5.87679334331232
51.25 32.7209 5.72021852729422
51.3 31.824 5.64127645130072
51.35 45.1458 6.71906243459607
51.4 28.4499 5.33384476714499
51.45 38.315 6.18991114637359
51.5 34.916 5.90897622266328
51.55 33.6573 5.8014911876172
51.6 38.7317 6.22347973403947
51.65 33.2482 5.76612521542847
51.7 29.1594 5.39994444415866
51.75 32.0204 5.65865708450335
51.8 36.0202 6.0016830972653
51.85 34.9783 5.91424551401106
51.9 27.989 5.29046311772419
51.95 33.0581 5.74961737857399
52 42.3078 6.50444463424818
52.05 27.0542 5.20136520540521
52.1 29.5396 5.43503449851057
52.15 34.0016 5.83108909209935
52.2 36.6493 6.05386653305142
52.25 40.9802 6.40157793047933
52.3 33.4633 5.78474718548702
52.35 49.6605 7.04702064705362
52.4 29.3747 5.4198431711628
52.45 32.6186 5.71126956113962
52.5 33.0447 5.7484519655295
52.55 35.4856 5.95697910018157
52.6 25.7222 5.07170582743124
52.65 24.7881 4.97876490708288
52.7 20.2447 4.49941107257383
52.75 28.037 5.29499763928182
52.8 28.2521 5.31527045407851
52.85 26.1911 5.11772410354447
52.9 37.2869 6.10630002538362
52.95 27.7001 5.26308844691024
53 41.703 6.45778599831243
53.05 39.9531 6.32084646230234
53.1 33.1325 5.75608373809833
53.15 39.3509 6.27302957110837
53.2 29.3148 5.41431436102486
53.25 36.3291 6.0273626073101
53.3 35.039 5.91937496700454
53.35 35.6352 5.96952259397684
53.4 35.6391 5.9698492443277
53.45 38.0731 6.17034034717697
53.5 38.0691 6.17001620743414
53.55 35.6683 5.97229436648931
53.6 27.891 5.28119304703019
53.65 34.0293 5.83346380806464
53.7 38.9839 6.24370883369812
53.75 32.417 5.69359289025831
53.8 31.5913 5.62061384547987
53.85 33.6602 5.80174111797484
53.9 41.6437 6.45319300811621
53.95 33.6359 5.79964654095403
54 30.1576 5.49159357563904
54.05 27.5599 5.24975237511256
54.1 30.3314 5.50739502850486
54.15 37.1803 6.09756508780349
54.2 28.679 5.35527777057362
54.25 39.9351 6.31942244196414
54.3 39.3882 6.2760019120456
54.35 32.2101 5.67539425943255
54.4 36.6363 6.05279274384973
54.45 32.3733 5.68975394898584
54.5 37.0008 6.08282828953769
54.55 37.3489 6.11137464078255
54.6 32.8088 5.72789664711227
54.65 35.0163 5.91745722417999
54.7 32.0844 5.66430931358802
54.75 27.2189 5.21717356429705
54.8 37.875 6.15426681254559
54.85 28.5945 5.34738253727934
54.9 25.3457 5.03445131071897
54.95 29.8188 5.4606593008537
55 36.5938 6.04928094900543
55.05 31.2615 5.59119844040614
55.1 38.7702 6.22657209064506
55.15 31.8007 5.63921093771105
55.2 36.5199 6.04316969809718
55.25 39.2125 6.26198850206546
55.3 34.486 5.87247818216466
55.35 26.5704 5.15464838762063
55.4 41.8745 6.4710509192866
55.45 31.8642 5.64483835020986
55.5 32.8611 5.73246020483352
55.55 27.0834 5.20417140378754
55.6 25.675 5.06705042406329
55.65 25.1086 5.01084823158714
55.7 26.8925 5.18579791353269
55.75 27.3082 5.2257248301073
55.8 22.5592 4.74965261887646
55.85 33.5266 5.79021588543985
55.9 29.1068 5.39507182528648
55.95 27.8137 5.27386954711624
56 30.9039 5.55912762940374
56.05 29.2733 5.41048057015271
56.1 27.9803 5.28964081956422
56.15 30.5061 5.52323274903385
56.2 29.5125 5.43254084200018
56.25 32.3946 5.69162542688817
56.3 28.1053 5.30144319973345
56.35 41.0376 6.40605963131784
56.4 31.8809 5.64631738392379
56.45 19.4373 4.40877534015967
56.5 37.5245 6.12572444695319
56.55 33.4416 5.78287125915838
56.6 30.5449 5.52674406861762
56.65 27.2816 5.22317910855065
56.7 33.1783 5.76006076356838
56.75 30.0023 5.47743553134129
56.8 37.2755 6.10536649186599
56.85 32.608 5.71034149591773
56.9 41.4916 6.44139736392656
56.95 38.3499 6.19272960817764
57 39.7727 6.30656007661863
57.05 32.7522 5.72295378279434
57.1 20.9818 4.58058948171521
57.15 26.1614 5.11482160001695
57.2 32.908 5.73654948553571
57.25 27.3616 5.23083167383543
57.3 29.6037 5.44092822963141
57.35 26.1575 5.11444034083887
57.4 30.6924 5.54007220169557
57.45 34.8755 5.90554823873279
57.5 30.5822 5.53011753943802
57.55 37.6123 6.13288675910456
57.6 20.0457 4.47724245490458
57.65 31.4281 5.60607705976291
57.7 30.4443 5.51763536308807
57.75 28.4807 5.33673120927033
57.8 29.5665 5.43750862068282
57.85 28.3495 5.32442485156848
57.9 30.8824 5.55719353630949
57.95 33.4044 5.77965396888084
58 43.4862 6.59440672085063
58.05 21.4897 4.63569843712897
58.1 32.1333 5.66862417170163
58.15 32.1857 5.67324422178351
58.2 37.2648 6.10449015070055
58.25 47.7354 6.90908098085411
58.3 39.3127 6.2699840510164
58.35 24.2719 4.92665200719515
58.4 28.3798 5.32726946943742
58.45 39.303 6.26921047660708
58.5 25.4413 5.04393695440377
58.55 37.2817 6.10587422078116
58.6 31.623 5.62343311509971
58.65 26.8049 5.17734487937591
58.7 37.7795 6.14650307085256
58.75 33.7094 5.80597967616147
58.8 24.9275 4.9927447361146
58.85 28.695 5.35677141569434
58.9 36.0759 6.00632166970768
58.95 26.7019 5.1673881216723
59 34.562 5.87894548367307
59.05 26.0966 5.10848314081587
59.1 20.7017 4.54991208706278
59.15 27.5673 5.25045712295606
59.2 20.5619 4.53452312818007
59.25 27.6965 5.26274643128471
59.3 52.1351 7.22046397401164
59.35 29.2603 5.40927906471833
59.4 29.405 5.42263773453474
59.45 27.8213 5.27459003146216
59.5 20.9011 4.57177208530784
59.55 28.9492 5.38044607816118
59.6 28.319 5.3215599216771
59.65 31.9899 5.65596145672864
59.7 33.2755 5.76849200398163
59.75 27.005 5.1966335256587
59.8 29.5781 5.43857518105616
59.85 25.7679 5.07620921554658
59.9 39.3067 6.26950556264208
59.95 23.9375 4.89259644769523
60 31.083 5.57521300041532
60.05 22.36 4.72863616701476
60.1 29.732 5.45270575035917
60.15 37.3395 6.11060553464221
60.2 36.4808 6.03993377447137
60.25 25.6904 5.06856981800586
60.3 27.6914 5.26226187109688
60.35 17.5468 4.18889006778645
60.4 28.8477 5.3710054924567
60.45 30.6961 5.54040612229826
60.5 28.835 5.36982308833354
60.55 24.903 4.99029057270215
60.6 24.1351 4.91274872143895
60.65 29.1656 5.40051849362633
60.7 29.6964 5.44944033823658
60.75 26.5286 5.1505921989612
60.8 27.5845 5.25209482016462
60.85 17.7253 4.21014251540254
60.9 33.1451 5.75717812821525
60.95 39.8173 6.3100950864468
61 28.5179 5.3402153514629
61.05 43.0351 6.56011432827203
61.1 30.6754 5.53853771315137
61.15 29.3663 5.4190681855832
61.2 40.018 6.32597818522954
61.25 22.5616 4.74990526221313
61.3 35.8428 5.98688566785771
61.35 36.9303 6.0770305248534
61.4 40.3124 6.34920467460295
61.45 29.0956 5.39403374108839
61.5 30.6671 5.53778836720942
61.55 31.5976 5.6211742545486
61.6 34.4854 5.87242709618434
61.65 28.7133 5.35847926188018
61.7 30.0335 5.48028283941623
61.75 22.7497 4.76966455843595
61.8 38.6123 6.21387962548358
61.85 31.705 5.63071931461692
61.9 23.6412 4.86222171440176
61.95 25.5706 5.0567380790387
62 29.8266 5.46137345362868
62.05 29.3336 5.41605022133289
62.1 34.3065 5.85717508701934
62.15 33.833 5.81661413538839
62.2 26.0043 5.09944114585118
62.25 31.2851 5.59330850213002
62.3 41.4682 6.43958073169364
62.35 34.7207 5.89242734363352
62.4 27.8171 5.27419188122692
62.45 34.6244 5.8842501646344
62.5 33.8168 5.81522140593116
62.55 24.8065 4.98061241214371
62.6 21.5818 4.64562159457698
62.65 33.0975 5.75304267322953
62.7 28.523 5.34069283894889
62.75 29.6483 5.44502525246669
62.8 27.8973 5.28178946948854
62.85 36.6788 6.0563025023524
62.9 39.403 6.27718089591179
62.95 29.6269 5.4430598012515
63 31.9304 5.65069907179634
63.05 39.0225 6.2467991803803
63.1 31.859 5.64437773363902
63.15 32.0301 5.65951411341999
63.2 37.5984 6.13175341969978
63.25 31.6945 5.62978685209307
63.3 29.7463 5.45401686832742
63.35 31.2258 5.58800501073505
63.4 40.0787 6.33077404430138
63.45 27.3531 5.23001912042394
63.5 35.0951 5.92411174776439
63.55 33.1138 5.75445914052746
63.6 34.95 5.91185250154298
63.65 25.1432 5.01429955228046
63.7 36.8243 6.06830289290177
63.75 38.8486 6.23286450999859
63.8 40.3723 6.35392004985898
63.85 40.3113 6.34911804898917
63.9 29.9863 5.47597479906546
63.95 31.2122 5.586787985954
64 33.18 5.76020832956587
64.05 26.894 5.18594253728288
64.1 29.7685 5.45605168597219
64.15 32.7874 5.7260282919315
64.2 27.553 5.24909516012046
64.25 43.9719 6.63113112523045
64.3 37.8119 6.14913815099319
64.35 31.9206 5.64983185590509
64.4 41.1538 6.41512275798367
64.45 44.4943 6.6704047853185
64.5 53.6682 7.32585831148815
64.55 70.3107 8.38514758367436
64.6 101.2145 10.0605417349167
64.65 161.2841 12.6997677144112
64.7 152.1802 12.336133916264
64.75 145.0173 12.0423129007679
64.8 91.4009 9.5603817915395
64.85 67.6904 8.22741757783085
64.9 48.715 6.97961316979673
64.95 43.434 6.59044763274848
65 47.8941 6.92055633601808
65.05 42.6301 6.52917299510436
65.1 31.5609 5.61790886362533
65.15 31.0117 5.5688149547278
65.2 40.1495 6.33636331029085
65.25 29.4269 5.42465667116362
65.3 30.2427 5.49933632359397
65.35 24.1989 4.91923774583014
65.4 35.7949 5.98288391998374
65.45 35.5416 5.96167761624192
65.5 15.2987 3.91135526384398
65.55 35.5397 5.96151826299308
65.6 24.2123 4.92059955696458
65.65 35.9933 5.99944164068624
65.7 37.844 6.15174771914454
65.75 27.0976 5.20553551519918
65.8 29.1477 5.3988609909869
65.85 29.7334 5.45283412548007
65.9 33.6043 5.79692159684776
65.95 30.2163 5.49693550990004
66 36.2093 6.01741638911585
66.05 40.7868 6.3864544154014
66.1 27.4944 5.24351027461566
66.15 33.0093 5.74537205061604
66.2 42.5533 6.52328904771205
66.25 35.9382 5.99484778789253
66.3 41.0346 6.40582547373873
66.35 33.6632 5.80199965529127
66.4 38.874 6.23490176346027
66.45 27.6227 5.25573020616546
66.5 29.5575 5.43668097279949
66.55 34.5504 5.87795882938967
66.6 27.9645 5.28814712352068
66.65 32.7149 5.71969404776165
66.7 26.2858 5.12696791485962
66.75 29.3995 5.42213057754975
66.8 35.2178 5.93445869477579
66.85 28.9971 5.38489554216235
66.9 28.7325 5.36027051556169
66.95 30.004 5.47759071125253
67 21.1463 4.59851062845352
67.05 24.9481 4.9948073035904
67.1 24.2119 4.9205589113433
67.15 32.2122 5.67557926559043
67.2 35.4088 5.95052938821413
67.25 47.3248 6.87930229020356
67.3 33.0408 5.74811273375879
67.35 29.3479 5.41737021072033
67.4 35.6806 5.97332403273085
67.45 24.5815 4.95797337628995
67.5 32.4647 5.69778026954357
67.55 32.4342 5.69510315973293
67.6 52.0555 7.21494975727482
67.65 40.0934 6.33193493333594
67.7 36.0923 6.00768674283205
67.75 32.5754 5.70748631185393
67.8 36.0751 6.00625507283865
67.85 30.7818 5.54813482172162
67.9 27.154 5.2109500093553
67.95 35.7313 5.97756639444515
68 34.5959 5.88182794716064
68.05 16.0903 4.01127161882613
68.1 31.6765 5.62818798548876
68.15 29.4194 5.42396533912229
68.2 30.4017 5.51377366238405
68.25 24.8314 4.98311147778173
68.3 35.9868 5.99889989914818
68.35 19.0532 4.36499713631063
68.4 21.3011 4.61531147377942
68.45 27.4981 5.2438630798296
68.5 27.4524 5.23950379329951
68.55 21.4911 4.63584943672678
68.6 22.1519 4.7065804996834
68.65 29.4297 5.42491474587389
68.7 36.7044 6.05841563447078
68.75 35.3491 5.94551091160381
68.8 23.9155 4.89034763590483
68.85 22.4371 4.73678160780081
68.9 27.4006 5.2345582430612
68.95 27.154 5.2109500093553
69 29.4419 5.42603907099829
69.05 28.8396 5.37025139076375
69.1 35.256 5.93767631317168
69.15 30.5063 5.52325085434294
69.2 40.6858 6.3785421531883
69.25 37.457 6.12021241461438
69.3 21.4506 4.63147924533836
69.35 27.1262 5.20828186641238
69.4 30.5798 5.52990054160109
69.45 32.2863 5.68210348374614
69.5 30.6601 5.53715630987604
69.55 30.2297 5.4981542357413
69.6 24.1624 4.91552642145274
69.65 34.9704 5.91357759736016
69.7 23.2541 4.82225051194979
69.75 37.1683 6.09658100905745
69.8 43.642 6.60620920044166
69.85 32.3296 5.68591241578693
69.9 35.7704 5.98083606195656
69.95 24.7697 4.9769167162009
70 42.3662 6.50893232412198
70.05 34.5202 5.87538934880064
70.1 22.9084 4.78627203572885
70.15 29.1507 5.39913882021939
70.2 32.7094 5.71921323260464
70.25 25.1917 5.01913339133361
70.3 31.6528 5.62608211813514
70.35 28.4505 5.33390101145494
70.4 29.4579 5.42751324272912
70.45 28.5341 5.3417319288785
70.5 34.7189 5.89227460324109
70.55 26.0791 5.10677001636063
70.6 35.0964 5.92422146783862
70.65 34.7189 5.89227460324109
70.7 37.0092 6.08351871863644
70.75 24.0995 4.90912415813656
70.8 33.1154 5.75459816147053
70.85 32.5959 5.70928191631837
70.9 33.7528 5.80971599994354
70.95 36.3667 6.03048090951294
71 33.4806 5.78624230394822
71.05 30.4972 5.52242700268641
71.1 24.9591 4.99590832582024
71.15 30.9093 5.55961329590467
71.2 27.6048 5.25402702695751
71.25 34.2678 5.85387051445452
71.3 23.343 4.83145940684593
71.35 29.9978 5.47702473976519
71.4 32.2689 5.68057215428164
71.45 38.7864 6.22787283107162
71.5 18.8412 4.34064511334433
71.55 29.2584 5.40910343772422
71.6 32.4485 5.6963584859101
71.65 31.723 5.6323174626436
71.7 29.1571 5.39973147480502
71.75 31.9889 5.65587305373803
71.8 36.8413 6.0697034523937
71.85 33.891 5.82159771883973
71.9 28.7348 5.36048505267947
71.95 26.2451 5.12299716962639
72 30.7525 5.54549366603191
72.05 39.0281 6.24724739385275
72.1 38.719 6.22245932087949
72.15 24.9493 4.99492742690021
72.2 26.5703 5.15463868762884
72.25 32.8791 5.73402999643357
72.3 25.419 5.0417258949689
72.35 29.1741 5.40130539777191
72.4 32.9476 5.74
72.45 19.7392 4.44288194756512
72.5 35.2303 5.93551177237481
72.55 26.6892 5.16615911485506
72.6 33.828 5.81618431619907
72.65 32.0029 5.65711056989343
72.7 32.5252 5.70308688343427
72.75 38.9747 6.24297204863197
72.8 28.2365 5.31380278143629
72.85 33.4134 5.78043250976949
72.9 33.9068 5.82295457650152
72.95 31.4608 5.60899277945693
73 33.6701 5.80259424740348
73.05 22.4278 4.73579982685079
73.1 35.7511 5.97922235746422
73.15 25.112 5.01118748402013
73.2 31.1438 5.58066304304426
73.25 38.3015 6.1888205661499
73.3 26.6604 5.16337099190054
73.35 42.3035 6.50411408264031
73.4 32.8453 5.73108192229007
73.45 39.3418 6.27230420180654
73.5 32.9992 5.74449301505364
73.55 30.259 5.50081812097073
73.6 27.2226 5.21752815037926
73.65 28.7254 5.35960819463513
73.7 33.5392 5.79130382556467
73.75 30.064 5.48306483638485
73.8 23.285 4.82545334657792
73.85 28.6706 5.3544934400931
73.9 31.4876 5.61138129162508
73.95 30.3957 5.51322954356156
74 40.1763 6.33847773522949
74.05 27.0708 5.20296069560399
74.1 41.378 6.43257335752963
74.15 19.6582 4.43375687199919
74.2 41.2442 6.42216474407189
74.25 26.2851 5.12689964793539
74.3 24.9092 4.99091174035366
74.35 40.741 6.38286769406981
74.4 47.436 6.88737976301583
74.45 40.2502 6.3443045324133
74.5 31.6555 5.62632206685682
74.55 42.7271 6.5365969739613
74.6 27.5514 5.24894275068799
74.65 32.8221 5.72905751411172
74.7 26.5583 5.15347455606409
74.75 39.926 6.31870239843593
74.8 30.7992 5.5497026947396
74.85 43.944 6.62902707793534
74.9 30.7183 5.54240922343343
74.95 29.3918 5.42142047806661
75 25.7884 5.0782280374162
75.05 30.1428 5.49024589613252
75.1 33.9139 5.82356420072794
75.15 28.8188 5.36831444682593
75.2 34.3674 5.86237153377368
75.25 24.3849 4.93810692472328
75.3 37.2925 6.10675855098267
75.35 45.8498 6.77124803858196
75.4 27.2113 5.21644514971642
75.45 36.6507 6.05398216052872
75.5 29.1667 5.40062033473933
75.55 29.403 5.42245331930114
75.6 28.2573 5.31575958824325
75.65 30.2722 5.502017811676
75.7 41.7231 6.45934207175932
75.75 38.602 6.21305078041376
75.8 26.688 5.16604297310814
75.85 37.6142 6.13304165973133
75.9 34.8978 5.9074359920358
75.95 24.2741 4.92687527749587
76 38.3557 6.19319788154714
76.05 38.747 6.22470882853166
76.1 38.9874 6.24398910953567
76.15 21.0911 4.5925047631984
76.2 22.4215 4.73513463377759
76.25 20.8457 4.56570914535738
76.3 28.4667 5.33541938370359
76.35 24.845 4.98447590023264
76.4 23.3112 4.82816735418316
76.45 26.512 5.14898048160993
76.5 30.2398 5.49907264909275
76.55 38.8321 6.23154074045898
76.6 25.963 5.09539007338987
76.65 29.5418 5.43523688536203
76.7 33.3934 5.77870227646312
76.75 34.1158 5.84087322238721
76.8 30.6109 5.532711812484
76.85 25.9374 5.0928773792425
76.9 33.6429 5.8002499946123
76.95 33.6913 5.80442072906505
77 17.9526 4.23705086115331
77.05 30.1247 5.48859727070588
77.1 23.5533 4.85317421900348
77.15 26.5114 5.14892221731888
77.2 34.7823 5.8976520751906
77.25 30.4538 5.51849617196569
77.3 31.9325 5.65088488645805
77.35 43.185 6.57152950233049
77.4 31.5092 5.61330562146762
77.45 35.419 5.95138639310203
77.5 26.8201 5.17881260522139
77.55 31.1592 5.58204263688482
77.6 28.7234 5.35942161058449
77.65 20.9926 4.58176821762079
77.7 30.5353 5.52587549624492
77.75 36.2728 6.02269042870377
77.8 35.1788 5.93117189095039
77.85 27.368 5.23144339546936
77.9 33.3652 5.77626176692158
77.95 16.6718 4.08311155860332
78 22.9937 4.79517465792436
78.05 20.9666 4.57893000601669
78.1 31.7287 5.632823448325
78.15 28.0997 5.30091501535348
78.2 37.4395 6.11878255864678
78.25 22.892 4.78455849582801
78.3 39.9624 6.32158208046055
78.35 27.0878 5.20459412442507
78.4 35.4631 5.95509025960144
78.45 38.5701 6.21048307299843
78.5 25.1266 5.01264401289379
78.55 37.7709 6.14580344625501
78.6 33.283 5.7691420505999
78.65 29.2727 5.41042512192896
78.7 28.9783 5.38314963566869
78.75 26.6847 5.16572356983995
78.8 30.7875 5.54864848409052
78.85 31.1914 5.58492614096194
78.9 35.1282 5.92690475712239
78.95 27.8802 5.28017045179415
79 40.4156 6.35732648209922
79.05 36.5456 6.04529569169284
79.1 28.3923 5.32844254918827
79.15 26.9769 5.19392914853485
79.2 28.3561 5.32504460075218
79.25 34.367 5.86233741778823
79.3 15.408 3.92530253611107
79.35 27.0734 5.20321054734478
79.4 29.3442 5.41702870584973
79.45 29.2739 5.41053601780822
79.5 31.3454 5.59869627681302
79.55 26.2304 5.12156226165415
79.6 23.2186 4.81856825208485
79.65 34.5179 5.87519361383095
79.7 26.1937 5.11797811640495
79.75 32.4821 5.69930697541377
79.8 27.9578 5.28751359336314
79.85 39.2007 6.26104623844929
79.9 26.8816 5.18474685978014
79.95 22.9174 4.78721213233757
80 36.8164 6.0676519346449
80.05 41.041 6.40632499956098
80.1 22.2763 4.71977753713033
80.15 23.7243 4.87075969433927
80.2 36.2101 6.01748286246002
80.25 27.7973 5.27231448227436
80.3 20.498 4.52747170062939
80.35 26.6404 5.16143390929304
80.4 33.7627 5.81056795847015
80.45 33.5821 5.79500647109216
80.5 31.8465 5.64327032845317
80.55 21.1537 4.59931516641337
80.6 26.0612 5.10501714002999
80.65 26.2841 5.12680212218104
80.7 31.8084 5.63989361601795
80.75 41.1236 6.41276851289675
80.8 31.3995 5.60352567585801
80.85 41.5061 6.44252279778659
80.9 34.9168 5.90904391589705
80.95 30.6578 5.536948618147
81 27.8349 5.27587907367104
81.05 26.8505 5.18174680971581
81.1 30.2341 5.49855435546472
81.15 34.1535 5.84409958847383
81.2 33.0119 5.74559831523228
81.25 32.1712 5.67196614940534
81.3 28.3378 5.3233260279641
81.35 29.9815 5.47553650339398
81.4 29.1783 5.40169417868135
81.45 28.6301 5.35071023323072
81.5 32.4447 5.69602492972073
81.55 44.8561 6.69746967145055
81.6 23.7757 4.87603322384087
81.65 36.5312 6.04410456560771
81.7 39.5212 6.28658890019063
81.75 77.8884 8.82544049892129
81.8 66.4097 8.14921468609092
81.85 97.7142 9.88504931702417
81.9 178.652 13.3660764624478
81.95 280.088 16.7358298270507
82 297.9826 17.2621725168068
82.05 205.7003 14.3422557500555
82.1 100.5326 10.0265946362661
82.15 81.545 9.03022701818731
82.2 50.3048 7.09258768010661
82.25 62.0745 7.87873720846177
82.3 37.3817 6.11405757251271
82.35 41.2986 6.42639868044304
82.4 44.3043 6.6561475344226
82.45 30.0283 5.47980839081076
82.5 30.1754 5.4932139954675
82.55 25.7114 5.0706409851221
82.6 32.3801 5.69035148299294
82.65 36.7494 6.06212833912315
82.7 33.5262 5.79018134431038
82.75 26.2318 5.12169893687632
82.8 28.807 5.36721529286836
82.85 27.2346 5.21867799351522
82.9 42.9463 6.55334265852168
82.95 41.3798 6.43271326890916
83 33.2989 5.77051990725273
83.05 23.9314 4.89197301709648
83.1 18.1492 4.26018778928817
83.15 29.8017 5.45909333131428
83.2 36.2133 6.01774874849391
83.25 28.5528 5.34348201082403
83.3 38.4532 6.20106442475806
83.35 35.5367 5.96126664392728
83.4 36.6428 6.05332966226027
83.45 26.51 5.1487862647424
83.5 29.9339 5.47118817077241
83.55 28.2067 5.31099802297082
83.6 39.5455 6.28852128882458
83.65 36.8709 6.07214130270368
83.7 38.4092 6.19751563128323
83.75 44.6233 6.68006736492979
83.8 29.8943 5.46756801512336
83.85 37.1807 6.09759788769315
83.9 26.6436 5.16174389136075
83.95 34.5301 5.87623178576203
84 22.8906 4.78441218960072
84.05 30.4326 5.51657502441506
84.1 31.0156 5.56916510798522
84.15 30.9563 5.56383860297906
84.2 37.7038 6.14034201001866
84.25 21.4601 4.63250472206991
84.3 26.7768 5.17463042158568
84.35 28.6823 5.3555858689783
84.4 35.0624 5.92135119715087
84.45 21.7073 4.65910935694796
84.5 27.7649 5.26924093205084
84.55 20.4573 4.52297468487278
84.6 22.1538 4.70678234041049
84.65 25.8712 5.08637395400692
84.7 34.3272 5.85894188399236
84.75 36.0844 6.00702921584372
84.8 35.6653 5.97204320145124
84.85 30.8343 5.55286412583632
84.9 20.3666 4.51293695945334
84.95 30.5019 5.52285252383223
85 30.2237 5.49760857100612
85.05 32.8324 5.72995636981644
85.1 27.0546 5.20140365670652
85.15 27.389 5.23345010485435
85.2 29.6549 5.44563127653718
85.25 35.4097 5.95060501125726
85.3 35.367 5.94701605849522
85.35 25.5553 5.0552250197197
85.4 23.3537 4.83256660585242
85.45 30.7952 5.54934230337254
85.5 26.2941 5.12777729625615
85.55 28.4006 5.32922133148925
85.6 40.977 6.40132798722265
85.65 33.2127 5.7630460695712
85.7 28.8911 5.37504418586489
85.75 30.3933 5.51301188099572
85.8 35.0311 5.9187076292042
85.85 36.5305 6.0440466576624
85.9 33.1981 5.76177923908926
85.95 28.623 5.35004672876789
86 15.5545 3.94391937037257
86.05 25.6709 5.0666458332905
86.1 31.0199 5.56955114888085
86.15 33.5417 5.79151966240295
86.2 31.1588 5.58200680759169
86.25 28.0825 5.2992924055953
86.3 32.1211 5.66754797068362
86.35 21.9624 4.68640587230769
86.4 32.8254 5.72934551236003
86.45 22.4422 4.73731991742166
86.5 32.2887 5.68231466921711
86.55 36.8297 6.06874781153411
86.6 28.5462 5.34286440030065
86.65 32.2873 5.68219147864624
86.7 27.1102 5.20674562466806
86.75 24.5577 4.95557262079772
86.8 35.0041 5.91642628619676
86.85 28.8661 5.37271812028139
86.9 38.2874 6.18768131047487
86.95 22.8181 4.77682949245627
87 40.5089 6.36466024230673
87.05 33.2367 5.76512792572723
87.1 36.6552 6.0543538053206
87.15 38.3267 6.19085616049994
87.2 35.7425 5.97850315714561
87.25 27.6361 5.25700485067305
87.3 27.4296 5.23732756279383
87.35 37.7341 6.14280880379652
87.4 24.4621 4.94591750841035
87.45 27.3002 5.22495932998526
87.5 33.8027 5.81400894392157
87.55 36.2098 6.01745793504201
87.6 27.5858 5.25221857884837
87.65 22.835 4.77859812078815
87.7 30.8932 5.55816516487231
87.75 23.7263 4.87096499679478
87.8 29.3164 5.41446211548294
87.85 28.4941 5.33798651178513
87.9 32.1337 5.66865945352162
87.95 33.7862 5.8125897842528
88 28.9817 5.38346542665596
88.05 20.7561 4.55588630235655
88.1 30.7884 5.54872958432829
88.15 35.9974 5.99978332942116
88.2 24.955 4.99549797317545
88.25 40.6492 6.3756725135471
88.3 33.222 5.76385287806689
88.35 24.9771 4.99770947534968
88.4 22.9064 4.78606310029444
88.45 33.2597 5.76712233267164
88.5 29.5962 5.44023896533967
88.55 20.1854 4.49281648857373
88.6 22.6446 4.75863425785172
88.65 24.2853 4.92801176946647
88.7 25.5227 5.05199960411717
88.75 30.4648 5.51949273031499
88.8 31.4182 5.60519401983553
88.85 30.2531 5.50028181096205
88.9 31.6614 5.62684636363923
88.95 24.0846 4.907606341181
89 20.8026 4.56098673534576
89.05 28.4408 5.33299165572195
89.1 34.3159 5.85797746666885
89.15 32.4388 5.69550700113695
89.2 22.222 4.71402163762535
89.25 25.7047 5.06998027609576
89.3 30.858 5.55499774977452
89.35 23.9226 4.89107350179897
89.4 22.9322 4.78875766770464
89.45 32.0249 5.65905469137735
89.5 28.3054 5.32028194741595
89.55 26.3803 5.13617562005039
89.6 34.0996 5.83948627877487
89.65 28.6845 5.35579125806822
89.7 29.0247 5.38745765644613
89.75 29.8472 5.46325910057358
89.8 33.4955 5.787529697548
89.85 34.2398 5.85147844565799
89.9 34.3302 5.85919789732349
89.95 30.4983 5.52252659568064
90 29.868 5.46516239465947
90.05 31.0379 5.57116684366929
90.1 30.0036 5.47755419872775
90.15 27.2616 5.22126421472808
90.2 31.6197 5.62313969237827
90.25 37.6669 6.13733655586851
90.3 29.7249 5.45205465856681
90.35 33.6699 5.80257701370693
90.4 34.4681 5.87095392589654
90.45 34.6334 5.88501486829048
90.5 31.9781 5.65491821337851
90.55 28.4356 5.33250410220189
90.6 33.5837 5.79514451933686
90.65 31.9655 5.6538040291471
90.7 32.6364 5.7128276711275
90.75 28.4992 5.33846419862492
90.8 29.3747 5.4198431711628
90.85 32.403 5.69236330534164
90.9 31.0719 5.5742174338646
90.95 32.5829 5.70814330583947
91 25.3472 5.03460028204822
91.05 20.8252 4.56346359687464
91.1 23.9103 4.88981594745651
91.15 23.9238 4.89119617271685
91.2 36.1417 6.01179673641749
91.25 38.5333 6.2075196334768
91.3 22.0401 4.69468848806819
91.35 42.6481 6.5305512784144
91.4 34.3446 5.86042660563205
91.45 33.1947 5.76148418378459
91.5 23.3528 4.83247348673534
91.55 27.9171 5.28366350177602
91.6 21.3731 4.62310501719353
91.65 29.9478 5.47245831414
91.7 36.2373 6.01974251941061
91.75 25.9827 5.09732282673954
91.8 40.3239 6.35011023526364
91.85 32.3604 5.68862021935021
91.9 24.5009 4.94983838119994
91.95 27.9132 5.28329442677578
92 28.8659 5.37269950769629
92.05 36.089 6.00741208841211
92.1 34.3013 5.85673117020066
92.15 34.456 5.86992333851133
92.2 42.8503 6.54601405436927
92.25 29.1375 5.39791626463397
92.3 27.5988 5.25345600533592
92.35 29.7882 5.45785672219416
92.4 26.4789 5.14576524921221
92.45 32.0282 5.65934625199766
92.5 24.3771 4.93731708521946
92.55 24.7611 4.97605265245455
92.6 27.3878 5.23333545647515
92.65 34.1979 5.84789705791749
92.7 29.4969 5.43110485997094
92.75 35.8949 5.99123526495163
92.8 25.5613 5.05581843028406
92.85 31.5666 5.61841614692255
92.9 33.591 5.79577432272859
92.95 28.1688 5.30742875599852
93 32.588 5.70859001855975
93.05 35.493 5.95760018799516
93.1 33.627 5.79887920205276
93.15 36.3149 6.02618453086196
93.2 24.4384 4.94352101239592
93.25 34.8073 5.89977118200359
93.3 15.6122 3.95122765732373
93.35 37.6295 6.13428887484116
93.4 31.3367 5.59791925629515
93.45 28.14 5.30471488394994
93.5 33.456 5.78411618140576
93.55 27.2819 5.22320782661383
93.6 36.5053 6.04196160199649
93.65 34.2656 5.85368260157655
93.7 34.9311 5.91025380165691
93.75 39.3918 6.2762887122885
93.8 33.7533 5.80975903114751
93.85 37.1142 6.09214248027736
93.9 33.2452 5.76586506952773
93.95 31.291 5.59383589319529
94 28.0788 5.29894329088357
94.05 16.9202 4.1134170710007
94.1 21.5606 4.64333931562189
94.15 25.5842 5.0580826406851
94.2 38.47 6.20241888298428
94.25 35.0677 5.92179871322895
94.3 34.3954 5.86475915959044
94.35 34.41 5.86600375042499
94.4 37.7108 6.14091198438799
94.45 32.3426 5.68705547713401
94.5 23.9617 4.89506894742046
94.55 39.8542 6.31301829555404
94.6 30.479 5.52077893054957
94.65 24.7407 4.97400241254465
94.7 26.5062 5.14841723250942
94.75 23.997 4.89867328977959
94.8 24.7055 4.97046275511647
94.85 29.3363 5.41629947473365
94.9 28.5248 5.34086135375185
94.95 25.3709 5.03695344429547
95 22.2409 4.71602586930988
95.05 29.7838 5.45745361867602
95.1 32.6779 5.71645869398179
95.15 23.8977 4.88852738562443
95.2 29.9881 5.47613915089819
95.25 31.3121 5.59572157992157
95.3 28.708 5.35798469576015
95.35 25.8792 5.08716030806972
95.4 22.1122 4.70236110906
95.45 30.1756 5.4932321997163
95.5 34.877 5.90567523658387
95.55 27.3719 5.23181612826751
95.6 40.7941 6.38702591195621
95.65 31.5443 5.61643125124843
95.7 37.7212 6.14175870577801
95.75 37.696 6.13970683339197
95.8 30.4948 5.52220970264622
95.85 44.3917 6.6627096589901
95.9 34.82 5.90084739677277
95.95 33.3188 5.77224393108954
96 32.2193 5.67620471794314
96.05 35.9801 5.99834143743085
96.1 28.9889 5.38413409937011
96.15 33.5501 5.79224481526808
96.2 24.1779 4.91710280551465
96.25 31.3483 5.59895525968908
96.3 32.669 5.71568018699437
96.35 23.6492 4.86304431400743
96.4 28.8105 5.36754133658978
96.45 30.6403 5.5353680997744
96.5 25.1152 5.0115067594487
96.55 24.4591 4.94561421867901
96.6 30.0815 5.4846604270456
96.65 24.1376 4.91300315489416
96.7 32.9554 5.74067940230074
96.75 32.8681 5.73307073042013
96.8 21.6841 4.65661894511458
96.85 15.3083 3.91258226750569
96.9 35.3674 5.9470496887112
96.95 21.3181 4.61715280232309
97 29.6029 5.44085471226718
97.05 26.9952 5.19569052196145
97.1 29.4283 5.42478571005344
97.15 41.2679 6.42400965130035
97.2 29.0666 5.3913449156959
97.25 22.8579 4.78099362057721
97.3 21.0632 4.58946619989733
97.35 34.1288 5.8419859636942
97.4 28.7735 5.36409358605906
97.45 33.9974 5.83072894242221
97.5 30.6989 5.54065880559343
97.55 37.9998 6.16439778080552
97.6 37.1901 6.09836863431525
97.65 26.6001 5.15752847786612
97.7 25.9304 5.09219009857252
97.75 29.5482 5.43582560426657
97.8 33.9833 5.82951970577337
97.85 37.3453 6.11108010093142
97.9 31.8747 5.64576832680903
97.95 26.9319 5.1895953599486
98 24.3487 4.93444019114631
98.05 31.7053 5.63074595413432
98.1 39.4242 6.27886932496608
98.15 39.6395 6.29599078779504
98.2 40.0685 6.32996840434453
98.25 33.5957 5.79617977636995
98.3 44.3862 6.66229690121958
98.35 54.4682 7.38025744808404
98.4 80.7914 8.98840364024669
98.45 119.8163 10.9460632192583
98.5 144.5535 12.0230403808687
98.55 150.8007 12.2800936478514
98.6 139.0283 11.7910262488046
98.65 80.296 8.96080353539793
98.7 78.3207 8.84989830450045
98.75 64.3961 8.02471806358329
98.8 40.6836 6.37836969765786
98.85 37.2095 6.09995901625576
98.9 34.6545 5.88680728408872
98.95 36.391 6.03249533775203
99 38.9058 6.2374514026163
99.05 40.8278 6.38966352791757
99.1 26.1772 5.11636589778331
99.15 33.8828 5.82089340221929
99.2 35.8659 5.98881457385349
99.25 37.6146 6.13307426989108
99.3 36.3391 6.02819210045599
99.35 38.2287 6.18293619569214
99.4 16.5659 4.07012284826883
99.45 31.9285 5.65053094850387
99.5 36.1881 6.01565457784936
99.55 26.5595 5.15359098105389
99.6 35.1451 5.92833028769484
99.65 31.7936 5.63858138187257
99.7 24.7683 4.97677606488377
99.75 28.5894 5.34690564719446
99.8 25.2362 5.02356447156797
99.85 26.9339 5.18978804962207
99.9 39.171 6.25867398096434
99.95 32.0094 5.65768503895365
100 33.6617 5.80187038807314
100.05 23.3209 4.82917177163952
100.1 22.9957 4.79538319636711
100.15 27.1254 5.2082050650872
100.2 29.3066 5.41355705613232
100.25 34.3458 5.86052898636292
100.3 24.8765 4.98763470996022
100.35 33.0381 5.74787786926619
100.4 25.686 5.06813575193088
100.45 28.7071 5.35790070829985
100.5 27.2262 5.21787312992564
100.55 31.896 5.64765438036004
100.6 20.3541 4.51155183944505
100.65 18.2774 4.27520759729864
100.7 18.3308 4.28144835306932
100.75 36.0629 6.00523937907557
100.8 26.6615 5.16347751036063
100.85 31.4241 5.60572029270102
100.9 36.0439 6.00365721872926
100.95 25.9136 5.09054024637857
101 29.1272 5.39696210844582
101.05 34.3239 5.85866025640675
101.1 29.5973 5.44034006290048
101.15 22.8736 4.78263525684324
101.2 28.1862 5.30906771476876
101.25 35.3881 5.94878979289065
101.3 30.3478 5.50888373447834
101.35 27.3036 5.22528468123986
101.4 29.0201 5.38703072202118
101.45 25.805 5.07986220285551
101.5 22.2216 4.71397921081542
101.55 26.3746 5.1356207025052
101.6 36.5799 6.04813194300521
101.65 32.692 5.71769184199359
101.7 30.8289 5.5523778689855
101.75 23.5058 4.848278044832
101.8 30.0023 5.47743553134129
101.85 29.0844 5.39299545707207
101.9 25.8265 5.08197796138472
101.95 33.9389 5.82571025712745
102 26.1088 5.10967709351579
102.05 36.6968 6.05778837530662
102.1 36.8185 6.06782498099607
102.15 26.8403 5.18076249214341
102.2 19.1762 4.37906382689268
102.25 35.8353 5.98625926601914
102.3 25.011 5.00109987902661
102.35 31.4352 5.60671026538736
102.4 28.8243 5.36882668746161
102.45 36.3511 6.02918734159091
102.5 31.5764 5.61928821115273
102.55 29.854 5.46388140427663
102.6 30.4423 5.51745412305349
102.65 23.7296 4.87130372692978
102.7 34.6183 5.88373180897974
102.75 34.4822 5.87215463011661
102.8 35.9369 5.99473936047265
102.85 35.5646 5.96360629149846
102.9 24.7225 4.9721725633771
102.95 35.8601 5.98833031821058
103 30.3269 5.50698647174659
103.05 25.2266 5.02260888383716
103.1 27.7766 5.27035103195224
103.15 31.1154 5.57811796218043
103.2 23.5914 4.8570978989516
103.25 29.6859 5.44847685137782
103.3 25.6663 5.06619186371776
103.35 34.306 5.85713240417186
103.4 33.6413 5.80011206788283
103.45 28.949 5.38042749230951
103.5 32.3811 5.69043935034897
103.55 33.8263 5.81603817043871
103.6 20.8126 4.56208285764299
103.65 30.9581 5.56400035945362
103.7 33.9166 5.82379601291117
103.75 21.4705 4.63362708900921
103.8 37.6565 6.13648922430407
103.85 45.3619 6.73512434926038
103.9 28.8875 5.37470929446421
103.95 36.4863 6.04038906031722
104 40.6467 6.37547645278374
104.05 28.7168 5.35880583712454
104.1 34.0173 5.83243516894959
104.15 31.3024 5.59485477916988
104.2 32.8375 5.7304013821023
104.25 42.871 6.54759497831074
104.3 25.0257 5.00256933984927
104.35 24.3852 4.93813730064282
104.4 28.7816 5.36484855331444
104.45 31.4054 5.60405210539659
104.5 35.2674 5.9386362070765
104.55 28.7868 5.3653331676607
104.6 37.0453 6.086485028323
104.65 30.2463 5.49966362607751
104.7 21.9977 4.69017057259115
104.75 32.9581 5.74091456128725
104.8 24.3462 4.93418686310115
104.85 32.1886 5.6734998017097
104.9 30.1178 5.48796865880264
104.95 40.9147 6.39645995844577
105 25.7747 5.0768789625123
105.05 30.2993 5.50447999360521
105.1 34.2788 5.85480998837708
105.15 26.7401 5.1710830587025
105.2 29.5631 5.43719596851171
105.25 28.923 5.37801078466751
105.3 27.8002 5.27258949663256
105.35 30.1765 5.49331411808937
105.4 28.1557 5.30619449323147
105.45 26.388 5.13692515032096
105.5 24.5072 4.95047472471075
105.55 25.938 5.09293628469864
105.6 26.6335 5.16076544710182
105.65 27.5912 5.25273262216915
105.7 27.4482 5.23910297665545
105.75 21.3527 4.62089818108991
105.8 39.7532 6.30501387785943
105.85 36.0104 6.00086660408311
105.9 32.3436 5.68714339541391
105.95 30.2701 5.50182696928938
106 27.4677 5.24096365184877
106.05 32.6167 5.71110322091975
106.1 27.548 5.2486188659494
106.15 33.4831 5.78645832958296
106.2 42.2968 6.50359900362868
106.25 26.5594 5.15358127907187
106.3 32.0854 5.6643975849158
106.35 30.3475 5.50885650566431
106.4 21.1393 4.59774944945894
106.45 28.696 5.35686475468627
106.5 42.7079 6.53512815482604
106.55 22.7089 4.76538560874144
106.6 26.7505 5.17208855299288
106.65 24.3455 4.93411592891776
106.7 28.0943 5.30040564485399
106.75 31.9533 5.65272500657869
106.8 22.6426 4.75842410888311
106.85 33.1135 5.75443307372672
106.9 32.5386 5.70426156483028
106.95 25.4616 5.04594887013335
107 32.5372 5.70413884823993
107.05 39.5654 6.29010333778389
107.1 34.9297 5.91013536224002
107.15 21.3573 4.62139589301761
107.2 37.7089 6.14075728229019
107.25 32.705 5.71882855137309
107.3 32.7412 5.72199265990441
107.35 27.0235 5.19841321943533
107.4 26.8162 5.17843605734395
107.45 35.4151 5.95105872933548
107.5 24.8305 4.98302117193977
107.55 33.4024 5.77948094555212
107.6 33.9095 5.82318641295296
107.65 34.2868 5.85549314746418
107.7 31.9864 5.65565204021605
107.75 28.5739 5.34545601422367
107.8 26.4324 5.14124498540966
107.85 22.1838 4.70996815275857
107.9 23.5041 4.84810272168402
107.95 27.7639 5.26914604086848
108 44.1722 6.64621696907346
108.05 26.2354 5.12205037070117
108.1 30.7879 5.54868452878698
108.15 30.3615 5.51012704027775
108.2 28.4532 5.3341541035107
108.25 30.389 5.51262188073878
108.3 37.0424 6.08624679092131
108.35 24.9821 4.99820967947524
108.4 31.6447 5.62536221056031
108.45 27.807 5.27323430164069
108.5 33.8274 5.8161327357618
108.55 21.447 4.63109058430085
108.6 21.8333 4.67261168940883
108.65 27.5119 5.2451787386132
108.7 22.9986 4.79568556100168
108.75 33.635 5.79956894949961
108.8 30.1283 5.48892521355502
108.85 27.3853 5.2330965976179
108.9 23.0018 4.79601918261385
108.95 21.2261 4.60717918036622
109 29.8864 5.46684552552933
109.05 31.9141 5.64925658826009
109.1 25.7662 5.0760417649976
109.15 33.5219 5.78981001415418
109.2 30.2357 5.49869984632731
109.25 33.1022 5.75345113822999
109.3 24.6179 4.96164287308146
109.35 29.9755 5.47498858446299
109.4 33.5836 5.7951358914179
109.45 31.0872 5.57558965491543
109.5 26.0149 5.10048036953383
109.55 24.9719 4.99718920994593
109.6 25.0298 5.00297911248888
109.65 38.1575 6.17717573005658
109.7 36.6995 6.05801122481628
109.75 33.5487 5.79212396276185
109.8 26.5112 5.14890279574202
109.85 26.4964 5.1474653957069
109.9 42.1169 6.48975346218945
109.95 25.233 5.02324596252264
110 30.0562 5.48235350921482
110.05 31.0722 5.57424434340656
110.1 34.0195 5.83262376636793
110.15 29.3118 5.41403731054746
110.2 30.5444 5.52669883384286
110.25 27.7464 5.26748516846512
110.3 29.832 5.46186781238799
110.35 20.3679 4.51308098752947
110.4 34.1551 5.84423647707722
110.45 41.9156 6.47422582244395
110.5 38.2094 6.18137525151159
110.55 36.1789 6.01488985767819
110.6 26.7869 5.17560624468284
110.65 25.3266 5.03255402355504
110.7 34.4288 5.86760598540836
110.75 36.1738 6.01446589482391
110.8 36.8099 6.06711628370513
110.85 35.5633 5.96349729605036
110.9 27.8281 5.27523459193996
110.95 20.9888 4.58135351179103
111 26.6921 5.16643977996454
111.05 31.8291 5.64172845854885
111.1 28.6747 5.35487628241774
111.15 42.8061 6.54263708301171
111.2 25.7511 5.07455416760921
111.25 39.5797 6.29123994137881
111.3 32.8207 5.72893532866274
111.35 35.8024 5.98351067518058
111.4 35.0547 5.92070097201336
111.45 27.1214 5.20782104147214
111.5 32.2054 5.67498017617683
111.55 26.6982 5.16703009474495
111.6 26.6481 5.16217977215052
111.65 30.4403 5.51727287706526
111.7 30.2173 5.49702646891936
111.75 16.7815 4.09652291583973
111.8 24.6686 4.96674944002614
111.85 34.8832 5.90620013206461
111.9 28.1055 5.30146206248805
111.95 33.5612 5.79320291376023
112 32.3992 5.6920295150324
112.05 28.6124 5.34905599148111
112.1 26.8406 5.18079144532956
112.15 24.7237 4.97229323350906
112.2 22.0654 4.69738224972165
112.25 25.5362 5.05333553210154
112.3 31.1796 5.58386962598519
112.35 33.104 5.75360756395498
112.4 27.8585 5.27811519389261
112.45 33.1683 5.7591926517525
112.5 32.4285 5.69460270782783
112.55 29.7537 5.45469522521653
112.6 22.3345 4.72593906012339
112.65 27.6598 5.25925850286901
112.7 35.5663 5.96374882100177
112.75 24.0074 4.89973468669478
112.8 35.1373 5.92767239310676
112.85 27.227 5.21794978894968
112.9 34.2313 5.8507520884071
112.95 20.5109 4.52889611274094
113 29.8921 5.46736682508134
113.05 28.4751 5.33620651774273
113.1 40.8473 6.39118924770656
113.15 30.0813 5.48464219434595
113.2 28.257 5.31573137018793
113.25 30.2049 5.49589847067793
113.3 29.3832 5.42062726997531
113.35 32.9591 5.74100165476374
113.4 21.8912 4.67880326579351
113.45 29.088 5.39332921301862
113.5 29.2472 5.40806804690917
113.55 36.1024 6.00852727380013
113.6 34.4965 5.87337211489277
113.65 23.0628 4.80237441272544
113.7 40.6601 6.37652726803548
113.75 31.5784 5.61946616681692
113.8 28.208 5.3111204091039
113.85 22.5135 4.74483930180991
113.9 40.1167 6.33377454603493
113.95 41.0666 6.40832271347191
114 36.6637 6.05505573880208
114.05 20.8313 4.56413189993453
114.1 26.9697 5.19323598539485
114.15 35.3713 5.94737757335113
114.2 41.236 6.4215262983188
114.25 26.4988 5.1476985148705
114.3 28.3751 5.32682832462245
114.35 23.4565 4.84319109678732
114.4 21.8185 4.67102772417377
114.45 18.2661 4.27388581971957
114.5 32.9537 5.74053133429302
114.55 26.9589 5.1921960671762
114.6 26.0057 5.09957841394757
114.65 27.0014 5.19628713602318
114.7 32.7466 5.7224645040402
114.75 29.5944 5.44007352891484
114.8 31.2453 5.5897495471622
114.85 29.7778 5.45690388407199
114.9 36.2542 6.02114607030921
114.95 23.2886 4.82582635410766
115 24.9812 4.99811964642704
115.05 39.6123 6.29383031229791
115.1 29.2937 5.41236547176925
115.15 41.8608 6.46999227202011
115.2 31.6517 5.62598435831455
115.25 33.5786 5.79470447909123
115.3 27.7257 5.26551991734909
115.35 41.7922 6.46468870093526
115.4 26.7146 5.1686168362532
115.45 30.5797 5.52989149983976
115.5 51.2944 7.16201089080434
115.55 44.0884 6.63990963793936
115.6 48.7611 6.98291486415236
115.65 49.3105 7.02214354737925
115.7 63.119 7.94474669199717
115.75 53.6136 7.32213083739973
115.8 75.0127 8.66098724164861
115.85 105.9212 10.2918025632053
115.9 95.7115 9.78322543949591
115.95 103.7091 10.183766493788
116 100.6585 10.0328709749503
116.05 93.3354 9.66102479036256
116.1 74.6314 8.6389466950549
116.15 57.9804 7.61448619409084
116.2 61.1814 7.82185400017157
116.25 41.205 6.41911208813182
116.3 37.075 6.08892437134836
116.35 50.2609 7.08949222441213
116.4 28.018 5.29320318899624
116.45 39.873 6.31450710665528
116.5 37.2158 6.10047539131173
116.55 40.8041 6.38780870095528
116.6 28.8146 5.36792324833357
116.65 24.2992 4.92942187279604
116.7 24.4848 4.94821179821559
116.75 17.7031 4.2075051990461
116.8 28.861 5.37224347921797
116.85 25.2603 5.02596259436936
116.9 32.5385 5.70425279944709
116.95 26.4463 5.14259662038546
117 36.3728 6.0309866522817
117.05 27.7132 5.26433281622657
117.1 28.8391 5.37020483780647
117.15 22.2472 4.7166937572838
117.2 26.7998 5.17685232549664
117.25 32.8416 5.73075911201998
117.3 30.5912 5.53093120550238
117.35 28.2359 5.31374632439299
117.4 27.4255 5.23693612716443
117.45 32.1746 5.6722658611881
117.5 39.759 6.30547381249022
117.55 28.1377 5.30449809124294
117.6 33.7866 5.81262419222162
117.65 34.113 5.84063352728109
117.7 29.347 5.41728714394945
117.75 32.5002 5.70089466662909
117.8 33.689 5.80422260083123
117.85 38.6704 6.21855288632331
117.9 30.5464 5.52687977072055
117.95 25.7039 5.06990137971144
118 25.8138 5.08072829425074
118.05 30.1801 5.4936417793664
118.1 29.687 5.44857779608587
118.15 31.9088 5.64878748051296
118.2 33.3892 5.77833886164527
118.25 32.448 5.69631459805373
118.3 27.9509 5.28686107250796
118.35 21.776 4.66647618658876
118.4 27.0506 5.20101913090117
118.45 33.6765 5.80314569867068
118.5 20.7094 4.55075817858958
118.55 22.128 4.70404081614945
118.6 25.301 5.03000994034803
118.65 29.7686 5.45606085010056
118.7 35.0958 5.92417082805687
118.75 36.4607 6.0382696196841
118.8 29.0781 5.39241133445882
118.85 28.2005 5.3104142964556
118.9 22.585 4.75236783088178
118.95 34.0503 5.83526349019477
119 35.1991 5.93288294170718
119.05 31.0773 5.57470178574603
119.1 32.7917 5.72640375803174
119.15 47.4121 6.88564448690172
119.2 25.8657 5.0858332650609
119.25 33.2452 5.76586506952773
119.3 29.5226 5.43347034592074
119.35 27.6163 5.25512131163497
119.4 31.991 5.65605869842243
119.45 34.9782 5.91423705984128
119.5 26.1401 5.11273899196898
119.55 30.8142 5.55105395398027
119.6 37.9649 6.16156635929534
119.65 26.4421 5.14218825015188
119.7 25.1578 5.01575517743839
119.75 29.2714 5.41030498216136
119.8 29.3495 5.41751788183482
119.85 31.4624 5.60913540574659
119.9 38.0115 6.1653467055795
119.95 24.5113 4.95088880909277
120 27.85 5.2773099207835
120.05 26.4561 5.14354935817671
120.1 26.4396 5.14194515723379
120.15 38.034 6.16717115053571
120.2 30.4349 5.51678348315393
120.25 31.8145 5.64043438043561
120.3 22.4724 4.74050630207365
120.35 29.6488 5.44507116574246
120.4 27.4331 5.23766169201486
120.45 35.5398 5.96152665011237
120.5 31.3013 5.59475647369928
120.55 35.7212 5.97672150932265
120.6 32.0686 5.66291444399436
120.65 34.4943 5.87318482596964
120.7 28.8166 5.3681095368854
120.75 31.7392 5.63375540825123
120.8 42.1031 6.48869016057941
120.85 20.5178 4.52965782372135
120.9 21.8327 4.67254748504496
120.95 36.0801 6.00667129115619
121 41.9704 6.47845660632222
121.05 38.5054 6.20527195213876
121.1 30.9957 5.567378198039
121.15 23.3594 4.83315631859761
121.2 38.1457 6.17622052715089
121.25 30.9588 5.56406326347931
121.3 27.6208 5.2555494479645
121.35 32.4145 5.69337334099917
121.4 26.2132 5.11988281115887
121.45 37.2138 6.10031146745803
121.5 39.1546 6.25736366211842
121.55 22.8139 4.77638985008552
121.6 26.4688 5.14478376610718
121.65 33.0712 5.75075647197827
121.7 29.9612 5.47368248987827
121.75 21.1265 4.59635725330397
121.8 34.3091 5.85739703281244
121.85 29.3072 5.41361247227764
121.9 23.708 4.86908615655957
121.95 26.6083 5.15832337101892
122 27.3204 5.22689200194532
122.05 31.6992 5.63020425917213
122.1 29.967 5.47421227209906
122.15 27.7586 5.26864308906952
122.2 36.151 6.01257016591075
122.25 34.2023 5.84827324943013
122.3 36.24 6.01996677731696
122.35 46.0317 6.78466653565229
122.4 25.8022 5.07958659735219
122.45 37.9219 6.15807599823192
122.5 33.4888 5.78695083787654
122.55 32.8026 5.72735541065857
122.6 32.6482 5.71386034131042
122.65 31.1192 5.57845856845778
122.7 35.8067 5.9838699852186
122.75 27.5519 5.24899037911102
122.8 29.08 5.39258750508511
122.85 32.1729 5.6721160072763
122.9 31.0061 5.56831213205582
122.95 29.5869 5.4393841563177
123 28.1756 5.30806932886148
123.05 29.0681 5.39148402575766
123.1 28.7497 5.36187467216458
123.15 31.6931 5.6296625120872
123.2 22.0693 4.69779735620855
123.25 28.1331 5.30406447924608
123.3 33.9078 5.82304044293014
123.35 33.1325 5.75608373809833
123.4 29.8105 5.45989926647003
123.45 22.2013 4.71182554855334
123.5 27.486 5.24270922329286
123.55 30.2033 5.4957529056536
123.6 37.4598 6.12044116057004
123.65 28.5699 5.34508185157159
123.7 25.0992 5.00991017883555
123.75 29.483 5.42982504322193
123.8 24.9747 4.99746935958591
123.85 34.9545 5.91223308065574
123.9 18.9707 4.35553670630842
123.95 40.8856 6.39418485813477
124 26.9554 5.19185901195323
124.05 24.2447 4.92389073802415
124.1 34.6292 5.88465801895063
124.15 25.8649 5.08575461460735
124.2 37.2083 6.09986065414613
124.25 24.3556 4.9351393090773
124.3 34.4283 5.86756337843913
124.35 30.6126 5.53286544206526
124.4 36.7374 6.06113850691436
124.45 29.238 5.40721739899553
124.5 29.0384 5.38872897815431
124.55 40.3731 6.35398300281013
124.6 30.8276 5.55226080079097
124.65 31.9047 5.64842455911381
124.7 29.5316 5.43429848278506
124.75 22.8208 4.77711209832886
124.8 29.6985 5.44963301516717
124.85 32.9138 5.73705499363567
124.9 24.2783 4.92730149270369
124.95 22.9103 4.78647051594387
125 28.2093 5.31124279241686
125.05 22.9472 4.79032357988477
125.1 31.9067 5.64860159685563
125.15 23.8093 4.87947743103706
125.2 37.6816 6.13853402694813
125.25 29.8611 5.46453108692777
125.3 21.8131 4.67044965715294
125.35 35.2209 5.93471987544484
125.4 36.4758 6.03951984846478
125.45 30.0402 5.48089408764665
125.5 27.0664 5.20253784224584
125.55 32.6612 5.71499781277299
125.6 30.6807 5.53901615812772
125.65 30.898 5.55859694527315
125.7 25.135 5.01348182404205
125.75 24.9443 4.99442689404901
125.8 32.9321 5.73864966695128
125.85 33.8784 5.82051544109282
125.9 25.8893 5.08815290650743
125.95 26.6052 5.15802287703341
126 32.0523 5.66147507280567
126.05 26.0108 5.10007843076947
126.1 29.045 5.38934133266766
126.15 32.4254 5.69433051376542
126.2 31.3059 5.59516755781272
126.25 26.5916 5.15670437391945
126.3 30.765 5.54662059275736
126.35 25.911 5.09028486432734
126.4 26.7769 5.17464008410247
126.45 21.7752 4.66639046801701
126.5 23.4512 4.84264390596707
126.55 36.1099 6.00915135439273
126.6 31.9917 5.65612057862984
126.65 29.5669 5.4375454021093
126.7 28.3192 5.3215787131264
126.75 38.9394 6.2401442291024
126.8 27.1615 5.21166959812304
126.85 25.8106 5.08041336900847
126.9 27.9448 5.28628413916619
126.95 25.7591 5.07534235298467
127 27.3465 5.22938810952104
127.05 41.2621 6.42355820398632
127.1 29.9042 5.46847327871317
127.15 31.8733 5.64564433878012
127.2 26.8898 5.18553758061785
127.25 31.343 5.59848193709688
127.3 23.3555 4.83275283870384
127.35 17.2098 4.14846959733346
127.4 33.9424 5.82601064194016
127.45 35.5947 5.96612939852967
127.5 32.2341 5.67750825626877
127.55 21.7683 4.6656510799673
127.6 23.9033 4.88910012169929
127.65 31.3038 5.59497989272526
127.7 36.9171 6.07594437104225
127.75 33.7368 5.80833883309161
127.8 41.7036 6.45783245369528
127.85 35.4628 5.95506507101308
127.9 29.8134 5.46016483267676
127.95 47.4739 6.89013062285469
128 29.2316 5.40662556498968
128.05 37.6853 6.13883539443761
128.1 35.5259 5.96036072733857
128.15 28.1841 5.3088699362482
128.2 29.4516 5.42693283540528
128.25 30.5339 5.52574881803362
128.3 27.178 5.21325234378694
128.35 26.2959 5.12795280789517
128.4 27.4132 5.23576164468934
128.45 39.4805 6.28335101677441
128.5 26.6468 5.16205385481399
128.55 23.4666 4.84423368552757
128.6 28.4158 5.33064724025141
128.65 21.4215 4.62833663425642
128.7 45.3147 6.73161941883229
128.75 30.3273 5.50702278913026
128.8 28.8106 5.36755065183366
128.85 33.095 5.75282539279613
128.9 34.8035 5.89944912682532
128.95 21.3353 4.61901504652236
129 28.2629 5.31628629778344
129.05 30.5191 5.52440947070363
129.1 23.3818 4.83547308957459
129.15 26.0491 5.10383189378334
129.2 31.5099 5.61336797297309
129.25 32.5221 5.70281509431965
129.3 26.1047 5.10927587824341
129.35 31.2061 5.5862420284123
129.4 35.9257 5.99380513530428
129.45 31.351 5.59919637090895
129.5 36.2646 6.02200963134401
129.55 18.2531 4.27236468480864
129.6 32.9969 5.74429281983431
129.65 28.7268 5.35973879960582
129.7 32.6194 5.71133959767759
129.75 35.0682 5.92184092998115
129.8 29.0149 5.38654805975033
129.85 29.6701 5.44702671188604
129.9 34.421 5.86694128145152
129.95 39.2864 6.26788640611809
130 65.0491 8.06530222620331
130 65.0491 8.06530222620331
