40 24.5352 4.95330192901664
40.05 36.4874 6.04048011336847
40.1 38.6125 6.21389571846841
40.15 28.0716 5.29826386658875
40.2 41.0463 6.40673863990096
40.25 42.4861 6.51813623668607
40.3 38.2264 6.18275019712102
40.35 48.7182 6.9798424050977
40.4 31.1715 5.58314427540611
40.45 37.1906 6.09840962874748
40.5 39.9501 6.32060914785909
40.55 39.9877 6.32358284519148
40.6 38.2762 6.18677622029438
40.65 41.9794 6.47915117897399
40.7 50.4556 7.10321054171985
40.75 37.6241 6.1338487102308
40.8 26.8761 5.18421643066722
40.85 32.6827 5.71687851891222
40.9 37.2231 6.10107367600163
40.95 45.0364 6.71091647988559
41 36.8861 6.07339279151283
41.05 32.9962 5.74423188946964
41.1 38.5916 6.21221377610269
41.15 29.7197 5.45157775327473
41.2 32.1859 5.67326184835497
41.25 36.9086 6.07524485103276
41.3 43.6549 6.60718548248799
41.35 40.5931 6.37127145866506
41.4 31.9836 5.65540449481732
41.45 37.7144 6.14120509346496
41.5 30.6537 5.53657836574179
41.55 39.173 6.25883375717873
41.6 43.0433 6.56073928761081
41.65 39.63 6.29523629421486
41.7 40.7633 6.38461431881363
41.75 25.8908 5.08830030560304
41.8 38.8361 6.23186168010812
41.85 40.4462 6.35973269878538
41.9 36.0976 6.00812782820073
41.95 37.4309 6.118079764109
42 44.0595 6.63773304675625
42.05 31.3983 5.60341859939091
42.1 43.4125 6.5888162821557
42.15 28.9685 5.38223931091883
42.2 34.6107 5.8830859249207
42.25 43.4921 6.59485405448824
42.3 35.9761 5.99800800266222
42.35 30.5934 5.53113008344588
42.4 35.0934 5.92396826460102
42.45 35.8927 5.99105166060183
42.5 47.1783 6.868646154811
42.55 51.1438 7.15148935537207
42.6 26.5552 5.1531737793325
42.65 35.1824 5.93147536452778
42.7 46.3211 6.80596062286581
42.75 32.1689 5.67176339421877
42.8 23.0303 4.79898947696283
42.85 33.9488 5.82655987697715
42.9 28.3589 5.3253075028584
42.95 32.0186 5.65849803393091
43 31.3461 5.59875879101788
43.05 42.2715 6.50165363580682
43.1 42.0807 6.48696385067776
43.15 33.6358 5.79963791973258
43.2 34.5276 5.87601906055452
43.25 42.669 6.53215125360704
43.3 28.4821 5.3368623740921
43.35 33.4631 5.78472989862102
43.4 23.2355 4.82032156603685
43.45 41.486 6.44096266096924
43.5 31.5241 5.6146326683052
43.55 43.7992 6.61809640304521
43.6 26.4082 5.13889093093053
43.65 38.9257 6.23904640149438
43.7 28.9552 5.38100362386052
43.75 44.8247 6.69512509218461
43.8 41.6183 6.45122468993291
43.85 37.3364 6.11035187202832
43.9 42.3268 6.50590501006586
43.95 38.6668 6.21826342317532
44 28.3006 5.31983082437778
44.05 40.2734 6.34613268061739
44.1 45.0528 6.71213825840916
44.15 45.5092 6.74605069651867
44.2 40.7729 6.38536608190948
44.25 62.1156 7.88134506286839
44.3 90.3015 9.50271013974435
44.35 86.2068 9.28476170938167
44.4 132.8338 11.5253546583175
44.45 388.1565 19.7016877449624
44.5 1221.7073 34.9529297770587
44.55 2047.1522 45.2454660711988
44.6 2128.8118 46.1390485380876
44.65 1038.5728 32.2268955997937
44.7 314.4247 17.7320247010881
44.75 112.6724 10.6147256205707
44.8 67.4062 8.21012789181752
44.85 55.291 7.43579182064694
44.9 53.567 7.31894801183886
44.95 34.5585 5.87864780370452
45 42.4602 6.51614916956326
45.05 39.2446 6.26455106132914
45.1 42.593 6.52633128181523
45.15 35.4679 5.95549326252662
45.2 39.2192 6.2625234530499
45.25 28.9319 5.37883816451099
45.3 27.1791 5.21335784307964
45.35 40.3439 6.35168481585792
45.4 36.06 6.00499791840097
45.45 35.052 5.92047295408061
45.5 31.6683 5.62745946231512
45.55 42.7867 6.54115433237896
45.6 31.6265 5.62374430428696
45.65 31.0057 5.56827621441322
45.7 37.0649 6.088094940127
45.75 31.5779 5.6194216784292
45.8 33.1763 5.75988715167233
45.85 33.7227 5.80712493407883
45.9 39.245 6.2645829869194
45.95 34.6316 5.88486193550877
46 40.7745 6.38549136715414
46.05 31.1905 5.58484556635186
46.1 34.1073 5.84014554613153
46.15 30.8024 5.54999099098368
46.2 33.3687 5.77656472308586
46.25 35.9098 5.99247861906907
46.3 33.6718 5.80274073175771
46.35 35.2325 5.93569709469747
46.4 39.2035 6.26126983925785
46.45 28.3279 5.32239607695632
46.5 26.9769 5.19392914853485
46.55 30.7296 5.54342854197653
46.6 26.733 5.17039650317072
46.65 38.7006 6.22098063009362
46.7 28.8 5.3665631459995
46.75 35.3817 5.94825184402947
46.8 28.3975 5.3289304743072
46.85 34.2383 5.85135027151853
46.9 28.6907 5.35637003949503
46.95 33.478 5.78601762873222
47 34.6106 5.88307742597359
47.05 39.4882 6.28396371727272
47.1 38.9196 6.23855752558234
47.15 31.7805 5.63741962248687
47.2 45.2878 6.72962108888755
47.25 22.8709 4.7823529773533
47.3 29.4135 5.42342142931932
47.35 43.656 6.60726872466982
47.4 30.1246 5.48858816090258
47.45 21.8887 4.67853609583169
47.5 31.2862 5.59340683304907
47.55 30.4005 5.51366484291528
47.6 36.2561 6.02130384551386
47.65 34.2039 5.8484100403443
47.7 43.0799 6.56352801471891
47.75 27.5883 5.25245656812124
47.8 34.8738 5.90540430453326
47.85 24.2293 4.92232668562337
47.9 32.6708 5.71583764639969
47.95 39.6348 6.29561752332525
48 30.9969 5.56748596765183
48.05 32.9948 5.74411002680137
48.1 34.17 5.84551109827019
48.15 30.1831 5.49391481550269
48.2 43.8083 6.6187838762117
48.25 23.1212 4.80845089399902
48.3 43.0392 6.56042681538328
48.35 35.6703 5.97246180398
48.4 35.1031 5.9247869159996
48.45 34.6821 5.88915104238293
48.5 35.5354 5.96115760570042
48.55 37.9791 6.16271855596213
48.6 34.8178 5.9006609799242
48.65 35.5609 5.96329606845074
48.7 43.5553 6.59964392978894
48.75 36.0446 6.00371551624492
48.8 24.4959 4.94933328843391
48.85 40.6029 6.37204048951354
48.9 31.1297 5.57939960927697
48.95 29.3945 5.42166948457761
49 31.6467 5.62553997408249
49.05 31.2944 5.59413979088832
49.1 40.9809 6.40163260426588
49.15 40.4277 6.35827806878561
49.2 40.8869 6.39428651219196
49.25 32.5545 5.70565508947045
49.3 37.3047 6.1077573625677
49.35 27.8866 5.28077645805993
49.4 26.9594 5.19224421613622
49.45 34.2276 5.85043588119723
49.5 22.9708 4.79278624601598
49.55 35.9974 5.99978332942116
49.6 39.6962 6.30049204427718
49.65 34.1383 5.84279898678707
49.7 40.6611 6.37660568014049
49.75 34.0503 5.83526349019477
49.8 41.7306 6.45992260015552
49.85 38.4141 6.1979109383727
49.9 37.2007 6.09923765728144
49.95 39.7824 6.30732907021665
50 37.4719 6.12142957159518
50.05 32.3429 5.68708185276069
50.1 32.2046 5.67490969091139
50.15 27.8737 5.27955490548209
50.2 27.4769 5.24184127955054
50.25 24.6144 4.96129015478837
50.3 29.5989 5.44048711054442
50.35 34.7391 5.89398846283228
50.4 38.154 6.17689242256978
50.45 25.3819 5.03804525585073
50.5 29.161 5.40009259179877
50.55 21.7673 4.66554391255725
50.6 26.7856 5.17548065400693
50.65 35.8377 5.98645972173872
50.7 34.312 5.85764457781453
50.75 37.034 6.08555667133254
50.8 25.8528 5.08456487813854
50.85 26.4516 5.14311189845214
50.9 26.6676 5.16406816376391
50.95 35.5244 5.96023489470004
51 32.4467 5.69620048804464
51.05 33.6119 5.7975770801258
51.1 33.6954 5.80477389740548
51.15 35.3563 5.94611637962124
51.2 37.2714 6.10503071245346
51.25 35.397 5.94953779717383
51.3 28.8227 5.36867767704488
51.35 25.9283 5.09198389628247
51.4 32.0738 5.66337355292762
51.45 19.9206 4.46324993698538
51.5 28.489 5.33750878219418
51.55 31.6386 5.62481999711991
51.6 33.0086 5.74531113169687
51.65 31.7539 5.63505989320433
51.7 35.1684 5.93029510226936
51.75 33.7806 5.81210805130118
51.8 30.5657 5.52862550730288
51.85 31.0596 5.5731140307731
51.9 27.1714 5.21261930319105
51.95 27.3948 5.23400420328452
52 26.1106 5.10985322685496
52.05 32.46 5.69736781329765
52.1 39.4973 6.28468774085077
52.15 30.683 5.53922377233489
52.2 22.5767 4.75149450173311
52.25 36.2706 6.02250778330755
52.3 21.7382 4.66242426211944
52.35 20.9048 4.57217672449349
52.4 21.4717 4.63375657539323
52.45 43.1407 6.56815803707554
52.5 33.8487 5.81796356124718
52.55 24.932 4.99319536970065
52.6 35.1448 5.92830498540687
52.65 23.0995 4.80619392034903
52.7 26.9036 5.18686803379457
52.75 26.9403 5.19040460850597
52.8 34.0156 5.83228943040381
52.85 43.6577 6.60739736961536
52.9 37.3954 6.11517783878768
52.95 34.7875 5.89809291211998
53 42.7785 6.54052750166223
53.05 26.4611 5.14403538090476
53.1 24.3747 4.93707403225838
53.15 26.5557 5.15322229289597
53.2 35.6002 5.96659031608506
53.25 33.0768 5.75124334383444
53.3 43.027 6.55949693193007
53.35 29.0047 5.38560117349958
53.4 23.1312 4.80949061751866
53.45 30.3967 5.51332023376114
53.5 35.0906 5.92373193181461
53.55 34.4325 5.86792126736547
53.6 30.3316 5.50741318587956
53.65 31.5984 5.6212454136072
53.7 39.9395 6.31977056545568
53.75 23.8201 4.8805839814514
53.8 25.35 5.03487835006964
53.85 33.1258 5.7555017157499
53.9 29.8932 5.46746742102776
53.95 36.5518 6.045808465375
54 35.8119 5.98430447086376
54.05 17.3188 4.16158623604029
54.1 36.8444 6.06995881369882
54.15 43.1527 6.56907147167695
54.2 31.3718 5.60105347233893
54.25 25.2611 5.02604218048357
54.3 25.2066 5.02061749190276
54.35 21.341 4.61963201997735
54.4 38.7524 6.22514256864853
54.45 33.3383 5.77393280182581
54.5 27.9764 5.28927216164946
54.55 22.7129 4.76580528347519
54.6 28.2528 5.31533630168402
54.65 33.4566 5.78416804735132
54.7 38.5722 6.210652139671
54.75 31.9218 5.64993805275775
54.8 27.2066 5.21599463189908
54.85 19.997 4.47180053222413
54.9 27.0571 5.20164397089997
54.95 24.4139 4.9410424001419
55 34.4663 5.87080062683106
55.05 25.755 5.07493842327175
55.1 27.048 5.20076917388188
55.15 27.4988 5.24392982409185
55.2 29.5028 5.43164800037705
55.25 30.6418 5.5355035904604
55.3 30.4462 5.51780753560687
55.35 26.2053 5.11911125098879
55.4 37.9142 6.15745077122018
55.45 31.6893 5.62932500394141
55.5 31.8722 5.64554691770425
55.55 35.4997 5.95816246841256
55.6 32.245 5.67846810328279
55.65 30.7244 5.54295949831856
55.7 34.9404 5.91104051754004
55.75 29.2784 5.4109518571135
55.8 38.4364 6.19970967062168
55.85 32.6818 5.7167998040862
55.9 27.3658 5.23123312422607
55.95 35.9463 5.99552332995211
56 27.1636 5.2118710651742
56.05 31.6079 5.6220903585766
56.1 25.5732 5.05699515522805
56.15 26.8559 5.18226784332883
56.2 28.7111 5.35827397582468
56.25 30.4102 5.51454440547902
56.3 25.6945 5.0689742552118
56.35 46.0554 6.78641289636874
56.4 21.5673 4.64406072311722
56.45 29.2658 5.40978742650763
56.5 38.7647 6.22613041944995
56.55 34.3973 5.86492114183985
56.6 36.1798 6.01496467155045
56.65 29.721 5.4516969835089
56.7 43.5931 6.60250709957967
56.75 42.5369 6.52203189197968
56.8 36.0205 6.00170809020232
56.85 31.702 5.63045291251068
56.9 45.3606 6.73502783958611
56.95 38.7644 6.22610632739275
57 29.3356 5.41623485458303
57.05 28.3233 5.32196392321481
57.1 32.4044 5.69248627578495
57.15 25.0914 5.00913166127623
57.2 30.8465 5.5539625493876
57.25 29.3317 5.41587481391511
57.3 34.1869 5.84695647324315
57.35 25.8735 5.08660004325089
57.4 28.6907 5.35637003949503
57.45 23.7205 4.87036959583151
57.5 22.1375 4.70505047794389
57.55 25.2014 5.02009960060555
57.6 38.8987 6.23688223393708
57.65 34.1924 5.84742678449247
57.7 30.1855 5.4941332346422
57.75 32.3538 5.68804008424695
57.8 25.8793 5.08717013672631
57.85 24.9716 4.99715919298155
57.9 29.007 5.38581470160272
57.95 35.3117 5.94236484911521
58 24.9939 4.99938996278546
58.05 35.1236 5.92651668351655
58.1 40.4648 6.36119485631434
58.15 20.5547 4.53372914938685
58.2 29.9051 5.46855556797222
58.25 27.7473 5.26757059753355
58.3 30.3629 5.51025407762655
58.35 26.9001 5.18653063232061
58.4 26.8081 5.17765390886645
58.45 29.6876 5.44863285604747
58.5 37.2998 6.10735622016597
58.55 39.7795 6.30709917473953
58.6 33.3192 5.77227857955591
58.65 23.7113 4.86942501739168
58.7 37.46 6.12045749923974
58.75 23.2162 4.81831920901885
58.8 33.4817 5.78633735622112
58.85 19.9588 4.46752728027485
58.9 27.999 5.29140813016724
58.95 25.757 5.07513546617231
59 35.5659 5.96371528495451
59.05 29.5895 5.43962314871168
59.1 31.2974 5.59440792220231
59.15 28.1202 5.30284829124877
59.2 37.1628 6.0961299198754
59.25 30.003 5.47749942948422
59.3 32.3963 5.69177476715304
59.35 29.1489 5.39897212439553
59.4 33.2066 5.7625168112553
59.45 34.0707 5.83701122150712
59.5 29.4898 5.43045117830922
59.55 28.5683 5.34493217917683
59.6 24.1645 4.91574002567264
59.65 25.1939 5.01935254788902
59.7 32.9227 5.73783060049702
59.75 40.3681 6.35358953663203
59.8 34.4669 5.87085172696433
59.85 25.1585 5.01582495707336
59.9 27.9031 5.28233849729455
59.95 38.2508 6.18472311425499
60 30.9981 5.5675937351786
60.05 34.4581 5.87010221376085
60.1 25.5974 5.05938731468544
60.15 24.4541 4.94510869445759
60.2 30.0892 5.48536233990062
60.25 31.7191 5.631971235722
60.3 33.5255 5.79012089683799
60.35 29.3524 5.41778552547072
60.4 36.141 6.0117385172677
60.45 34.1209 5.84130978462879
60.5 34.0724 5.83715684216212
60.55 26.6117 5.15865292494077
60.6 24.4015 4.93978744481987
60.65 25.6752 5.06707015937218
60.7 23.5943 4.85739642195281
60.75 37.401 6.11563569876428
60.8 33.5989 5.79645581368477
60.85 31.5647 5.61824705757944
60.9 31.3644 5.60039284336376
60.95 17.3473 4.16500900359171
61 24.0161 4.90062240944964
61.05 41.4025 6.43447744576046
61.1 38.1085 6.17320824207316
61.15 34.5906 5.88137738969368
61.2 34.9258 5.90980541134816
61.25 24.2594 4.92538323382049
61.3 26.5075 5.14854348335527
61.35 23.1835 4.81492471384548
61.4 30.3417 5.50833005547053
61.45 24.8126 4.98122474899497
61.5 30.6241 5.53390458898597
61.55 26.8249 5.17927601118149
61.6 30.8481 5.55410658882236
61.65 34.5011 5.87376369970737
61.7 33.1219 5.755162899519
61.75 32.1926 5.67385230685466
61.8 20.3333 4.50924605671502
61.85 30.1637 5.49214894189879
61.9 35.8625 5.98853070460526
61.95 28.2334 5.31351108025569
62 25.9097 5.09015716849686
62.05 21.2511 4.60989153885425
62.1 33.8374 5.81699235000357
62.15 32.8678 5.73304456637134
62.2 27.8103 5.27354719330357
62.25 37.7037 6.14033386714436
62.3 32.8878 5.73478857500431
62.35 33.1621 5.75865435670522
62.4 24.6608 4.96596415613323
62.45 35.4724 5.95587105300308
62.5 27.0785 5.20370060629933
62.55 28.6063 5.34848576701855
62.6 29.1383 5.39799036679392
62.65 27.089 5.20470940591307
62.7 30.7648 5.54660256373214
62.75 26.3654 5.13472491960378
62.8 29.554 5.43635907570499
62.85 19.1871 4.3803082083342
62.9 41.1347 6.41363391534004
62.95 31.1773 5.58366367181978
63 32.7736 5.72482314137302
63.05 31.148 5.58103932973062
63.1 23.2743 4.82434451506109
63.15 29.7061 5.45033026522247
63.2 21.389 4.62482432098777
63.25 24.0445 4.90351914445126
63.3 31.3655 5.60049104989911
63.35 34.4312 5.86781049455417
63.4 34.8995 5.90757987673464
63.45 28.9771 5.38303817560307
63.5 29.0094 5.38603750451109
63.55 30.3079 5.50526112005598
63.6 28.9654 5.38195131899202
63.65 29.6827 5.44818318341078
63.7 39.2041 6.26131775267795
63.75 25.1204 5.01202553864204
63.8 31.6075 5.62205478450717
63.85 21.3968 4.62566751939652
63.9 26.3006 5.1284110599678
63.95 27.2398 5.21917618020316
64 37.4973 6.12350389891278
64.05 18.9878 4.35749928284561
64.1 27.356 5.23029635871621
64.15 29.9449 5.47219334453745
64.2 32.8813 5.73422183037943
64.25 30.4024 5.51383713941571
64.3 30.4355 5.51683786239908
64.35 41.435 6.43700240795357
64.4 31.689 5.62929835769965
64.45 31.3191 5.59634702283552
64.5 38.5573 6.20945247183679
64.55 34.1538 5.8441252553312
64.6 57.507 7.58333699633611
64.65 56.0474 7.48648114937853
64.7 77.1734 8.78483921309889
64.75 93.3635 9.66247897798489
64.8 130.9983 11.4454488771738
64.85 140.5421 11.8550453394325
64.9 138.2006 11.7558751269312
64.95 84.544 9.19478112844455
65 86.4943 9.30023117992236
65.05 49.9816 7.06976661566703
65.1 45.4336 6.7404450891614
65.15 30.6321 5.53462735872976
65.2 33.2327 5.76478100191152
65.25 34.8144 5.90037286957358
65.3 25.8864 5.08786792281403
65.35 34.5619 5.87893697874029
65.4 34.5678 5.87943874872423
65.45 34.5717 5.87977040368074
65.5 42.9745 6.55549387918256
65.55 43.2153 6.57383449746037
65.6 30.9177 5.56036869281166
65.65 30.5861 5.53047014276363
65.7 30.9474 5.56303873795608
65.75 34.0415 5.83450940525422
65.8 31.2791 5.59277212122933
65.85 26.408 5.13887147144195
65.9 32.5767 5.70760019622959
65.95 31.6389 5.62484666457673
66 34.0363 5.83406376379278
66.05 30.1529 5.49116563217683
66.1 23.5213 4.84987628708197
66.15 26.6193 5.15938949876824
66.2 33.5589 5.79300440186265
66.25 37.0723 6.08870265327516
66.3 30.1206 5.48822375637145
66.35 26.665 5.16381641811558
66.4 35.118 5.92604421178243
66.45 29.526 5.43378321245889
66.5 29.6647 5.44653100606248
66.55 22.6774 4.76207937775086
66.6 32.3018 5.68346725159915
66.65 25.5633 5.05601621832842
66.7 26.756 5.17262022576566
66.75 33.5586 5.79297850850493
66.8 24.9422 4.9942166552924
66.85 23.1294 4.80930348387373
66.9 19.4453 4.40968252825529
66.95 33.3654 5.77627907913044
67 22.2437 4.71632272008606
67.05 17.5329 4.18723058834834
67.1 26.732 5.17029979788406
67.15 39.3365 6.27188169531282
67.2 24.3805 4.93766138976743
67.25 34.5962 5.88185344938141
67.3 43.4606 6.59246539619284
67.35 31.4021 5.6037576678511
67.4 37.7339 6.14279252457708
67.45 36.5406 6.04488213284593
67.5 27.175 5.21296460759135
67.55 27.5913 5.25274214101549
67.6 37.1591 6.09582644109886
67.65 33.6231 5.79854292042406
67.7 33.0331 5.74744290967731
67.75 28.4957 5.33813637892476
67.8 31.5601 5.61783766230389
67.85 27.9058 5.28259405973997
67.9 26.0222 5.101195938209
67.95 21.0982 4.59327769680867
68 29.2828 5.41135842464718
68.05 20.9556 4.57772869445099
68.1 29.4992 5.43131659913137
68.15 26.9162 5.18808249741656
68.2 28.9512 5.38063193314689
68.25 39.1714 6.25870593653353
68.3 37.5046 6.12409993386783
68.35 25.7077 5.07027612660297
68.4 38.8754 6.23501403366504
68.45 32.4066 5.6926795096861
68.5 41.3952 6.43391016412259
68.55 31.3949 5.60311520495519
68.6 34.9145 5.90884929575971
68.65 30.6778 5.5387543726004
68.7 27.3342 5.22821193143507
68.75 34.34 5.86003412959345
68.8 31.0936 5.57616355570745
68.85 22.7808 4.77292363232432
68.9 23.778 4.87626906558693
68.95 27.1934 5.21472913965817
69 40.1503 6.33642643766974
69.05 39.2177 6.26240369187423
69.1 29.2149 5.40508094296468
69.15 19.8343 4.45357160041242
69.2 22.3496 4.72753635628538
69.25 29.3671 5.41914199850862
69.3 33.5951 5.79612801790989
69.35 34.7911 5.89839808761667
69.4 34.4323 5.86790422553061
69.45 32.2934 5.68272821803049
69.5 22.0362 4.69427310666944
69.55 39.0088 6.245702522535
69.6 34.9458 5.91149727226529
69.65 36.4179 6.03472451732471
69.7 31.792 5.63843950042917
69.75 25.412 5.04103164044821
69.8 26.3511 5.13333225108214
69.85 34.9698 5.9135268664309
69.9 34.4616 5.87040032706459
69.95 33.5315 5.79063899755459
70 23.7656 4.87499743589676
70.05 37.1546 6.09545732492649
70.1 28.4014 5.32929638883033
70.15 27.0862 5.20444041180221
70.2 32.5499 5.70525196639027
70.25 30.0771 5.48425929365124
70.3 27.8764 5.2798106026637
70.35 28.3765 5.32695973328126
70.4 25.9228 5.09144380308769
70.45 30.1307 5.48914383123634
70.5 26.4985 5.1476693755524
70.55 26.522 5.14995145608189
70.6 29.8555 5.46401866761086
70.65 26.4111 5.13917308523463
70.7 34.4922 5.87300604460782
70.75 33.4925 5.78727051380873
70.8 25.8902 5.08824134647719
70.85 26.6116 5.15864323247887
70.9 20.3063 4.50625121359207
70.95 26.8388 5.18061772378546
71 26.5893 5.15648135844589
71.05 30.1253 5.48865192920812
71.1 36.6164 6.05114865128927
71.15 38.614 6.21401641452612
71.2 24.3532 4.93489614885663
71.25 26.4842 5.14628021001577
71.3 29.491 5.43056166524237
71.35 24.5377 4.95355427950477
71.4 25.2413 5.02407205362343
71.45 23.6242 4.86047322798923
71.5 25.9276 5.09191516033015
71.55 29.55 5.43599116997075
71.6 31.8424 5.64290705222051
71.65 36.8671 6.07182839019681
71.7 30.4799 5.52086044018503
71.75 34.8286 5.90157606068074
71.8 33.8504 5.81810965864343
71.85 30.2497 5.49997272720511
71.9 18.3247 4.28073591804026
71.95 25.1451 5.014489006868
72 24.5693 4.95674288217575
72.05 33.7637 5.81065400794093
72.1 34.9124 5.90867159351406
72.15 27.5239 5.2463225215383
72.2 32.8609 5.73244276028989
72.25 20.096 4.48285623235901
72.3 28.0578 5.29696139310077
72.35 22.134 4.70467852249226
72.4 30.7525 5.54549366603191
72.45 30.5466 5.52689786408253
72.5 29.9378 5.47154457169089
72.55 28.6909 5.35638870882239
72.6 28.0295 5.29428937629971
72.65 31.8984 5.64786685395469
72.7 35.1522 5.9289290769919
72.75 33.927 5.82468883289056
72.8 35.2966 5.94109417531821
72.85 32.795 5.72669188973879
72.9 37.1849 6.09794227588291
72.95 28.2584 5.31586305316456
73 32.1942 5.67399330278068
73.05 31.6882 5.62922730043831
73.1 26.6807 5.16533638788414
73.15 34.0966 5.83922940121383
73.2 32.6408 5.71321275640948
73.25 37.3697 6.11307614871596
73.3 28.5436 5.34262107958257
73.35 31.5039 5.61283350902198
73.4 25.3075 5.03065602083863
73.45 29.7824 5.45732535222154
73.5 37.4717 6.12141323552005
73.55 32.8707 5.73329748050805
73.6 25.8975 5.08895863610621
73.65 32.2801 5.6815578849467
73.7 30.759 5.54607969650635
73.75 32.9912 5.74379665378224
73.8 39.1482 6.25685224374046
73.85 31.476 5.61034758281517
73.9 27.9186 5.2838054468347
73.95 27.5089 5.24489275390832
74 22.17 4.70850294679742
74.05 25.481 5.0478708382842
74.1 23.8764 4.88634832978575
74.15 26.0438 5.10331264964239
74.2 31.864 5.64482063488292
74.25 29.7933 5.45832391856694
74.3 30.1179 5.48797776963428
74.35 30.5336 5.5257216723248
74.4 27.8262 5.27505450208811
74.45 24.9988 4.99987999855997
74.5 34.8327 5.90192341529437
74.55 36.6574 6.05453549002729
74.6 24.4083 4.94047568559952
74.65 42.3221 6.50554378972273
74.7 31.8629 5.64472319959092
74.75 26.5337 5.15108726386964
74.8 17.6964 4.20670892741582
74.85 33.1714 5.75946178040969
74.9 29.4827 5.42979741795217
74.95 33.0591 5.74970434022481
75 25.7492 5.0743669555916
75.05 23.2727 4.82417868657453
75.1 39.5966 6.29258293548842
75.15 28.7815 5.36483923337876
75.2 38.6127 6.21391181141155
75.25 27.6489 5.25822213300275
75.3 21.2795 4.61297084317688
75.35 29.3067 5.41356629219593
75.4 30.4609 5.51913942567136
75.45 25.3159 5.0314908327453
75.5 36.3741 6.03109442804538
75.55 36.9649 6.07987664348546
75.6 29.0073 5.38584255247032
75.65 23.0896 4.80516388898443
75.7 24.1046 4.9096435715844
75.75 24.9946 4.99945997083685
75.8 33.8562 5.81860808097607
75.85 34.5579 5.87859677133923
75.9 38.3091 6.18943454606315
75.95 29.339 5.41654871666451
76 29.7583 5.45511686400942
76.05 26.4374 5.14173122595882
76.1 29.8073 5.45960621290584
76.15 35.0937 5.92399358541179
76.2 33.1754 5.75980902461184
76.25 23.6934 4.86758667103114
76.3 27.7044 5.26349693644824
76.35 35.1919 5.9322761230408
76.4 31.2959 5.59427385815174
76.45 25.7723 5.07664259131958
76.5 24.4918 4.94891907389886
76.55 28.2011 5.31047078892258
76.6 33.6364 5.79968964686905
76.65 35.0458 5.91994932410743
76.7 27.5208 5.24602706817264
76.75 25.8209 5.0814269649381
76.8 33.9092 5.82316065380305
76.85 22.8391 4.77902709764236
76.9 22.2033 4.71203777573992
76.95 23.7185 4.87016426827679
77 23.6096 4.85897108449927
77.05 21.1062 4.59414845210731
77.1 27.5137 5.24535032195181
77.15 29.1277 5.39700843060301
77.2 33.6644 5.80210306699218
77.25 24.4314 4.94281296429472
77.3 25.8579 5.08506637124827
77.35 29.1229 5.39656372148055
77.4 26.1967 5.11827119250241
77.45 29.6874 5.44861450278876
77.5 33.5148 5.7891968354859
77.55 28.4131 5.33039398168653
77.6 23.0613 4.80221823743986
77.65 16.7403 4.09149117071026
77.7 26.6324 5.16065887266345
77.75 39.1682 6.25845028741141
77.8 27.55 5.24880938880428
77.85 29.5726 5.43806951040532
77.9 29.2624 5.40947317213054
77.95 28.284 5.31827039553274
78 29.6901 5.44886226656538
78.05 30.7493 5.54520513597108
78.1 32.434 5.69508560076141
78.15 25.7791 5.07731228111882
78.2 28.467 5.33544749763316
78.25 24.0621 4.90531344564239
78.3 24.5743 4.95724721998006
78.35 30.9411 5.562472471842
78.4 28.4336 5.33231656974715
78.45 24.7524 4.97517838876155
78.5 31.5448 5.61647576332347
78.55 31.145 5.58077055611499
78.6 28.9138 5.37715538179808
78.65 28.9656 5.38196989958138
78.7 31.5003 5.61251280622147
78.75 23.2805 4.82498704661474
78.8 33.993 5.83035161889916
78.85 34.2957 5.85625306830229
78.9 38.6198 6.21448308389362
78.95 23.0598 4.80206205707506
79 32.5388 5.70427909555625
79.05 29.9064 5.46867442804927
79.1 19.7132 4.43995495472646
79.15 25.6103 5.06066201202965
79.2 24.848 4.9847768254958
79.25 28.6356 5.35122415901259
79.3 30.734 5.54382539407583
79.35 32.7675 5.72429034903017
79.4 37.1285 6.0933160101869
79.45 29.537 5.434795304333
79.5 25.0901 5.00900189658579
79.55 39.2385 6.26406417591646
79.6 31.0931 5.57611872183511
79.65 28.4564 5.33445404891635
79.7 29.9053 5.46857385430607
79.75 32.2078 5.67519162672063
79.8 23.7629 4.87472050480846
79.85 31.4927 5.61183570678971
79.9 25.6387 5.06346719155955
79.95 40.5422 6.36727571257912
80 26.8413 5.18085900213468
80.05 22.7455 4.76922425557868
80.1 30.4129 5.51478920721364
80.15 24.9388 4.99387624996856
80.2 24.3861 4.93822842728037
80.25 22.9927 4.79507038530197
80.3 30.7887 5.54875661747747
80.35 26.4898 5.14682426356292
80.4 38.7109 6.22180841877987
80.45 21.4535 4.63179230967884
80.5 27.0335 5.19937496243539
80.55 39.3368 6.27190561153466
80.6 41.1676 6.41619825130116
80.65 29.0845 5.39300472834949
80.7 24.3848 4.93809679937524
80.75 25.1725 5.01722034596847
80.8 23.3962 4.83696185637224
80.85 36.6726 6.05579061725222
80.9 32.4584 5.69722739584791
80.95 34.427 5.86745259887117
81 28.8769 5.37372310414297
81.05 27.0823 5.20406571826298
81.1 26.4852 5.14637736665317
81.15 25.5895 5.05860652749352
81.2 31.7581 5.6354325477287
81.25 24.8356 4.98353288340711
81.3 31.0266 5.57015260114119
81.35 27.464 5.2406106514413
81.4 38.2997 6.18867514093283
81.45 35.3726 5.94748686421416
81.5 21.0823 4.59154658040186
81.55 28.4724 5.33595352303597
81.6 36.0237 6.00197467505487
81.65 30.0884 5.48528941807085
81.7 30.1811 5.49373279291958
81.75 35.0079 5.91674741728933
81.8 41.5676 6.44729400601524
81.85 31.5584 5.61768635649944
81.9 59.1588 7.69147580117106
81.95 80.9349 8.99638260635907
82 125.7531 11.2139689673193
82.05 201.3371 14.1893304986529
82.1 272.9218 16.5203450327165
82.15 290.0101 17.0296829095553
82.2 228.4934 15.115998147658
82.25 115.9009 10.7657280292603
82.3 81.8352 9.04628100381588
82.35 56.6358 7.52567604936593
82.4 42.0618 6.48550691927778
82.45 37.106 6.09146944505183
82.5 32.2949 5.68286019535938
82.55 36.3754 6.03120220188314
82.6 42.1452 6.49193345622088
82.65 28.3212 5.3217666239699
82.7 34.9018 5.90777453869052
82.75 32.8197 5.72884805174653
82.8 22.8048 4.77543715276413
82.85 33.462 5.78463481993462
82.9 23.3978 4.83712724662066
82.95 33.4151 5.78057955571931
83 27.9084 5.28284014522491
83.05 23.8893 4.88766815567506
83.1 27.1283 5.20848346450289
83.15 37.0245 6.084776084623
83.2 31.3796 5.60174972664792
83.25 38.3221 6.19048463369388
83.3 27.8523 5.27752783033875
83.35 21.5503 4.64223006754297
83.4 22.7304 4.76764092607654
83.45 36.6339 6.05259448501219
83.5 30.6654 5.53763487420397
83.55 27.616 5.2550927679728
83.6 24.9472 4.99471720921215
83.65 29.1409 5.39823119178866
83.7 26.4912 5.14696026796399
83.75 31.2018 5.58585714103037
83.8 20.3905 4.51558412611259
83.85 25.9495 5.09406517429842
83.9 35.5264 5.96040267096108
83.95 26.0225 5.10122534299358
84 31.9261 5.65031857508937
84.05 28.9783 5.38314963566869
84.1 28.1164 5.30248998113151
84.15 37.4911 6.12299763187934
84.2 27.9047 5.28248994319913
84.25 35.8338 5.98613397778566
84.3 27.528 5.24671325688759
84.35 35.6899 5.97410244304532
84.4 26.0067 5.09967646032569
84.45 26.8285 5.1796235384437
84.5 36.6573 6.05452723174981
84.55 31.5955 5.62098745773374
84.6 36.4477 6.03719305637976
84.65 18.9257 4.35036780054285
84.7 39.1499 6.25698809332414
84.75 22.9137 4.7868256705253
84.8 39.3489 6.27287015647542
84.85 33.0331 5.74744290967731
84.9 25.8977 5.08897828645397
84.95 18.9295 4.35080452330371
85 29.2277 5.40626488437257
85.05 27.9025 5.28228170396089
85.1 25.8667 5.08593157641744
85.15 33.0877 5.75219088695777
85.2 29.446 5.42641686566744
85.25 29.6791 5.44785278802576
85.3 21.3994 4.62594855137841
85.35 26.6558 5.16292552725681
85.4 30.8983 5.55862393043458
85.45 21.803 4.66936826562223
85.5 27.2952 5.2244808354515
85.55 31.3216 5.59657037836566
85.6 37.3377 6.11045824795489
85.65 29.6665 5.44669624634971
85.7 31.5125 5.61359955821574
85.75 23.1331 4.80968813957828
85.8 35.1836 5.9315765189366
85.85 32.0507 5.66133376511225
85.9 33.9229 5.82433687212544
85.95 27.6168 5.25516888406072
86 30.1984 5.49530708878039
86.05 38.6335 6.21558524999859
86.1 29.0438 5.38923000065872
86.15 38.3576 6.1933512737451
86.2 27.3519 5.22990439683174
86.25 21.3121 4.61650300552269
86.3 27.2174 5.217029806317
86.35 28.9234 5.37804797301028
86.4 22.895 4.7848719941081
86.45 28.8922 5.37514650963116
86.5 22.88 4.78330429724056
86.55 34.8545 5.90376998196915
86.6 39.2595 6.26574017973934
86.65 23.9044 4.88921261554455
86.7 29.6679 5.4468247631074
86.75 41.6438 6.45320075621393
86.8 33.3404 5.7741146507495
86.85 27.8867 5.28078592635604
86.9 32.1615 5.67111100226402
86.95 32.8499 5.73148322862416
87 22.8166 4.77667248196901
87.05 28.6601 5.35351286539969
87.1 24.6814 4.96803784204589
87.15 26.6025 5.15776114220114
87.2 32.6764 5.7163274923678
87.25 29.9711 5.47458674239435
87.3 30.0376 5.48065689493513
87.35 32.831 5.72983420353504
87.4 30.1787 5.49351435785873
87.45 32.5293 5.70344632656432
87.5 28.9088 5.3766904318549
87.55 25.066 5.00659564974045
87.6 28.1342 5.3041681722962
87.65 34.3306 5.85923203158912
87.7 32.6755 5.71624876995395
87.75 28.2063 5.31096036513171
87.8 28.2439 5.31449903565708
87.85 33.4079 5.77995674724301
87.9 25.1257 5.01255423910804
87.95 33.7044 5.80554906964018
88 38.4745 6.20278163407354
88.05 28.8775 5.3737789310689
88.1 32.5916 5.70890532414052
88.15 23.9138 4.89017382104154
88.2 29.2334 5.4067920248517
88.25 30.7421 5.54455588843687
88.3 16.9411 4.11595675390303
88.35 39.8475 6.31248762375024
88.4 29.0364 5.38854340244189
88.45 32.2394 5.67797499113901
88.5 35.0021 5.91625726283095
88.55 21.6807 4.6562538590588
88.6 32.9028 5.73609623350236
88.65 21.6855 4.65676926634765
88.7 35.5216 5.96
88.75 27.2261 5.21786354746845
88.8 28.9834 5.38362331520325
88.85 40.9778 6.40139047395173
88.9 28.2339 5.31355812991634
88.95 27.1072 5.206457528877
89 29.1042 5.39483085925778
89.05 27.4345 5.23779533773514
89.1 30.3772 5.51155150570146
89.15 30.9529 5.56353305013999
89.2 26.1232 5.11108599027643
89.25 29.8692 5.46527217986442
89.3 31.7141 5.63152732391489
89.35 32.3612 5.68869053473644
89.4 39.5375 6.28788517706868
89.45 29.6782 5.4477701860486
89.5 25.0268 5.00267928214472
89.55 26.226 5.12113268720895
89.6 38.163 6.17762090128554
89.65 34.2386 5.85137590657104
89.7 30.3437 5.50851159570351
89.75 30.2211 5.49737209946716
89.8 21.6144 4.64912895067452
89.85 26.0658 5.10546765732582
89.9 29.6976 5.44955044017394
89.95 31.9983 5.65670398730568
90 25.1133 5.01131719211626
90.05 39.3035 6.26925035390995
90.1 33.1481 5.75743866662946
90.15 33.348 5.77477272280044
90.2 18.1046 4.25495005846132
90.25 23.0433 4.80034373769212
90.3 26.3932 5.137431264747
90.35 30.5716 5.52915906806813
90.4 25.2718 5.02710652363763
90.45 34.2709 5.85413529054463
90.5 24.3 4.9295030175465
90.55 32.6726 5.71599510146746
90.6 31.0285 5.57032315041058
90.65 30.6299 5.53442860645975
90.7 28.2824 5.31811996856032
90.75 41.6055 6.45023255394718
90.8 33.2273 5.76431262164016
90.85 26.5924 5.15678194225818
90.9 42.1154 6.48963789436668
90.95 27.185 5.21392366649148
91 19.8277 4.4528305604413
91.05 27.5497 5.24878081081693
91.1 32.4 5.69209978830308
91.15 32.2343 5.677525869602
91.2 35.6505 5.97080396596639
91.25 39.8455 6.31232920561024
91.3 25.3055 5.03045723567948
91.35 25.8826 5.08749447174147
91.4 35.4364 5.95284805786272
91.45 30.8476 5.55406157690028
91.5 30.2833 5.50302644006005
91.55 20.6298 4.54200396301016
91.6 29.1618 5.40016666409473
91.65 29.4809 5.42963166338196
91.7 31.2338 5.58872078386459
91.75 28.3833 5.32759795780425
91.8 27.0281 5.19885564331229
91.85 20.3496 4.51105309212827
91.9 27.543 5.24814252855236
91.95 27.2605 5.22115887519236
92 30.6869 5.53957579603348
92.05 35.6652 5.97203482910138
92.1 29.0379 5.38868258482535
92.15 23.6908 4.86731959090422
92.2 28.3805 5.32733516873117
92.25 29.036 5.38850628653247
92.3 35.5916 5.96586959294284
92.35 28.752 5.36208914510007
92.4 28.6815 5.35551118008356
92.45 27.9669 5.28837404123422
92.5 36.0393 6.00327410668545
92.55 24.8486 4.98483700836848
92.6 32.0705 5.66308219965065
92.65 23.603 4.85829188089806
92.7 28.9185 5.37759239809043
92.75 28.4998 5.33852039426656
92.8 23.3513 4.83231828421928
92.85 29.5013 5.43150991898201
92.9 30.1001 5.48635580326322
92.95 35.0862 5.92336053267062
93 27.1896 5.21436477435171
93.05 35.2035 5.93325374478456
93.1 30.6276 5.53422081236374
93.15 36.7706 6.06387664782192
93.2 28.5533 5.34352879659126
93.25 28.0802 5.29907539104701
93.3 35.1962 5.93263853609842
93.35 30.5692 5.52894203261347
93.4 31.7742 5.63686082851085
93.45 31.4674 5.60958108952888
93.5 29.2062 5.40427608473142
93.55 24.8247 4.98243916169581
93.6 26.4289 5.14090458966124
93.65 23.3329 4.83041406092687
93.7 26.1126 5.11004892344486
93.75 21.7254 4.66105138353998
93.8 26.4467 5.1426355110974
93.85 29.1616 5.40014814611599
93.9 18.6514 4.31872666419166
93.95 22.1553 4.70694168223912
94 22.2347 4.71536849037273
94.05 31.9536 5.65275154239066
94.1 33.7966 5.81348432525624
94.15 32.6424 5.71335278098596
94.2 10.7776 3.28292552458931
94.25 23.3241 4.82950308002801
94.3 29.0883 5.39335702508187
94.35 24.5275 4.9525246087223
94.4 31.7447 5.63424351621404
94.45 30.2444 5.4994908855275
94.5 20.8884 4.57038291612421
94.55 31.2994 5.59458666927236
94.6 27.9483 5.28661517419227
94.65 26.7439 5.17145047351321
94.7 20.1682 4.49090191386986
94.75 36.5514 6.04577538451438
94.8 28.615 5.34929901949779
94.85 34.912 5.90863774486133
94.9 35.65 5.97076209541127
94.95 31.3487 5.59899098052497
95 33.084 5.7518692613793
95.05 26.1786 5.116502711814
95.1 26.9811 5.19433345098291
95.15 37.5457 6.127454610195
95.2 15.2935 3.910690476118
95.25 27.0564 5.20157668404494
95.3 22.3637 4.72902738414571
95.35 27.3966 5.23417615293945
95.4 26.7912 5.17602163828553
95.45 35.4195 5.95142839997256
95.5 31.049 5.57216295526253
95.55 31.3759 5.60141946295758
95.6 42.2209 6.49776115288951
95.65 26.9932 5.19549805119779
95.7 33.8053 5.81423253748936
95.75 31.1653 5.58258900511223
95.8 34.0004 5.83098619446145
95.85 27.2408 5.21927197988378
95.9 27.1328 5.2089154341379
95.95 22.8034 4.77529056707547
96 29.9986 5.47709777163052
96.05 27.5256 5.2464845372878
96.1 36.0953 6.00793641777275
96.15 27.8521 5.27750888203895
96.2 40.111 6.33332456139743
96.25 36.6665 6.05528694613228
96.3 26.6931 5.16653655750155
96.35 33.6237 5.79859465732862
96.4 25.7229 5.07177483727344
96.45 33.9574 5.82729783004095
96.5 39.4341 6.27965763397974
96.55 23.492 4.84685465018294
96.6 28.0522 5.29643276177466
96.65 23.5119 4.84890709335619
96.7 24.5518 4.95497729560893
96.75 35.0106 5.91697557879023
96.8 25.5393 5.05364225089192
96.85 26.2309 5.12161107465219
96.9 30.1479 5.49071033655938
96.95 24.8242 4.98238898521583
97 27.28 5.22302594288024
97.05 36.8215 6.06807218150872
97.1 33.479 5.78610404330928
97.15 29.3382 5.41647486839919
97.2 23.9933 4.89829562194852
97.25 23.8954 4.88829213529633
97.3 20.8169 4.56255410926819
97.35 28.3133 5.32102433747488
97.4 30.7852 5.5484412225417
97.45 33.71 5.80603134679791
97.5 40.3987 6.35599716802958
97.55 29.2908 5.41209756009627
97.6 30.0829 5.48478805424603
97.65 33.8858 5.82115108891704
97.7 31.9837 5.655413335911
97.75 31.3083 5.59538202449127
97.8 33.029 5.74708621825008
97.85 28.0556 5.29675372280041
97.9 26.6641 5.16372927253163
97.95 31.5085 5.61324326926956
98 26.0596 5.10486042904211
98.05 33.0411 5.74813882922116
98.1 31.3709 5.6009731297338
98.15 26.9546 5.19178196768701
98.2 21.0466 4.58765735424955
98.25 31.1284 5.57928310807043
98.3 39.8646 6.31384193657079
98.35 27.6265 5.25609170391842
98.4 42.5923 6.52627765268993
98.45 63.1325 7.9455962645984
98.5 53.5052 7.31472487520891
98.55 91.1127 9.54529727143162
98.6 125.566 11.2056235881811
98.65 162.3478 12.7415776103275
98.7 167.6446 12.9477642857754
98.75 119.9992 10.9544146352053
98.8 80.1332 8.95171491950006
98.85 62.4565 7.90294248998435
98.9 57.2333 7.56526932765781
98.95 42.4041 6.51184305707685
99 36.4898 6.04067876980725
99.05 35.5474 5.96216403665649
99.1 28.6489 5.35246672105488
99.15 31.8868 5.64683982418485
99.2 28.4925 5.33783664043777
99.25 28.4476 5.33362915846237
99.3 26.6716 5.16445544079916
99.35 31.8549 5.64401452868435
99.4 25.2152 5.02147388721678
99.45 21.7185 4.66031114841059
99.5 29.1969 5.40341558646011
99.55 35.8804 5.99002504168388
99.6 32.5827 5.70812578698122
99.65 35.79 5.98247440445841
99.7 41.6088 6.45048835360549
99.75 23.8862 4.88735102074733
99.8 31.8469 5.64330576878482
99.85 26.1777 5.1164147603571
99.9 25.569 5.05657987181059
99.95 40.8276 6.38964787762205
100 33.3382 5.77392414221039
100.05 27.3328 5.22807804073352
100.1 33.3231 5.77261639120425
100.15 37.2203 6.10084420387867
100.2 30.9277 5.56126784105927
100.25 36.6431 6.05335444196026
100.3 33.0989 5.75316434668783
100.35 25.4304 5.04285633346817
100.4 33.3918 5.77856383541793
100.45 27.5131 5.24529312812926
100.5 36.989 6.08185826865441
100.55 27.988 5.29036860719553
100.6 28.5961 5.34753214109088
100.65 27.8422 5.2765708561527
100.7 26.5764 5.15523035372814
100.75 23.5716 4.85505921694061
100.8 31.1095 5.57758908490039
100.85 35.8481 5.98732828563793
100.9 26.2116 5.11972655519804
100.95 29.2889 5.41192202456761
101 36.4682 6.03889062659691
101.05 24.7089 4.97080476381843
101.1 32.3988 5.69199437807171
101.15 30.9538 5.56361393340695
101.2 28.4113 5.33022513595814
101.25 22.5347 4.74707278225224
101.3 35.3141 5.94256678548925
101.35 35.4485 5.95386429136573
101.4 29.911 5.4690949891184
101.45 24.1322 4.91245356212148
101.5 37.9833 6.16305930524768
101.55 30.44 5.51724568965349
101.6 35.3052 5.94181790363858
101.65 24.6459 4.96446371726091
101.7 29.9688 5.47437667684642
101.75 36.3174 6.02639195539089
101.8 20.5382 4.53190908999728
101.85 30.3793 5.51174201137898
101.9 28.5719 5.3452689361715
101.95 34.0666 5.83666000380355
102 28.6424 5.35185948993432
102.05 28.3518 5.32464083295766
102.1 32.919 5.73750816992882
102.15 28.0351 5.29481822162008
102.2 25.2501 5.0249477609225
102.25 26.5138 5.14915527052739
102.3 28.8091 5.36741092147788
102.35 30.2142 5.49674449106014
102.4 28.4446 5.33334791664673
102.45 29.3133 5.41417583755829
102.5 30.105 5.48680234745156
102.55 23.5209 4.84983504874135
102.6 31.2134 5.58689538115759
102.65 28.6144 5.34924293708932
102.7 32.9143 5.73709856983476
102.75 28.511 5.33956927101803
102.8 24.3569 4.93527101586124
102.85 24.2163 4.92100599471287
102.9 27.4712 5.24129754927155
102.95 35.0067 5.91664600935361
103 24.133 4.91253498715276
103.05 26.7605 5.17305519011734
103.1 34.7819 5.8976181632927
103.15 36.999 6.08268033024916
103.2 29.6338 5.44369359901896
103.25 28.6998 5.35721942802421
103.3 31.6295 5.62401102417127
103.35 31.0552 5.57271926441661
103.4 28.6465 5.35224252066365
103.45 34.5375 5.87686140724792
103.5 36.5434 6.04511372928583
103.55 29.0084 5.38594467108603
103.6 26.4439 5.14236326993728
103.65 33.9435 5.82610504539697
103.7 27.0234 5.19840360110679
103.75 32.0914 5.66492718399804
103.8 31.6822 5.62869434238528
103.85 20.1524 4.48914245708465
103.9 39.2962 6.26866812010334
103.95 27.6145 5.25495004733632
104 22.4968 4.7430791686414
104.05 25.7698 5.07639635962363
104.1 30.484 5.52123174663046
104.15 23.0918 4.80539280392353
104.2 25.1521 5.01518693569841
104.25 38.47 6.20241888298428
104.3 32.7419 5.72205382707992
104.35 27.1274 5.20839706627673
104.4 27.0946 5.20524735243197
104.45 29.336 5.41627178047779
104.5 32.2853 5.68201548748329
104.55 27.3731 5.23193080994005
104.6 35.0044 5.91645163928515
104.65 33.6283 5.79899129159546
104.7 26.8915 5.18570149545845
104.75 22.3162 4.72400254021947
104.8 33.0134 5.74572884845778
104.85 34.4845 5.87235046638056
104.9 33.4021 5.77945499160604
104.95 31.7736 5.63680760714786
105 38.5513 6.20896931865507
105.05 38.8448 6.23255966678218
105.1 31.3453 5.59868734615535
105.15 46.901 6.84843047712394
105.2 30.2521 5.50019090577773
105.25 27.0555 5.2014901710952
105.3 27.2014 5.21549614130813
105.35 37.2661 6.10459662877081
105.4 20.6294 4.5419599293697
105.45 30.4425 5.51747224732486
105.5 35.8572 5.98808817570349
105.55 33.897 5.82211301848392
105.6 38.6287 6.21519911185474
105.65 28.5333 5.34165704627319
105.7 36.0289 6.00240785018812
105.75 32.9534 5.74050520424814
105.8 30.4054 5.51410917556045
105.85 26.0733 5.10620211115855
105.9 32.8631 5.7326346473502
105.95 29.5234 5.4335439631975
106 31.7938 5.63859911680197
106.05 30.7298 5.54344658132465
106.1 32.7249 5.72056815360153
106.15 25.8185 5.08119080531326
106.2 26.3408 5.13232890606204
106.25 29.7778 5.45690388407199
106.3 29.9377 5.47153543349579
106.35 26.8295 5.17972006965627
106.4 29.6797 5.44790785531474
106.45 33.1362 5.75640512820284
106.5 35.7893 5.98241589995212
106.55 28.4438 5.33327291632446
106.6 28.8709 5.37316480298157
106.65 26.5158 5.14934947347721
106.7 26.4388 5.14186736507273
106.75 29.8706 5.46540025981629
106.8 33.8466 5.81778308292772
106.85 24.4944 4.94918175055231
106.9 21.9048 4.68025640323263
106.95 26.5506 5.15272743311734
107 24.9629 4.99628862256776
107.05 33.6854 5.80391247349579
107.1 21.8956 4.67927344787628
107.15 25.8335 5.08266662294509
107.2 36.6344 6.05263578947222
107.25 32.1564 5.67066133709288
107.3 28.3505 5.32451875759678
107.35 40.6491 6.37566467123233
107.4 29.0669 5.3913727379954
107.45 19.022 4.36142178652787
107.5 37.1313 6.09354576580828
107.55 24.0285 4.90188739160744
107.6 23.9493 4.8938022027867
107.65 18.8693 4.34388075342775
107.7 30.3858 5.51233163008177
107.75 27.0123 5.19733585599391
107.8 35.0013 5.91618965213253
107.85 44.9055 6.70115661658493
107.9 24.2828 4.9277581109466
107.95 40.438 6.35908798492362
108 32.9745 5.74234272749372
108.05 28.5184 5.34026216584916
108.1 42.2013 6.49625276601827
108.15 40.3378 6.35120461015074
108.2 25.4342 5.04323308999297
108.25 37.1387 6.09415293539635
108.3 24.7094 4.9708550572311
108.35 21.3942 4.62538647033953
108.4 26.0256 5.10152918250989
108.45 28.6867 5.35599663928199
108.5 25.7006 5.06957591914748
108.55 21.3213 4.6174993232268
108.6 29.1942 5.40316573871281
108.65 35.6426 5.97014237686171
108.7 34.5323 5.87641897757469
108.75 34.6467 5.88614474847502
108.8 28.4721 5.33592541177254
108.85 32.6278 5.71207492948053
108.9 34.7581 5.89560005427777
108.95 35.2337 5.93579817716202
109 32.1858 5.67325303507608
109.05 29.3582 5.4183207730809
109.1 35.5235 5.96015939384174
109.15 27.1686 5.21235071728678
109.2 23.6572 4.86386677449126
109.25 27.6425 5.2576135270672
109.3 28.3587 5.32528872456696
109.35 21.7229 4.66078319598756
109.4 20.7581 4.55610579332833
109.45 23.2442 4.82122391100019
109.5 24.1788 4.91719432196858
109.55 30.5744 5.52941226533164
109.6 41.6796 6.45597397764272
109.65 31.1915 5.58493509362463
109.7 38.2635 6.18574975245524
109.75 34.1513 5.84391136140856
109.8 28.7562 5.36248076919629
109.85 31.878 5.64606057353266
109.9 21.5876 4.64624579633923
109.95 32.6157 5.71101567148962
110 20.734 4.55346022273172
110.05 28.0107 5.29251358052107
110.1 30.2035 5.49577110149249
110.15 29.5798 5.4387314697455
110.2 35.3038 5.94170009340761
110.25 32.2178 5.67607258586428
110.3 29.1102 5.39538691847026
110.35 28.6974 5.35699542654276
110.4 28.6501 5.35257881772889
110.45 31.0126 5.56889576127979
110.5 27.7622 5.26898472193648
110.55 27.5605 5.24980952035405
110.6 26.1067 5.1094715969462
110.65 26.2638 5.12482194812659
110.7 31.9206 5.64983185590509
110.75 23.8921 4.88795458244039
110.8 20.317 4.50743829685998
110.85 28.5491 5.34313578341408
110.9 30.6601 5.53715630987604
110.95 30.3562 5.50964608663751
111 39.755 6.30515661978352
111.05 32.5764 5.70757391542151
111.1 36.5822 6.048322081371
111.15 32.7535 5.72306735937993
111.2 31.1302 5.5794444167856
111.25 30.5688 5.5289058592094
111.3 28.2545 5.31549621390139
111.35 27.5743 5.2511236892688
111.4 30.2108 5.49643520838734
111.45 25.0764 5.00763417194188
111.5 20.4026 4.51692373192198
111.55 32.1485 5.66996472652167
111.6 28.6173 5.34951399661689
111.65 24.1248 4.91170031659099
111.7 26.343 5.13254322923831
111.75 34.0476 5.83503213358761
111.8 38.8817 6.23551922457144
111.85 29.5332 5.43444569390476
111.9 26.7756 5.17451446997687
111.95 17.8362 4.22329255439402
112 28.0956 5.30052827555896
112.05 33.3948 5.77882340965702
112.1 34.5133 5.87480212432725
112.15 33.7953 5.81337251515848
112.2 30.5019 5.52285252383223
112.25 30.0772 5.48426841064512
112.3 33.8506 5.81812684633121
112.35 30.244 5.49945451840453
112.4 24.341 4.93365989910127
112.45 31.9063 5.64856618975117
112.5 29.8003 5.45896510338727
112.55 32.3489 5.68760933960834
112.6 28.4296 5.33194148505026
112.65 27.1779 5.21324275283628
112.7 29.0831 5.39287492901513
112.75 21.9597 4.68611779621469
112.8 26.0692 5.10580062282107
112.85 37.1654 6.09634316619398
112.9 26.9639 5.19267753668567
112.95 28.2065 5.31097919408465
113 31.6166 5.62286403890402
113.05 27.0373 5.19974037813428
113.1 22.3836 4.73113094301986
113.15 33.2183 5.76353190326904
113.2 28.6408 5.35171000709119
113.25 35.6167 5.96797285516615
113.3 32.3564 5.688268629381
113.35 28.1382 5.30454522084599
113.4 38.7049 6.22132622517096
113.45 26.4176 5.1398054437887
113.5 36.1205 6.01003327777809
113.55 40.4675 6.36140707705457
113.6 26.8196 5.17876433138254
113.65 27.807 5.27323430164069
113.7 29.6108 5.4415806527148
113.75 34.842 5.90271124145507
113.8 34.1136 5.84068489134622
113.85 29.0934 5.39382980821605
113.9 20.4178 4.51860597972428
113.95 32.896 5.73550346525917
114 31.5819 5.6197775756697
114.05 27.5008 5.24412051730316
114.1 33.706 5.80568686720185
114.15 26.4173 5.13977625972182
114.2 41.4622 6.43911484600174
114.25 26.3322 5.1314910113923
114.3 22.5062 4.74406998262041
114.35 25.4366 5.04347102698132
114.4 37.9699 6.16197208692152
114.45 25.2794 5.02786236884026
114.5 24.3301 4.93255511879999
114.55 26.6634 5.1636614916162
114.6 26.9404 5.1904142416574
114.65 32.252 5.67908443325154
114.7 25.1638 5.01635325709823
114.75 23.7745 4.87591017144492
114.8 17.7955 4.21847128708967
114.85 38.771 6.22663633111811
114.9 43.9933 6.63274452998154
114.95 31.6949 5.62982237730463
115 30.1918 5.49470654357446
115.05 27.9263 5.28453403811538
115.1 34.84 5.90254182534948
115.15 32.8342 5.73011343692252
115.2 34.8933 5.90705510385674
115.25 37.6745 6.1379556857312
115.3 34.4306 5.86775936793594
115.35 32.2844 5.68193628968154
115.4 34.4845 5.87235046638056
115.45 29.6453 5.44474976468157
115.5 41.6869 6.45653932071973
115.55 33.447 5.78333813640531
115.6 36.6056 6.05025619292274
115.65 33.3979 5.77909162412225
115.7 46.6648 6.83116388326323
115.75 73.2649 8.55949180734464
115.8 75.0004 8.66027713182436
115.85 68.3783 8.26911724430123
115.9 79.6012 8.92195045940068
115.95 104.8545 10.2398486316937
116 118.8264 10.900752267619
116.05 114.2421 10.6884096104145
116.1 92.6712 9.62658818065882
116.15 90.8858 9.53340442863933
116.2 84.6537 9.20074453509062
116.25 58.6954 7.6612923191848
116.3 44.8518 6.69714864699896
116.35 44.1382 6.64365863060407
116.4 37.9758 6.16245081116271
116.45 30.7737 5.54740479864233
116.5 44.2251 6.65019548584852
116.55 32.8099 5.72799266759307
116.6 48.3133 6.95077693499079
116.65 37.7372 6.14306112618131
116.7 32.9497 5.74018292391453
116.75 40.534 6.36663176255703
116.8 27.1784 5.21329070741312
116.85 40.9785 6.40144514933933
116.9 35.6762 5.97295571723079
116.95 21.3776 4.62359167747326
117 28.4952 5.33808954589561
117.05 38.1886 6.17969254898656
117.1 25.5728 5.05695560589571
117.15 30.2954 5.50412572530824
117.2 33.9992 5.83088329500771
117.25 38.7959 6.22863548459853
117.3 28.696 5.35686475468627
117.35 26.4865 5.14650366753974
117.4 23.5597 4.85383353649463
117.45 36.232 6.019302285149
117.5 27.6985 5.26293644270953
117.55 36.1241 6.01033276948956
117.6 31.1633 5.58240987388063
117.65 24.4867 4.94840378303954
117.7 33.6397 5.79997413787337
117.75 28.0725 5.29834879939024
117.8 32.1908 5.67369368224969
117.85 38.6934 6.22040191627519
117.9 28.046 5.29584742982651
117.95 25.936 5.09273993052856
118 37.2425 6.10266335299597
118.05 35.1619 5.92974704350869
118.1 36.9821 6.08129098136243
118.15 29 5.3851648071345
118.2 12.7811 3.57506643294918
118.25 24.2062 4.91997967475476
118.3 24.293 4.92879295568398
118.35 24.0327 4.90231577930268
118.4 33.1203 5.755023892218
118.45 30.4562 5.51871361822662
118.5 27.5864 5.25227569725733
118.55 25.1526 5.01523678404121
118.6 18.5628 4.30845680029404
118.65 19.108 4.37126983838793
118.7 29.0048 5.38561045750619
118.75 27.4097 5.23542739420575
118.8 28.7172 5.35884315874238
118.85 33.7729 5.81144560329011
118.9 38.1214 6.17425299125327
118.95 29.5586 5.43678213652157
119 29.1213 5.39641547696246
119.05 33.2163 5.76335839593548
119.1 41.17 6.41638527521532
119.15 32.4594 5.69731515715955
119.2 25.4239 5.04221181625683
119.25 29.4904 5.43050642205679
119.3 24.5329 4.95306975521242
119.35 29.0601 5.3907420639463
119.4 36.0027 6.00022499578141
119.45 26.9506 5.19139672920496
119.5 25.2263 5.02257901879104
119.55 36.16 6.01331855134916
119.6 30.069 5.48352076680667
119.65 30.9213 5.56069240292969
119.7 17.1068 4.13603675032029
119.75 21.9221 4.68210422780185
119.8 24.5859 4.95841708612739
119.85 22.6878 4.76317121254317
119.9 34.001 5.83103764350737
119.95 22.8291 4.77798074504283
120 23.8941 4.88815916271146
120.05 25.2256 5.02250933299282
120.1 34.0582 5.83594036981188
120.15 19.7318 4.44204907672124
120.2 27.7268 5.26562436943616
120.25 28.0838 5.29941506206109
120.3 32.9658 5.74158514697814
120.35 31.8399 5.64268553084433
120.4 34.5745 5.88000850339521
120.45 30.4047 5.51404570166044
120.5 28.0583 5.29700858976083
120.55 27.0504 5.20099990386464
120.6 29.868 5.46516239465947
120.65 26.7714 5.17410861888306
120.7 23.7959 4.87810413992977
120.75 25.9127 5.0904518463492
120.8 34.2955 5.8562359925126
120.85 17.703 4.20749331550271
120.9 28.3744 5.32676261907737
120.95 35.8506 5.98753705625276
121 33.4317 5.78201521962715
121.05 29.4589 5.42760536516796
121.1 25.0605 5.00604634417222
121.15 33.1832 5.76048609060034
121.2 31.6445 5.62534443389914
121.25 34.3045 5.85700435376311
121.3 18.0128 4.24414891350433
121.35 33.0851 5.75196488167304
121.4 37.3424 6.11084282239365
121.45 40.2439 6.34380800466092
121.5 33.8189 5.81540196375109
121.55 38.8073 6.22955054558513
121.6 30.5445 5.52670788082743
121.65 27.8157 5.27405915780246
121.7 36.4264 6.03542873373549
121.75 34.5238 5.87569570348908
121.8 24.2025 4.91960364257122
121.85 33.696 5.80482557877496
121.9 25.6565 5.06522457547541
121.95 18.1093 4.25550232052575
122 34.09 5.838664230798
122.05 28.2182 5.31208057167811
122.1 27.9882 5.29038750943634
122.15 30.4245 5.51584082438933
122.2 29.9253 5.47040217899927
122.25 27.392 5.23373671481476
122.3 25.439 5.04370895274499
122.35 36.7989 6.06620968974862
122.4 32.9072 5.73647975678464
122.45 50.9807 7.1400770303968
122.5 26.9048 5.1869837092476
122.55 26.1213 5.11090011641785
122.6 29.5446 5.43549445772875
122.65 28.6655 5.35401718338669
122.7 30.5386 5.52617408339622
122.75 29.6451 5.44473139833362
122.8 38.6575 6.21751558100179
122.85 35.7507 5.97918890820486
122.9 24.426 4.94226668645066
122.95 25.0442 5.00441804808511
123 35.2396 5.9362951409107
123.05 27.5029 5.24432073771237
123.1 33.005 5.74499782419454
123.15 27.3044 5.22536123153223
123.2 26.2069 5.11926752573061
123.25 30.759 5.54607969650635
123.3 21.2015 4.60450865999837
123.35 27.7073 5.26377241149349
123.4 32.3929 5.69147608270473
123.45 34.1854 5.84682819997304
123.5 24.6019 4.96003024184329
123.55 30.9274 5.56124086872705
123.6 28.9095 5.37675552726735
123.65 37.3715 6.11322337232985
123.7 34.2188 5.84968375213567
123.75 32.9475 5.739991289192
123.8 25.2962 5.02953278148179
123.85 36.439 6.03647247985113
123.9 39.8006 6.30877167125265
123.95 21.7855 4.66749397428642
124 34.985 5.91481191586005
124.05 34.9073 5.90824000866586
124.1 35.1481 5.92858330463527
124.15 29.3091 5.41378795299557
124.2 34.7649 5.89617672733781
124.25 33.6452 5.80044825854002
124.3 37.3742 6.11344420110301
124.35 27.099 5.20566998569829
124.4 30.7175 5.54233705218295
124.45 37.9119 6.15726400278565
124.5 28.7401 5.36097938813422
124.55 22.7125 4.76576331766486
124.6 23.1346 4.80984407231669
124.65 32.9639 5.74141968506048
124.7 27.3049 5.22540907489548
124.75 22.3022 4.72252051345465
124.8 27.7311 5.26603266226103
124.85 35.0492 5.92023648176321
124.9 31.1729 5.58326965137812
124.95 18.0045 4.24317098406369
125 22.7108 4.76558495884818
125.05 30.174 5.49308656403665
125.1 32.0807 5.66398269771369
125.15 28.447 5.33357291128564
125.2 25.3935 5.03919636450099
125.25 37.2941 6.10688955197325
125.3 31.3685 5.60075887715227
125.35 29.0255 5.38753190245775
125.4 25.9534 5.09444795831698
125.45 27.546 5.24842833617836
125.5 29.9226 5.47015539084586
125.55 25.538 5.05351362914953
125.6 37.219 6.10073766031617
125.65 36.1512 6.01258679771028
125.7 31.737 5.6335601532246
125.75 26.7959 5.17647563502428
125.8 39.3174 6.27035884140613
125.85 25.0092 5.00091991537557
125.9 31.7898 5.63824440761484
125.95 29.4233 5.42432484277998
126 27.0945 5.20523774673165
126.05 41.9846 6.47955245368073
126.1 37.857 6.15280423871912
126.15 27.6433 5.25768960666185
126.2 32.9618 5.74123680055091
126.25 27.9949 5.29102069548022
126.3 29.5218 5.43339672764653
126.35 29.0005 5.38521123076895
126.4 31.8544 5.64397023379819
126.45 27.4598 5.24020991945933
126.5 29.9569 5.4732896871991
126.55 28.3469 5.32418068814348
126.6 33.7523 5.80967296842086
126.65 28.539 5.34219056193244
126.7 21.907 4.6804914271901
126.75 29.6607 5.44616378747463
126.8 29.7127 5.45093569949234
126.85 32.6464 5.71370282741411
126.9 30.0451 5.48134107678039
126.95 28.2581 5.31583483565846
127 34.4638 5.87058770482138
127.05 32.6775 5.71642370717917
127.1 33.6222 5.79846531420168
127.15 30.0772 5.48426841064512
127.2 23.6675 4.86492548761027
127.25 43.2425 6.57590297981958
127.3 26.33 5.131276644267
127.35 29.5049 5.43184130843308
127.4 29.4776 5.42932776686028
127.45 33.0914 5.75251249455401
127.5 33.4123 5.78033736039688
127.55 33.1641 5.75882800576645
127.6 32.9134 5.73702013243809
127.65 35.3503 5.94561182722182
127.7 31.1683 5.58285769118289
127.75 33.7064 5.80572131608123
127.8 25.0524 5.00523725711379
127.85 23.4112 4.83851216801198
127.9 28.4937 5.33794904434278
127.95 23.3208 4.82916141788613
128 35.1636 5.92989038684527
128.05 47.5383 6.8948023902067
128.1 32.3725 5.68968364674171
128.15 26.303 5.12864504523368
128.2 28.7113 5.35829263851836
128.25 31.0633 5.57344597174854
128.3 21.5306 4.64010775736943
128.35 33.1584 5.75833309213699
128.4 47.1228 6.86460486845383
128.45 30.2619 5.50108171180905
128.5 47.63 6.90144912319145
128.55 38.8125 6.22996789718856
128.6 27.8225 5.27470378315219
128.65 26.5979 5.15731519300498
128.7 22.3036 4.72266873705959
128.75 37.3298 6.10981178106167
128.8 26.0879 5.10763154505099
128.85 32.4807 5.69918415213967
128.9 31.8976 5.64779603031129
128.95 29.0895 5.39346827190074
129 37.6278 6.13415030790736
129.05 26.1957 5.1181735023346
129.1 28.152 5.3058458326642
129.15 29.1738 5.40127762663613
129.2 34.7054 5.8911289240688
129.25 27.7309 5.26601367259904
129.3 43.58 6.6015149776396
129.35 40.3284 6.35046454993649
129.4 39.9977 6.3243734867574
129.45 23.7732 4.87577686117812
129.5 38.2417 6.18398738679179
129.55 36.3142 6.02612645071442
129.6 24.9126 4.9912523478582
129.65 28.7602 5.36285371793787
129.7 34.0529 5.8354862693695
129.75 31.5018 5.61264643461531
129.8 27.9486 5.28664354765857
129.85 30.554 5.52756727684069
129.9 31.5458 5.61656478641527
129.95 27.1725 5.21272481529574
130 27.6914 5.26226187109688
130 27.6914 5.26226187109688
