
#Surface 0 of 1 surfaces

#IsoCurve 0, 1801 points
#x y z type
 40  24.5352  0 i
 40.05  36.4874  0 i
 40.1  38.6125  0 i
 40.15  28.0716  0 i
 40.2  41.0463  0 i
 40.25  42.4861  0 i
 40.3  38.2264  0 i
 40.35  48.7182  0 i
 40.4  31.1715  0 i
 40.45  37.1906  0 i
 40.5  39.9501  0 i
 40.55  39.9877  0 i
 40.6  38.2762  0 i
 40.65  41.9794  0 i
 40.7  50.4556  0 i
 40.75  37.6241  0 i
 40.8  26.8761  0 i
 40.85  32.6827  0 i
 40.9  37.2231  0 i
 40.95  45.0364  0 i
 41  36.8861  0 i
 41.05  32.9962  0 i
 41.1  38.5916  0 i
 41.15  29.7197  0 i
 41.2  32.1859  0 i
 41.25  36.9086  0 i
 41.3  43.6549  0 i
 41.35  40.5931  0 i
 41.4  31.9836  0 i
 41.45  37.7144  0 i
 41.5  30.6537  0 i
 41.55  39.173  0 i
 41.6  43.0433  0 i
 41.65  39.63  0 i
 41.7  40.7633  0 i
 41.75  25.8908  0 i
 41.8  38.8361  0 i
 41.85  40.4462  0 i
 41.9  36.0976  0 i
 41.95  37.4309  0 i
 42  44.0595  0 i
 42.05  31.3983  0 i
 42.1  43.4125  0 i
 42.15  28.9685  0 i
 42.2  34.6107  0 i
 42.25  43.4921  0 i
 42.3  35.9761  0 i
 42.35  30.5934  0 i
 42.4  35.0934  0 i
 42.45  35.8927  0 i
 42.5  47.1783  0 i
 42.55  51.1438  0 i
 42.6  26.5552  0 i
 42.65  35.1824  0 i
 42.7  46.3211  0 i
 42.75  32.1689  0 i
 42.8  23.0303  0 i
 42.85  33.9488  0 i
 42.9  28.3589  0 i
 42.95  32.0186  0 i
 43  31.3461  0 i
 43.05  42.2715  0 i
 43.1  42.0807  0 i
 43.15  33.6358  0 i
 43.2  34.5276  0 i
 43.25  42.669  0 i
 43.3  28.4821  0 i
 43.35  33.4631  0 i
 43.4  23.2355  0 i
 43.45  41.486  0 i
 43.5  31.5241  0 i
 43.55  43.7992  0 i
 43.6  26.4082  0 i
 43.65  38.9257  0 i
 43.7  28.9552  0 i
 43.75  44.8247  0 i
 43.8  41.6183  0 i
 43.85  37.3364  0 i
 43.9  42.3268  0 i
 43.95  38.6668  0 i
 44  28.3006  0 i
 44.05  40.2734  0 i
 44.1  45.0528  0 i
 44.15  45.5092  0 i
 44.2  40.7729  0 i
 44.25  62.1156  0 i
 44.3  90.3015  0 i
 44.35  86.2068  0 i
 44.4  132.834  0 i
 44.45  388.156  0 i
 44.5  1221.71  0 i
 44.55  2047.15  0 i
 44.6  2128.81  0 i
 44.65  1038.57  0 i
 44.7  314.425  0 i
 44.75  112.672  0 i
 44.8  67.4062  0 i
 44.85  55.291  0 i
 44.9  53.567  0 i
 44.95  34.5585  0 i
 45  42.4602  0 i
 45.05  39.2446  0 i
 45.1  42.593  0 i
 45.15  35.4679  0 i
 45.2  39.2192  0 i
 45.25  28.9319  0 i
 45.3  27.1791  0 i
 45.35  40.3439  0 i
 45.4  36.06  0 i
 45.45  35.052  0 i
 45.5  31.6683  0 i
 45.55  42.7867  0 i
 45.6  31.6265  0 i
 45.65  31.0057  0 i
 45.7  37.0649  0 i
 45.75  31.5779  0 i
 45.8  33.1763  0 i
 45.85  33.7227  0 i
 45.9  39.245  0 i
 45.95  34.6316  0 i
 46  40.7745  0 i
 46.05  31.1905  0 i
 46.1  34.1073  0 i
 46.15  30.8024  0 i
 46.2  33.3687  0 i
 46.25  35.9098  0 i
 46.3  33.6718  0 i
 46.35  35.2325  0 i
 46.4  39.2035  0 i
 46.45  28.3279  0 i
 46.5  26.9769  0 i
 46.55  30.7296  0 i
 46.6  26.733  0 i
 46.65  38.7006  0 i
 46.7  28.8  0 i
 46.75  35.3817  0 i
 46.8  28.3975  0 i
 46.85  34.2383  0 i
 46.9  28.6907  0 i
 46.95  33.478  0 i
 47  34.6106  0 i
 47.05  39.4882  0 i
 47.1  38.9196  0 i
 47.15  31.7805  0 i
 47.2  45.2878  0 i
 47.25  22.8709  0 i
 47.3  29.4135  0 i
 47.35  43.656  0 i
 47.4  30.1246  0 i
 47.45  21.8887  0 i
 47.5  31.2862  0 i
 47.55  30.4005  0 i
 47.6  36.2561  0 i
 47.65  34.2039  0 i
 47.7  43.0799  0 i
 47.75  27.5883  0 i
 47.8  34.8738  0 i
 47.85  24.2293  0 i
 47.9  32.6708  0 i
 47.95  39.6348  0 i
 48  30.9969  0 i
 48.05  32.9948  0 i
 48.1  34.17  0 i
 48.15  30.1831  0 i
 48.2  43.8083  0 i
 48.25  23.1212  0 i
 48.3  43.0392  0 i
 48.35  35.6703  0 i
 48.4  35.1031  0 i
 48.45  34.6821  0 i
 48.5  35.5354  0 i
 48.55  37.9791  0 i
 48.6  34.8178  0 i
 48.65  35.5609  0 i
 48.7  43.5553  0 i
 48.75  36.0446  0 i
 48.8  24.4959  0 i
 48.85  40.6029  0 i
 48.9  31.1297  0 i
 48.95  29.3945  0 i
 49  31.6467  0 i
 49.05  31.2944  0 i
 49.1  40.9809  0 i
 49.15  40.4277  0 i
 49.2  40.8869  0 i
 49.25  32.5545  0 i
 49.3  37.3047  0 i
 49.35  27.8866  0 i
 49.4  26.9594  0 i
 49.45  34.2276  0 i
 49.5  22.9708  0 i
 49.55  35.9974  0 i
 49.6  39.6962  0 i
 49.65  34.1383  0 i
 49.7  40.6611  0 i
 49.75  34.0503  0 i
 49.8  41.7306  0 i
 49.85  38.4141  0 i
 49.9  37.2007  0 i
 49.95  39.7824  0 i
 50  37.4719  0 i
 50.05  32.3429  0 i
 50.1  32.2046  0 i
 50.15  27.8737  0 i
 50.2  27.4769  0 i
 50.25  24.6144  0 i
 50.3  29.5989  0 i
 50.35  34.7391  0 i
 50.4  38.154  0 i
 50.45  25.3819  0 i
 50.5  29.161  0 i
 50.55  21.7673  0 i
 50.6  26.7856  0 i
 50.65  35.8377  0 i
 50.7  34.312  0 i
 50.75  37.034  0 i
 50.8  25.8528  0 i
 50.85  26.4516  0 i
 50.9  26.6676  0 i
 50.95  35.5244  0 i
 51  32.4467  0 i
 51.05  33.6119  0 i
 51.1  33.6954  0 i
 51.15  35.3563  0 i
 51.2  37.2714  0 i
 51.25  35.397  0 i
 51.3  28.8227  0 i
 51.35  25.9283  0 i
 51.4  32.0738  0 i
 51.45  19.9206  0 i
 51.5  28.489  0 i
 51.55  31.6386  0 i
 51.6  33.0086  0 i
 51.65  31.7539  0 i
 51.7  35.1684  0 i
 51.75  33.7806  0 i
 51.8  30.5657  0 i
 51.85  31.0596  0 i
 51.9  27.1714  0 i
 51.95  27.3948  0 i
 52  26.1106  0 i
 52.05  32.46  0 i
 52.1  39.4973  0 i
 52.15  30.683  0 i
 52.2  22.5767  0 i
 52.25  36.2706  0 i
 52.3  21.7382  0 i
 52.35  20.9048  0 i
 52.4  21.4717  0 i
 52.45  43.1407  0 i
 52.5  33.8487  0 i
 52.55  24.932  0 i
 52.6  35.1448  0 i
 52.65  23.0995  0 i
 52.7  26.9036  0 i
 52.75  26.9403  0 i
 52.8  34.0156  0 i
 52.85  43.6577  0 i
 52.9  37.3954  0 i
 52.95  34.7875  0 i
 53  42.7785  0 i
 53.05  26.4611  0 i
 53.1  24.3747  0 i
 53.15  26.5557  0 i
 53.2  35.6002  0 i
 53.25  33.0768  0 i
 53.3  43.027  0 i
 53.35  29.0047  0 i
 53.4  23.1312  0 i
 53.45  30.3967  0 i
 53.5  35.0906  0 i
 53.55  34.4325  0 i
 53.6  30.3316  0 i
 53.65  31.5984  0 i
 53.7  39.9395  0 i
 53.75  23.8201  0 i
 53.8  25.35  0 i
 53.85  33.1258  0 i
 53.9  29.8932  0 i
 53.95  36.5518  0 i
 54  35.8119  0 i
 54.05  17.3188  0 i
 54.1  36.8444  0 i
 54.15  43.1527  0 i
 54.2  31.3718  0 i
 54.25  25.2611  0 i
 54.3  25.2066  0 i
 54.35  21.341  0 i
 54.4  38.7524  0 i
 54.45  33.3383  0 i
 54.5  27.9764  0 i
 54.55  22.7129  0 i
 54.6  28.2528  0 i
 54.65  33.4566  0 i
 54.7  38.5722  0 i
 54.75  31.9218  0 i
 54.8  27.2066  0 i
 54.85  19.997  0 i
 54.9  27.0571  0 i
 54.95  24.4139  0 i
 55  34.4663  0 i
 55.05  25.755  0 i
 55.1  27.048  0 i
 55.15  27.4988  0 i
 55.2  29.5028  0 i
 55.25  30.6418  0 i
 55.3  30.4462  0 i
 55.35  26.2053  0 i
 55.4  37.9142  0 i
 55.45  31.6893  0 i
 55.5  31.8722  0 i
 55.55  35.4997  0 i
 55.6  32.245  0 i
 55.65  30.7244  0 i
 55.7  34.9404  0 i
 55.75  29.2784  0 i
 55.8  38.4364  0 i
 55.85  32.6818  0 i
 55.9  27.3658  0 i
 55.95  35.9463  0 i
 56  27.1636  0 i
 56.05  31.6079  0 i
 56.1  25.5732  0 i
 56.15  26.8559  0 i
 56.2  28.7111  0 i
 56.25  30.4102  0 i
 56.3  25.6945  0 i
 56.35  46.0554  0 i
 56.4  21.5673  0 i
 56.45  29.2658  0 i
 56.5  38.7647  0 i
 56.55  34.3973  0 i
 56.6  36.1798  0 i
 56.65  29.721  0 i
 56.7  43.5931  0 i
 56.75  42.5369  0 i
 56.8  36.0205  0 i
 56.85  31.702  0 i
 56.9  45.3606  0 i
 56.95  38.7644  0 i
 57  29.3356  0 i
 57.05  28.3233  0 i
 57.1  32.4044  0 i
 57.15  25.0914  0 i
 57.2  30.8465  0 i
 57.25  29.3317  0 i
 57.3  34.1869  0 i
 57.35  25.8735  0 i
 57.4  28.6907  0 i
 57.45  23.7205  0 i
 57.5  22.1375  0 i
 57.55  25.2014  0 i
 57.6  38.8987  0 i
 57.65  34.1924  0 i
 57.7  30.1855  0 i
 57.75  32.3538  0 i
 57.8  25.8793  0 i
 57.85  24.9716  0 i
 57.9  29.007  0 i
 57.95  35.3117  0 i
 58  24.9939  0 i
 58.05  35.1236  0 i
 58.1  40.4648  0 i
 58.15  20.5547  0 i
 58.2  29.9051  0 i
 58.25  27.7473  0 i
 58.3  30.3629  0 i
 58.35  26.9001  0 i
 58.4  26.8081  0 i
 58.45  29.6876  0 i
 58.5  37.2998  0 i
 58.55  39.7795  0 i
 58.6  33.3192  0 i
 58.65  23.7113  0 i
 58.7  37.46  0 i
 58.75  23.2162  0 i
 58.8  33.4817  0 i
 58.85  19.9588  0 i
 58.9  27.999  0 i
 58.95  25.757  0 i
 59  35.5659  0 i
 59.05  29.5895  0 i
 59.1  31.2974  0 i
 59.15  28.1202  0 i
 59.2  37.1628  0 i
 59.25  30.003  0 i
 59.3  32.3963  0 i
 59.35  29.1489  0 i
 59.4  33.2066  0 i
 59.45  34.0707  0 i
 59.5  29.4898  0 i
 59.55  28.5683  0 i
 59.6  24.1645  0 i
 59.65  25.1939  0 i
 59.7  32.9227  0 i
 59.75  40.3681  0 i
 59.8  34.4669  0 i
 59.85  25.1585  0 i
 59.9  27.9031  0 i
 59.95  38.2508  0 i
 60  30.9981  0 i
 60.05  34.4581  0 i
 60.1  25.5974  0 i
 60.15  24.4541  0 i
 60.2  30.0892  0 i
 60.25  31.7191  0 i
 60.3  33.5255  0 i
 60.35  29.3524  0 i
 60.4  36.141  0 i
 60.45  34.1209  0 i
 60.5  34.0724  0 i
 60.55  26.6117  0 i
 60.6  24.4015  0 i
 60.65  25.6752  0 i
 60.7  23.5943  0 i
 60.75  37.401  0 i
 60.8  33.5989  0 i
 60.85  31.5647  0 i
 60.9  31.3644  0 i
 60.95  17.3473  0 i
 61  24.0161  0 i
 61.05  41.4025  0 i
 61.1  38.1085  0 i
 61.15  34.5906  0 i
 61.2  34.9258  0 i
 61.25  24.2594  0 i
 61.3  26.5075  0 i
 61.35  23.1835  0 i
 61.4  30.3417  0 i
 61.45  24.8126  0 i
 61.5  30.6241  0 i
 61.55  26.8249  0 i
 61.6  30.8481  0 i
 61.65  34.5011  0 i
 61.7  33.1219  0 i
 61.75  32.1926  0 i
 61.8  20.3333  0 i
 61.85  30.1637  0 i
 61.9  35.8625  0 i
 61.95  28.2334  0 i
 62  25.9097  0 i
 62.05  21.2511  0 i
 62.1  33.8374  0 i
 62.15  32.8678  0 i
 62.2  27.8103  0 i
 62.25  37.7037  0 i
 62.3  32.8878  0 i
 62.35  33.1621  0 i
 62.4  24.6608  0 i
 62.45  35.4724  0 i
 62.5  27.0785  0 i
 62.55  28.6063  0 i
 62.6  29.1383  0 i
 62.65  27.089  0 i
 62.7  30.7648  0 i
 62.75  26.3654  0 i
 62.8  29.554  0 i
 62.85  19.1871  0 i
 62.9  41.1347  0 i
 62.95  31.1773  0 i
 63  32.7736  0 i
 63.05  31.148  0 i
 63.1  23.2743  0 i
 63.15  29.7061  0 i
 63.2  21.389  0 i
 63.25  24.0445  0 i
 63.3  31.3655  0 i
 63.35  34.4312  0 i
 63.4  34.8995  0 i
 63.45  28.9771  0 i
 63.5  29.0094  0 i
 63.55  30.3079  0 i
 63.6  28.9654  0 i
 63.65  29.6827  0 i
 63.7  39.2041  0 i
 63.75  25.1204  0 i
 63.8  31.6075  0 i
 63.85  21.3968  0 i
 63.9  26.3006  0 i
 63.95  27.2398  0 i
 64  37.4973  0 i
 64.05  18.9878  0 i
 64.1  27.356  0 i
 64.15  29.9449  0 i
 64.2  32.8813  0 i
 64.25  30.4024  0 i
 64.3  30.4355  0 i
 64.35  41.435  0 i
 64.4  31.689  0 i
 64.45  31.3191  0 i
 64.5  38.5573  0 i
 64.55  34.1538  0 i
 64.6  57.507  0 i
 64.65  56.0474  0 i
 64.7  77.1734  0 i
 64.75  93.3635  0 i
 64.8  130.998  0 i
 64.85  140.542  0 i
 64.9  138.201  0 i
 64.95  84.544  0 i
 65  86.4943  0 i
 65.05  49.9816  0 i
 65.1  45.4336  0 i
 65.15  30.6321  0 i
 65.2  33.2327  0 i
 65.25  34.8144  0 i
 65.3  25.8864  0 i
 65.35  34.5619  0 i
 65.4  34.5678  0 i
 65.45  34.5717  0 i
 65.5  42.9745  0 i
 65.55  43.2153  0 i
 65.6  30.9177  0 i
 65.65  30.5861  0 i
 65.7  30.9474  0 i
 65.75  34.0415  0 i
 65.8  31.2791  0 i
 65.85  26.408  0 i
 65.9  32.5767  0 i
 65.95  31.6389  0 i
 66  34.0363  0 i
 66.05  30.1529  0 i
 66.1  23.5213  0 i
 66.15  26.6193  0 i
 66.2  33.5589  0 i
 66.25  37.0723  0 i
 66.3  30.1206  0 i
 66.35  26.665  0 i
 66.4  35.118  0 i
 66.45  29.526  0 i
 66.5  29.6647  0 i
 66.55  22.6774  0 i
 66.6  32.3018  0 i
 66.65  25.5633  0 i
 66.7  26.756  0 i
 66.75  33.5586  0 i
 66.8  24.9422  0 i
 66.85  23.1294  0 i
 66.9  19.4453  0 i
 66.95  33.3654  0 i
 67  22.2437  0 i
 67.05  17.5329  0 i
 67.1  26.732  0 i
 67.15  39.3365  0 i
 67.2  24.3805  0 i
 67.25  34.5962  0 i
 67.3  43.4606  0 i
 67.35  31.4021  0 i
 67.4  37.7339  0 i
 67.45  36.5406  0 i
 67.5  27.175  0 i
 67.55  27.5913  0 i
 67.6  37.1591  0 i
 67.65  33.6231  0 i
 67.7  33.0331  0 i
 67.75  28.4957  0 i
 67.8  31.5601  0 i
 67.85  27.9058  0 i
 67.9  26.0222  0 i
 67.95  21.0982  0 i
 68  29.2828  0 i
 68.05  20.9556  0 i
 68.1  29.4992  0 i
 68.15  26.9162  0 i
 68.2  28.9512  0 i
 68.25  39.1714  0 i
 68.3  37.5046  0 i
 68.35  25.7077  0 i
 68.4  38.8754  0 i
 68.45  32.4066  0 i
 68.5  41.3952  0 i
 68.55  31.3949  0 i
 68.6  34.9145  0 i
 68.65  30.6778  0 i
 68.7  27.3342  0 i
 68.75  34.34  0 i
 68.8  31.0936  0 i
 68.85  22.7808  0 i
 68.9  23.778  0 i
 68.95  27.1934  0 i
 69  40.1503  0 i
 69.05  39.2177  0 i
 69.1  29.2149  0 i
 69.15  19.8343  0 i
 69.2  22.3496  0 i
 69.25  29.3671  0 i
 69.3  33.5951  0 i
 69.35  34.7911  0 i
 69.4  34.4323  0 i
 69.45  32.2934  0 i
 69.5  22.0362  0 i
 69.55  39.0088  0 i
 69.6  34.9458  0 i
 69.65  36.4179  0 i
 69.7  31.792  0 i
 69.75  25.412  0 i
 69.8  26.3511  0 i
 69.85  34.9698  0 i
 69.9  34.4616  0 i
 69.95  33.5315  0 i
 70  23.7656  0 i
 70.05  37.1546  0 i
 70.1  28.4014  0 i
 70.15  27.0862  0 i
 70.2  32.5499  0 i
 70.25  30.0771  0 i
 70.3  27.8764  0 i
 70.35  28.3765  0 i
 70.4  25.9228  0 i
 70.45  30.1307  0 i
 70.5  26.4985  0 i
 70.55  26.522  0 i
 70.6  29.8555  0 i
 70.65  26.4111  0 i
 70.7  34.4922  0 i
 70.75  33.4925  0 i
 70.8  25.8902  0 i
 70.85  26.6116  0 i
 70.9  20.3063  0 i
 70.95  26.8388  0 i
 71  26.5893  0 i
 71.05  30.1253  0 i
 71.1  36.6164  0 i
 71.15  38.614  0 i
 71.2  24.3532  0 i
 71.25  26.4842  0 i
 71.3  29.491  0 i
 71.35  24.5377  0 i
 71.4  25.2413  0 i
 71.45  23.6242  0 i
 71.5  25.9276  0 i
 71.55  29.55  0 i
 71.6  31.8424  0 i
 71.65  36.8671  0 i
 71.7  30.4799  0 i
 71.75  34.8286  0 i
 71.8  33.8504  0 i
 71.85  30.2497  0 i
 71.9  18.3247  0 i
 71.95  25.1451  0 i
 72  24.5693  0 i
 72.05  33.7637  0 i
 72.1  34.9124  0 i
 72.15  27.5239  0 i
 72.2  32.8609  0 i
 72.25  20.096  0 i
 72.3  28.0578  0 i
 72.35  22.134  0 i
 72.4  30.7525  0 i
 72.45  30.5466  0 i
 72.5  29.9378  0 i
 72.55  28.6909  0 i
 72.6  28.0295  0 i
 72.65  31.8984  0 i
 72.7  35.1522  0 i
 72.75  33.927  0 i
 72.8  35.2966  0 i
 72.85  32.795  0 i
 72.9  37.1849  0 i
 72.95  28.2584  0 i
 73  32.1942  0 i
 73.05  31.6882  0 i
 73.1  26.6807  0 i
 73.15  34.0966  0 i
 73.2  32.6408  0 i
 73.25  37.3697  0 i
 73.3  28.5436  0 i
 73.35  31.5039  0 i
 73.4  25.3075  0 i
 73.45  29.7824  0 i
 73.5  37.4717  0 i
 73.55  32.8707  0 i
 73.6  25.8975  0 i
 73.65  32.2801  0 i
 73.7  30.759  0 i
 73.75  32.9912  0 i
 73.8  39.1482  0 i
 73.85  31.476  0 i
 73.9  27.9186  0 i
 73.95  27.5089  0 i
 74  22.17  0 i
 74.05  25.481  0 i
 74.1  23.8764  0 i
 74.15  26.0438  0 i
 74.2  31.864  0 i
 74.25  29.7933  0 i
 74.3  30.1179  0 i
 74.35  30.5336  0 i
 74.4  27.8262  0 i
 74.45  24.9988  0 i
 74.5  34.8327  0 i
 74.55  36.6574  0 i
 74.6  24.4083  0 i
 74.65  42.3221  0 i
 74.7  31.8629  0 i
 74.75  26.5337  0 i
 74.8  17.6964  0 i
 74.85  33.1714  0 i
 74.9  29.4827  0 i
 74.95  33.0591  0 i
 75  25.7492  0 i
 75.05  23.2727  0 i
 75.1  39.5966  0 i
 75.15  28.7815  0 i
 75.2  38.6127  0 i
 75.25  27.6489  0 i
 75.3  21.2795  0 i
 75.35  29.3067  0 i
 75.4  30.4609  0 i
 75.45  25.3159  0 i
 75.5  36.3741  0 i
 75.55  36.9649  0 i
 75.6  29.0073  0 i
 75.65  23.0896  0 i
 75.7  24.1046  0 i
 75.75  24.9946  0 i
 75.8  33.8562  0 i
 75.85  34.5579  0 i
 75.9  38.3091  0 i
 75.95  29.339  0 i
 76  29.7583  0 i
 76.05  26.4374  0 i
 76.1  29.8073  0 i
 76.15  35.0937  0 i
 76.2  33.1754  0 i
 76.25  23.6934  0 i
 76.3  27.7044  0 i
 76.35  35.1919  0 i
 76.4  31.2959  0 i
 76.45  25.7723  0 i
 76.5  24.4918  0 i
 76.55  28.2011  0 i
 76.6  33.6364  0 i
 76.65  35.0458  0 i
 76.7  27.5208  0 i
 76.75  25.8209  0 i
 76.8  33.9092  0 i
 76.85  22.8391  0 i
 76.9  22.2033  0 i
 76.95  23.7185  0 i
 77  23.6096  0 i
 77.05  21.1062  0 i
 77.1  27.5137  0 i
 77.15  29.1277  0 i
 77.2  33.6644  0 i
 77.25  24.4314  0 i
 77.3  25.8579  0 i
 77.35  29.1229  0 i
 77.4  26.1967  0 i
 77.45  29.6874  0 i
 77.5  33.5148  0 i
 77.55  28.4131  0 i
 77.6  23.0613  0 i
 77.65  16.7403  0 i
 77.7  26.6324  0 i
 77.75  39.1682  0 i
 77.8  27.55  0 i
 77.85  29.5726  0 i
 77.9  29.2624  0 i
 77.95  28.284  0 i
 78  29.6901  0 i
 78.05  30.7493  0 i
 78.1  32.434  0 i
 78.15  25.7791  0 i
 78.2  28.467  0 i
 78.25  24.0621  0 i
 78.3  24.5743  0 i
 78.35  30.9411  0 i
 78.4  28.4336  0 i
 78.45  24.7524  0 i
 78.5  31.5448  0 i
 78.55  31.145  0 i
 78.6  28.9138  0 i
 78.65  28.9656  0 i
 78.7  31.5003  0 i
 78.75  23.2805  0 i
 78.8  33.993  0 i
 78.85  34.2957  0 i
 78.9  38.6198  0 i
 78.95  23.0598  0 i
 79  32.5388  0 i
 79.05  29.9064  0 i
 79.1  19.7132  0 i
 79.15  25.6103  0 i
 79.2  24.848  0 i
 79.25  28.6356  0 i
 79.3  30.734  0 i
 79.35  32.7675  0 i
 79.4  37.1285  0 i
 79.45  29.537  0 i
 79.5  25.0901  0 i
 79.55  39.2385  0 i
 79.6  31.0931  0 i
 79.65  28.4564  0 i
 79.7  29.9053  0 i
 79.75  32.2078  0 i
 79.8  23.7629  0 i
 79.85  31.4927  0 i
 79.9  25.6387  0 i
 79.95  40.5422  0 i
 80  26.8413  0 i
 80.05  22.7455  0 i
 80.1  30.4129  0 i
 80.15  24.9388  0 i
 80.2  24.3861  0 i
 80.25  22.9927  0 i
 80.3  30.7887  0 i
 80.35  26.4898  0 i
 80.4  38.7109  0 i
 80.45  21.4535  0 i
 80.5  27.0335  0 i
 80.55  39.3368  0 i
 80.6  41.1676  0 i
 80.65  29.0845  0 i
 80.7  24.3848  0 i
 80.75  25.1725  0 i
 80.8  23.3962  0 i
 80.85  36.6726  0 i
 80.9  32.4584  0 i
 80.95  34.427  0 i
 81  28.8769  0 i
 81.05  27.0823  0 i
 81.1  26.4852  0 i
 81.15  25.5895  0 i
 81.2  31.7581  0 i
 81.25  24.8356  0 i
 81.3  31.0266  0 i
 81.35  27.464  0 i
 81.4  38.2997  0 i
 81.45  35.3726  0 i
 81.5  21.0823  0 i
 81.55  28.4724  0 i
 81.6  36.0237  0 i
 81.65  30.0884  0 i
 81.7  30.1811  0 i
 81.75  35.0079  0 i
 81.8  41.5676  0 i
 81.85  31.5584  0 i
 81.9  59.1588  0 i
 81.95  80.9349  0 i
 82  125.753  0 i
 82.05  201.337  0 i
 82.1  272.922  0 i
 82.15  290.01  0 i
 82.2  228.493  0 i
 82.25  115.901  0 i
 82.3  81.8352  0 i
 82.35  56.6358  0 i
 82.4  42.0618  0 i
 82.45  37.106  0 i
 82.5  32.2949  0 i
 82.55  36.3754  0 i
 82.6  42.1452  0 i
 82.65  28.3212  0 i
 82.7  34.9018  0 i
 82.75  32.8197  0 i
 82.8  22.8048  0 i
 82.85  33.462  0 i
 82.9  23.3978  0 i
 82.95  33.4151  0 i
 83  27.9084  0 i
 83.05  23.8893  0 i
 83.1  27.1283  0 i
 83.15  37.0245  0 i
 83.2  31.3796  0 i
 83.25  38.3221  0 i
 83.3  27.8523  0 i
 83.35  21.5503  0 i
 83.4  22.7304  0 i
 83.45  36.6339  0 i
 83.5  30.6654  0 i
 83.55  27.616  0 i
 83.6  24.9472  0 i
 83.65  29.1409  0 i
 83.7  26.4912  0 i
 83.75  31.2018  0 i
 83.8  20.3905  0 i
 83.85  25.9495  0 i
 83.9  35.5264  0 i
 83.95  26.0225  0 i
 84  31.9261  0 i
 84.05  28.9783  0 i
 84.1  28.1164  0 i
 84.15  37.4911  0 i
 84.2  27.9047  0 i
 84.25  35.8338  0 i
 84.3  27.528  0 i
 84.35  35.6899  0 i
 84.4  26.0067  0 i
 84.45  26.8285  0 i
 84.5  36.6573  0 i
 84.55  31.5955  0 i
 84.6  36.4477  0 i
 84.65  18.9257  0 i
 84.7  39.1499  0 i
 84.75  22.9137  0 i
 84.8  39.3489  0 i
 84.85  33.0331  0 i
 84.9  25.8977  0 i
 84.95  18.9295  0 i
 85  29.2277  0 i
 85.05  27.9025  0 i
 85.1  25.8667  0 i
 85.15  33.0877  0 i
 85.2  29.446  0 i
 85.25  29.6791  0 i
 85.3  21.3994  0 i
 85.35  26.6558  0 i
 85.4  30.8983  0 i
 85.45  21.803  0 i
 85.5  27.2952  0 i
 85.55  31.3216  0 i
 85.6  37.3377  0 i
 85.65  29.6665  0 i
 85.7  31.5125  0 i
 85.75  23.1331  0 i
 85.8  35.1836  0 i
 85.85  32.0507  0 i
 85.9  33.9229  0 i
 85.95  27.6168  0 i
 86  30.1984  0 i
 86.05  38.6335  0 i
 86.1  29.0438  0 i
 86.15  38.3576  0 i
 86.2  27.3519  0 i
 86.25  21.3121  0 i
 86.3  27.2174  0 i
 86.35  28.9234  0 i
 86.4  22.895  0 i
 86.45  28.8922  0 i
 86.5  22.88  0 i
 86.55  34.8545  0 i
 86.6  39.2595  0 i
 86.65  23.9044  0 i
 86.7  29.6679  0 i
 86.75  41.6438  0 i
 86.8  33.3404  0 i
 86.85  27.8867  0 i
 86.9  32.1615  0 i
 86.95  32.8499  0 i
 87  22.8166  0 i
 87.05  28.6601  0 i
 87.1  24.6814  0 i
 87.15  26.6025  0 i
 87.2  32.6764  0 i
 87.25  29.9711  0 i
 87.3  30.0376  0 i
 87.35  32.831  0 i
 87.4  30.1787  0 i
 87.45  32.5293  0 i
 87.5  28.9088  0 i
 87.55  25.066  0 i
 87.6  28.1342  0 i
 87.65  34.3306  0 i
 87.7  32.6755  0 i
 87.75  28.2063  0 i
 87.8  28.2439  0 i
 87.85  33.4079  0 i
 87.9  25.1257  0 i
 87.95  33.7044  0 i
 88  38.4745  0 i
 88.05  28.8775  0 i
 88.1  32.5916  0 i
 88.15  23.9138  0 i
 88.2  29.2334  0 i
 88.25  30.7421  0 i
 88.3  16.9411  0 i
 88.35  39.8475  0 i
 88.4  29.0364  0 i
 88.45  32.2394  0 i
 88.5  35.0021  0 i
 88.55  21.6807  0 i
 88.6  32.9028  0 i
 88.65  21.6855  0 i
 88.7  35.5216  0 i
 88.75  27.2261  0 i
 88.8  28.9834  0 i
 88.85  40.9778  0 i
 88.9  28.2339  0 i
 88.95  27.1072  0 i
 89  29.1042  0 i
 89.05  27.4345  0 i
 89.1  30.3772  0 i
 89.15  30.9529  0 i
 89.2  26.1232  0 i
 89.25  29.8692  0 i
 89.3  31.7141  0 i
 89.35  32.3612  0 i
 89.4  39.5375  0 i
 89.45  29.6782  0 i
 89.5  25.0268  0 i
 89.55  26.226  0 i
 89.6  38.163  0 i
 89.65  34.2386  0 i
 89.7  30.3437  0 i
 89.75  30.2211  0 i
 89.8  21.6144  0 i
 89.85  26.0658  0 i
 89.9  29.6976  0 i
 89.95  31.9983  0 i
 90  25.1133  0 i
 90.05  39.3035  0 i
 90.1  33.1481  0 i
 90.15  33.348  0 i
 90.2  18.1046  0 i
 90.25  23.0433  0 i
 90.3  26.3932  0 i
 90.35  30.5716  0 i
 90.4  25.2718  0 i
 90.45  34.2709  0 i
 90.5  24.3  0 i
 90.55  32.6726  0 i
 90.6  31.0285  0 i
 90.65  30.6299  0 i
 90.7  28.2824  0 i
 90.75  41.6055  0 i
 90.8  33.2273  0 i
 90.85  26.5924  0 i
 90.9  42.1154  0 i
 90.95  27.185  0 i
 91  19.8277  0 i
 91.05  27.5497  0 i
 91.1  32.4  0 i
 91.15  32.2343  0 i
 91.2  35.6505  0 i
 91.25  39.8455  0 i
 91.3  25.3055  0 i
 91.35  25.8826  0 i
 91.4  35.4364  0 i
 91.45  30.8476  0 i
 91.5  30.2833  0 i
 91.55  20.6298  0 i
 91.6  29.1618  0 i
 91.65  29.4809  0 i
 91.7  31.2338  0 i
 91.75  28.3833  0 i
 91.8  27.0281  0 i
 91.85  20.3496  0 i
 91.9  27.543  0 i
 91.95  27.2605  0 i
 92  30.6869  0 i
 92.05  35.6652  0 i
 92.1  29.0379  0 i
 92.15  23.6908  0 i
 92.2  28.3805  0 i
 92.25  29.036  0 i
 92.3  35.5916  0 i
 92.35  28.752  0 i
 92.4  28.6815  0 i
 92.45  27.9669  0 i
 92.5  36.0393  0 i
 92.55  24.8486  0 i
 92.6  32.0705  0 i
 92.65  23.603  0 i
 92.7  28.9185  0 i
 92.75  28.4998  0 i
 92.8  23.3513  0 i
 92.85  29.5013  0 i
 92.9  30.1001  0 i
 92.95  35.0862  0 i
 93  27.1896  0 i
 93.05  35.2035  0 i
 93.1  30.6276  0 i
 93.15  36.7706  0 i
 93.2  28.5533  0 i
 93.25  28.0802  0 i
 93.3  35.1962  0 i
 93.35  30.5692  0 i
 93.4  31.7742  0 i
 93.45  31.4674  0 i
 93.5  29.2062  0 i
 93.55  24.8247  0 i
 93.6  26.4289  0 i
 93.65  23.3329  0 i
 93.7  26.1126  0 i
 93.75  21.7254  0 i
 93.8  26.4467  0 i
 93.85  29.1616  0 i
 93.9  18.6514  0 i
 93.95  22.1553  0 i
 94  22.2347  0 i
 94.05  31.9536  0 i
 94.1  33.7966  0 i
 94.15  32.6424  0 i
 94.2  10.7776  0 i
 94.25  23.3241  0 i
 94.3  29.0883  0 i
 94.35  24.5275  0 i
 94.4  31.7447  0 i
 94.45  30.2444  0 i
 94.5  20.8884  0 i
 94.55  31.2994  0 i
 94.6  27.9483  0 i
 94.65  26.7439  0 i
 94.7  20.1682  0 i
 94.75  36.5514  0 i
 94.8  28.615  0 i
 94.85  34.912  0 i
 94.9  35.65  0 i
 94.95  31.3487  0 i
 95  33.084  0 i
 95.05  26.1786  0 i
 95.1  26.9811  0 i
 95.15  37.5457  0 i
 95.2  15.2935  0 i
 95.25  27.0564  0 i
 95.3  22.3637  0 i
 95.35  27.3966  0 i
 95.4  26.7912  0 i
 95.45  35.4195  0 i
 95.5  31.049  0 i
 95.55  31.3759  0 i
 95.6  42.2209  0 i
 95.65  26.9932  0 i
 95.7  33.8053  0 i
 95.75  31.1653  0 i
 95.8  34.0004  0 i
 95.85  27.2408  0 i
 95.9  27.1328  0 i
 95.95  22.8034  0 i
 96  29.9986  0 i
 96.05  27.5256  0 i
 96.1  36.0953  0 i
 96.15  27.8521  0 i
 96.2  40.111  0 i
 96.25  36.6665  0 i
 96.3  26.6931  0 i
 96.35  33.6237  0 i
 96.4  25.7229  0 i
 96.45  33.9574  0 i
 96.5  39.4341  0 i
 96.55  23.492  0 i
 96.6  28.0522  0 i
 96.65  23.5119  0 i
 96.7  24.5518  0 i
 96.75  35.0106  0 i
 96.8  25.5393  0 i
 96.85  26.2309  0 i
 96.9  30.1479  0 i
 96.95  24.8242  0 i
 97  27.28  0 i
 97.05  36.8215  0 i
 97.1  33.479  0 i
 97.15  29.3382  0 i
 97.2  23.9933  0 i
 97.25  23.8954  0 i
 97.3  20.8169  0 i
 97.35  28.3133  0 i
 97.4  30.7852  0 i
 97.45  33.71  0 i
 97.5  40.3987  0 i
 97.55  29.2908  0 i
 97.6  30.0829  0 i
 97.65  33.8858  0 i
 97.7  31.9837  0 i
 97.75  31.3083  0 i
 97.8  33.029  0 i
 97.85  28.0556  0 i
 97.9  26.6641  0 i
 97.95  31.5085  0 i
 98  26.0596  0 i
 98.05  33.0411  0 i
 98.1  31.3709  0 i
 98.15  26.9546  0 i
 98.2  21.0466  0 i
 98.25  31.1284  0 i
 98.3  39.8646  0 i
 98.35  27.6265  0 i
 98.4  42.5923  0 i
 98.45  63.1325  0 i
 98.5  53.5052  0 i
 98.55  91.1127  0 i
 98.6  125.566  0 i
 98.65  162.348  0 i
 98.7  167.645  0 i
 98.75  119.999  0 i
 98.8  80.1332  0 i
 98.85  62.4565  0 i
 98.9  57.2333  0 i
 98.95  42.4041  0 i
 99  36.4898  0 i
 99.05  35.5474  0 i
 99.1  28.6489  0 i
 99.15  31.8868  0 i
 99.2  28.4925  0 i
 99.25  28.4476  0 i
 99.3  26.6716  0 i
 99.35  31.8549  0 i
 99.4  25.2152  0 i
 99.45  21.7185  0 i
 99.5  29.1969  0 i
 99.55  35.8804  0 i
 99.6  32.5827  0 i
 99.65  35.79  0 i
 99.7  41.6088  0 i
 99.75  23.8862  0 i
 99.8  31.8469  0 i
 99.85  26.1777  0 i
 99.9  25.569  0 i
 99.95  40.8276  0 i
 100  33.3382  0 i
 100.05  27.3328  0 i
 100.1  33.3231  0 i
 100.15  37.2203  0 i
 100.2  30.9277  0 i
 100.25  36.6431  0 i
 100.3  33.0989  0 i
 100.35  25.4304  0 i
 100.4  33.3918  0 i
 100.45  27.5131  0 i
 100.5  36.989  0 i
 100.55  27.988  0 i
 100.6  28.5961  0 i
 100.65  27.8422  0 i
 100.7  26.5764  0 i
 100.75  23.5716  0 i
 100.8  31.1095  0 i
 100.85  35.8481  0 i
 100.9  26.2116  0 i
 100.95  29.2889  0 i
 101  36.4682  0 i
 101.05  24.7089  0 i
 101.1  32.3988  0 i
 101.15  30.9538  0 i
 101.2  28.4113  0 i
 101.25  22.5347  0 i
 101.3  35.3141  0 i
 101.35  35.4485  0 i
 101.4  29.911  0 i
 101.45  24.1322  0 i
 101.5  37.9833  0 i
 101.55  30.44  0 i
 101.6  35.3052  0 i
 101.65  24.6459  0 i
 101.7  29.9688  0 i
 101.75  36.3174  0 i
 101.8  20.5382  0 i
 101.85  30.3793  0 i
 101.9  28.5719  0 i
 101.95  34.0666  0 i
 102  28.6424  0 i
 102.05  28.3518  0 i
 102.1  32.919  0 i
 102.15  28.0351  0 i
 102.2  25.2501  0 i
 102.25  26.5138  0 i
 102.3  28.8091  0 i
 102.35  30.2142  0 i
 102.4  28.4446  0 i
 102.45  29.3133  0 i
 102.5  30.105  0 i
 102.55  23.5209  0 i
 102.6  31.2134  0 i
 102.65  28.6144  0 i
 102.7  32.9143  0 i
 102.75  28.511  0 i
 102.8  24.3569  0 i
 102.85  24.2163  0 i
 102.9  27.4712  0 i
 102.95  35.0067  0 i
 103  24.133  0 i
 103.05  26.7605  0 i
 103.1  34.7819  0 i
 103.15  36.999  0 i
 103.2  29.6338  0 i
 103.25  28.6998  0 i
 103.3  31.6295  0 i
 103.35  31.0552  0 i
 103.4  28.6465  0 i
 103.45  34.5375  0 i
 103.5  36.5434  0 i
 103.55  29.0084  0 i
 103.6  26.4439  0 i
 103.65  33.9435  0 i
 103.7  27.0234  0 i
 103.75  32.0914  0 i
 103.8  31.6822  0 i
 103.85  20.1524  0 i
 103.9  39.2962  0 i
 103.95  27.6145  0 i
 104  22.4968  0 i
 104.05  25.7698  0 i
 104.1  30.484  0 i
 104.15  23.0918  0 i
 104.2  25.1521  0 i
 104.25  38.47  0 i
 104.3  32.7419  0 i
 104.35  27.1274  0 i
 104.4  27.0946  0 i
 104.45  29.336  0 i
 104.5  32.2853  0 i
 104.55  27.3731  0 i
 104.6  35.0044  0 i
 104.65  33.6283  0 i
 104.7  26.8915  0 i
 104.75  22.3162  0 i
 104.8  33.0134  0 i
 104.85  34.4845  0 i
 104.9  33.4021  0 i
 104.95  31.7736  0 i
 105  38.5513  0 i
 105.05  38.8448  0 i
 105.1  31.3453  0 i
 105.15  46.901  0 i
 105.2  30.2521  0 i
 105.25  27.0555  0 i
 105.3  27.2014  0 i
 105.35  37.2661  0 i
 105.4  20.6294  0 i
 105.45  30.4425  0 i
 105.5  35.8572  0 i
 105.55  33.897  0 i
 105.6  38.6287  0 i
 105.65  28.5333  0 i
 105.7  36.0289  0 i
 105.75  32.9534  0 i
 105.8  30.4054  0 i
 105.85  26.0733  0 i
 105.9  32.8631  0 i
 105.95  29.5234  0 i
 106  31.7938  0 i
 106.05  30.7298  0 i
 106.1  32.7249  0 i
 106.15  25.8185  0 i
 106.2  26.3408  0 i
 106.25  29.7778  0 i
 106.3  29.9377  0 i
 106.35  26.8295  0 i
 106.4  29.6797  0 i
 106.45  33.1362  0 i
 106.5  35.7893  0 i
 106.55  28.4438  0 i
 106.6  28.8709  0 i
 106.65  26.5158  0 i
 106.7  26.4388  0 i
 106.75  29.8706  0 i
 106.8  33.8466  0 i
 106.85  24.4944  0 i
 106.9  21.9048  0 i
 106.95  26.5506  0 i
 107  24.9629  0 i
 107.05  33.6854  0 i
 107.1  21.8956  0 i
 107.15  25.8335  0 i
 107.2  36.6344  0 i
 107.25  32.1564  0 i
 107.3  28.3505  0 i
 107.35  40.6491  0 i
 107.4  29.0669  0 i
 107.45  19.022  0 i
 107.5  37.1313  0 i
 107.55  24.0285  0 i
 107.6  23.9493  0 i
 107.65  18.8693  0 i
 107.7  30.3858  0 i
 107.75  27.0123  0 i
 107.8  35.0013  0 i
 107.85  44.9055  0 i
 107.9  24.2828  0 i
 107.95  40.438  0 i
 108  32.9745  0 i
 108.05  28.5184  0 i
 108.1  42.2013  0 i
 108.15  40.3378  0 i
 108.2  25.4342  0 i
 108.25  37.1387  0 i
 108.3  24.7094  0 i
 108.35  21.3942  0 i
 108.4  26.0256  0 i
 108.45  28.6867  0 i
 108.5  25.7006  0 i
 108.55  21.3213  0 i
 108.6  29.1942  0 i
 108.65  35.6426  0 i
 108.7  34.5323  0 i
 108.75  34.6467  0 i
 108.8  28.4721  0 i
 108.85  32.6278  0 i
 108.9  34.7581  0 i
 108.95  35.2337  0 i
 109  32.1858  0 i
 109.05  29.3582  0 i
 109.1  35.5235  0 i
 109.15  27.1686  0 i
 109.2  23.6572  0 i
 109.25  27.6425  0 i
 109.3  28.3587  0 i
 109.35  21.7229  0 i
 109.4  20.7581  0 i
 109.45  23.2442  0 i
 109.5  24.1788  0 i
 109.55  30.5744  0 i
 109.6  41.6796  0 i
 109.65  31.1915  0 i
 109.7  38.2635  0 i
 109.75  34.1513  0 i
 109.8  28.7562  0 i
 109.85  31.878  0 i
 109.9  21.5876  0 i
 109.95  32.6157  0 i
 110  20.734  0 i
 110.05  28.0107  0 i
 110.1  30.2035  0 i
 110.15  29.5798  0 i
 110.2  35.3038  0 i
 110.25  32.2178  0 i
 110.3  29.1102  0 i
 110.35  28.6974  0 i
 110.4  28.6501  0 i
 110.45  31.0126  0 i
 110.5  27.7622  0 i
 110.55  27.5605  0 i
 110.6  26.1067  0 i
 110.65  26.2638  0 i
 110.7  31.9206  0 i
 110.75  23.8921  0 i
 110.8  20.317  0 i
 110.85  28.5491  0 i
 110.9  30.6601  0 i
 110.95  30.3562  0 i
 111  39.755  0 i
 111.05  32.5764  0 i
 111.1  36.5822  0 i
 111.15  32.7535  0 i
 111.2  31.1302  0 i
 111.25  30.5688  0 i
 111.3  28.2545  0 i
 111.35  27.5743  0 i
 111.4  30.2108  0 i
 111.45  25.0764  0 i
 111.5  20.4026  0 i
 111.55  32.1485  0 i
 111.6  28.6173  0 i
 111.65  24.1248  0 i
 111.7  26.343  0 i
 111.75  34.0476  0 i
 111.8  38.8817  0 i
 111.85  29.5332  0 i
 111.9  26.7756  0 i
 111.95  17.8362  0 i
 112  28.0956  0 i
 112.05  33.3948  0 i
 112.1  34.5133  0 i
 112.15  33.7953  0 i
 112.2  30.5019  0 i
 112.25  30.0772  0 i
 112.3  33.8506  0 i
 112.35  30.244  0 i
 112.4  24.341  0 i
 112.45  31.9063  0 i
 112.5  29.8003  0 i
 112.55  32.3489  0 i
 112.6  28.4296  0 i
 112.65  27.1779  0 i
 112.7  29.0831  0 i
 112.75  21.9597  0 i
 112.8  26.0692  0 i
 112.85  37.1654  0 i
 112.9  26.9639  0 i
 112.95  28.2065  0 i
 113  31.6166  0 i
 113.05  27.0373  0 i
 113.1  22.3836  0 i
 113.15  33.2183  0 i
 113.2  28.6408  0 i
 113.25  35.6167  0 i
 113.3  32.3564  0 i
 113.35  28.1382  0 i
 113.4  38.7049  0 i
 113.45  26.4176  0 i
 113.5  36.1205  0 i
 113.55  40.4675  0 i
 113.6  26.8196  0 i
 113.65  27.807  0 i
 113.7  29.6108  0 i
 113.75  34.842  0 i
 113.8  34.1136  0 i
 113.85  29.0934  0 i
 113.9  20.4178  0 i
 113.95  32.896  0 i
 114  31.5819  0 i
 114.05  27.5008  0 i
 114.1  33.706  0 i
 114.15  26.4173  0 i
 114.2  41.4622  0 i
 114.25  26.3322  0 i
 114.3  22.5062  0 i
 114.35  25.4366  0 i
 114.4  37.9699  0 i
 114.45  25.2794  0 i
 114.5  24.3301  0 i
 114.55  26.6634  0 i
 114.6  26.9404  0 i
 114.65  32.252  0 i
 114.7  25.1638  0 i
 114.75  23.7745  0 i
 114.8  17.7955  0 i
 114.85  38.771  0 i
 114.9  43.9933  0 i
 114.95  31.6949  0 i
 115  30.1918  0 i
 115.05  27.9263  0 i
 115.1  34.84  0 i
 115.15  32.8342  0 i
 115.2  34.8933  0 i
 115.25  37.6745  0 i
 115.3  34.4306  0 i
 115.35  32.2844  0 i
 115.4  34.4845  0 i
 115.45  29.6453  0 i
 115.5  41.6869  0 i
 115.55  33.447  0 i
 115.6  36.6056  0 i
 115.65  33.3979  0 i
 115.7  46.6648  0 i
 115.75  73.2649  0 i
 115.8  75.0004  0 i
 115.85  68.3783  0 i
 115.9  79.6012  0 i
 115.95  104.855  0 i
 116  118.826  0 i
 116.05  114.242  0 i
 116.1  92.6712  0 i
 116.15  90.8858  0 i
 116.2  84.6537  0 i
 116.25  58.6954  0 i
 116.3  44.8518  0 i
 116.35  44.1382  0 i
 116.4  37.9758  0 i
 116.45  30.7737  0 i
 116.5  44.2251  0 i
 116.55  32.8099  0 i
 116.6  48.3133  0 i
 116.65  37.7372  0 i
 116.7  32.9497  0 i
 116.75  40.534  0 i
 116.8  27.1784  0 i
 116.85  40.9785  0 i
 116.9  35.6762  0 i
 116.95  21.3776  0 i
 117  28.4952  0 i
 117.05  38.1886  0 i
 117.1  25.5728  0 i
 117.15  30.2954  0 i
 117.2  33.9992  0 i
 117.25  38.7959  0 i
 117.3  28.696  0 i
 117.35  26.4865  0 i
 117.4  23.5597  0 i
 117.45  36.232  0 i
 117.5  27.6985  0 i
 117.55  36.1241  0 i
 117.6  31.1633  0 i
 117.65  24.4867  0 i
 117.7  33.6397  0 i
 117.75  28.0725  0 i
 117.8  32.1908  0 i
 117.85  38.6934  0 i
 117.9  28.046  0 i
 117.95  25.936  0 i
 118  37.2425  0 i
 118.05  35.1619  0 i
 118.1  36.9821  0 i
 118.15  29  0 i
 118.2  12.7811  0 i
 118.25  24.2062  0 i
 118.3  24.293  0 i
 118.35  24.0327  0 i
 118.4  33.1203  0 i
 118.45  30.4562  0 i
 118.5  27.5864  0 i
 118.55  25.1526  0 i
 118.6  18.5628  0 i
 118.65  19.108  0 i
 118.7  29.0048  0 i
 118.75  27.4097  0 i
 118.8  28.7172  0 i
 118.85  33.7729  0 i
 118.9  38.1214  0 i
 118.95  29.5586  0 i
 119  29.1213  0 i
 119.05  33.2163  0 i
 119.1  41.17  0 i
 119.15  32.4594  0 i
 119.2  25.4239  0 i
 119.25  29.4904  0 i
 119.3  24.5329  0 i
 119.35  29.0601  0 i
 119.4  36.0027  0 i
 119.45  26.9506  0 i
 119.5  25.2263  0 i
 119.55  36.16  0 i
 119.6  30.069  0 i
 119.65  30.9213  0 i
 119.7  17.1068  0 i
 119.75  21.9221  0 i
 119.8  24.5859  0 i
 119.85  22.6878  0 i
 119.9  34.001  0 i
 119.95  22.8291  0 i
 120  23.8941  0 i
 120.05  25.2256  0 i
 120.1  34.0582  0 i
 120.15  19.7318  0 i
 120.2  27.7268  0 i
 120.25  28.0838  0 i
 120.3  32.9658  0 i
 120.35  31.8399  0 i
 120.4  34.5745  0 i
 120.45  30.4047  0 i
 120.5  28.0583  0 i
 120.55  27.0504  0 i
 120.6  29.868  0 i
 120.65  26.7714  0 i
 120.7  23.7959  0 i
 120.75  25.9127  0 i
 120.8  34.2955  0 i
 120.85  17.703  0 i
 120.9  28.3744  0 i
 120.95  35.8506  0 i
 121  33.4317  0 i
 121.05  29.4589  0 i
 121.1  25.0605  0 i
 121.15  33.1832  0 i
 121.2  31.6445  0 i
 121.25  34.3045  0 i
 121.3  18.0128  0 i
 121.35  33.0851  0 i
 121.4  37.3424  0 i
 121.45  40.2439  0 i
 121.5  33.8189  0 i
 121.55  38.8073  0 i
 121.6  30.5445  0 i
 121.65  27.8157  0 i
 121.7  36.4264  0 i
 121.75  34.5238  0 i
 121.8  24.2025  0 i
 121.85  33.696  0 i
 121.9  25.6565  0 i
 121.95  18.1093  0 i
 122  34.09  0 i
 122.05  28.2182  0 i
 122.1  27.9882  0 i
 122.15  30.4245  0 i
 122.2  29.9253  0 i
 122.25  27.392  0 i
 122.3  25.439  0 i
 122.35  36.7989  0 i
 122.4  32.9072  0 i
 122.45  50.9807  0 i
 122.5  26.9048  0 i
 122.55  26.1213  0 i
 122.6  29.5446  0 i
 122.65  28.6655  0 i
 122.7  30.5386  0 i
 122.75  29.6451  0 i
 122.8  38.6575  0 i
 122.85  35.7507  0 i
 122.9  24.426  0 i
 122.95  25.0442  0 i
 123  35.2396  0 i
 123.05  27.5029  0 i
 123.1  33.005  0 i
 123.15  27.3044  0 i
 123.2  26.2069  0 i
 123.25  30.759  0 i
 123.3  21.2015  0 i
 123.35  27.7073  0 i
 123.4  32.3929  0 i
 123.45  34.1854  0 i
 123.5  24.6019  0 i
 123.55  30.9274  0 i
 123.6  28.9095  0 i
 123.65  37.3715  0 i
 123.7  34.2188  0 i
 123.75  32.9475  0 i
 123.8  25.2962  0 i
 123.85  36.439  0 i
 123.9  39.8006  0 i
 123.95  21.7855  0 i
 124  34.985  0 i
 124.05  34.9073  0 i
 124.1  35.1481  0 i
 124.15  29.3091  0 i
 124.2  34.7649  0 i
 124.25  33.6452  0 i
 124.3  37.3742  0 i
 124.35  27.099  0 i
 124.4  30.7175  0 i
 124.45  37.9119  0 i
 124.5  28.7401  0 i
 124.55  22.7125  0 i
 124.6  23.1346  0 i
 124.65  32.9639  0 i
 124.7  27.3049  0 i
 124.75  22.3022  0 i
 124.8  27.7311  0 i
 124.85  35.0492  0 i
 124.9  31.1729  0 i
 124.95  18.0045  0 i
 125  22.7108  0 i
 125.05  30.174  0 i
 125.1  32.0807  0 i
 125.15  28.447  0 i
 125.2  25.3935  0 i
 125.25  37.2941  0 i
 125.3  31.3685  0 i
 125.35  29.0255  0 i
 125.4  25.9534  0 i
 125.45  27.546  0 i
 125.5  29.9226  0 i
 125.55  25.538  0 i
 125.6  37.219  0 i
 125.65  36.1512  0 i
 125.7  31.737  0 i
 125.75  26.7959  0 i
 125.8  39.3174  0 i
 125.85  25.0092  0 i
 125.9  31.7898  0 i
 125.95  29.4233  0 i
 126  27.0945  0 i
 126.05  41.9846  0 i
 126.1  37.857  0 i
 126.15  27.6433  0 i
 126.2  32.9618  0 i
 126.25  27.9949  0 i
 126.3  29.5218  0 i
 126.35  29.0005  0 i
 126.4  31.8544  0 i
 126.45  27.4598  0 i
 126.5  29.9569  0 i
 126.55  28.3469  0 i
 126.6  33.7523  0 i
 126.65  28.539  0 i
 126.7  21.907  0 i
 126.75  29.6607  0 i
 126.8  29.7127  0 i
 126.85  32.6464  0 i
 126.9  30.0451  0 i
 126.95  28.2581  0 i
 127  34.4638  0 i
 127.05  32.6775  0 i
 127.1  33.6222  0 i
 127.15  30.0772  0 i
 127.2  23.6675  0 i
 127.25  43.2425  0 i
 127.3  26.33  0 i
 127.35  29.5049  0 i
 127.4  29.4776  0 i
 127.45  33.0914  0 i
 127.5  33.4123  0 i
 127.55  33.1641  0 i
 127.6  32.9134  0 i
 127.65  35.3503  0 i
 127.7  31.1683  0 i
 127.75  33.7064  0 i
 127.8  25.0524  0 i
 127.85  23.4112  0 i
 127.9  28.4937  0 i
 127.95  23.3208  0 i
 128  35.1636  0 i
 128.05  47.5383  0 i
 128.1  32.3725  0 i
 128.15  26.303  0 i
 128.2  28.7113  0 i
 128.25  31.0633  0 i
 128.3  21.5306  0 i
 128.35  33.1584  0 i
 128.4  47.1228  0 i
 128.45  30.2619  0 i
 128.5  47.63  0 i
 128.55  38.8125  0 i
 128.6  27.8225  0 i
 128.65  26.5979  0 i
 128.7  22.3036  0 i
 128.75  37.3298  0 i
 128.8  26.0879  0 i
 128.85  32.4807  0 i
 128.9  31.8976  0 i
 128.95  29.0895  0 i
 129  37.6278  0 i
 129.05  26.1957  0 i
 129.1  28.152  0 i
 129.15  29.1738  0 i
 129.2  34.7054  0 i
 129.25  27.7309  0 i
 129.3  43.58  0 i
 129.35  40.3284  0 i
 129.4  39.9977  0 i
 129.45  23.7732  0 i
 129.5  38.2417  0 i
 129.55  36.3142  0 i
 129.6  24.9126  0 i
 129.65  28.7602  0 i
 129.7  34.0529  0 i
 129.75  31.5018  0 i
 129.8  27.9486  0 i
 129.85  30.554  0 i
 129.9  31.5458  0 i
 129.95  27.1725  0 i
 130  27.6914  0 i

