
#Surface 0 of 1 surfaces

#IsoCurve 0, 1801 points
#x y z type
 40  24.5352  30.9476 i
 40.05  36.4874  30.9404 i
 40.1  38.6125  30.9332 i
 40.15  28.0716  30.9256 i
 40.2  41.0463  30.9179 i
 40.25  42.4861  30.9107 i
 40.3  38.2264  30.9035 i
 40.35  48.7182  30.899 i
 40.4  31.1715  30.8908 i
 40.45  37.1906  30.8849 i
 40.5  39.9501  30.8789 i
 40.55  39.9877  30.8723 i
 40.6  38.2762  30.8658 i
 40.65  41.9794  30.8575 i
 40.7  50.4556  30.8514 i
 40.75  37.6241  30.8445 i
 40.8  26.8761  30.8375 i
 40.85  32.6827  30.8316 i
 40.9  37.2231  30.8256 i
 40.95  45.0364  30.8204 i
 41  36.8861  30.8152 i
 41.05  32.9962  30.8097 i
 41.1  38.5916  30.8042 i
 41.15  29.7197  30.7979 i
 41.2  32.1859  30.7917 i
 41.25  36.9086  30.7854 i
 41.3  43.6549  30.7791 i
 41.35  40.5931  30.774 i
 41.4  31.9836  30.7688 i
 41.45  37.7144  30.7649 i
 41.5  30.6537  30.761 i
 41.55  39.173  30.7572 i
 41.6  43.0433  30.7534 i
 41.65  39.63  30.7488 i
 41.7  40.7633  30.7443 i
 41.75  25.8908  30.7396 i
 41.8  38.8361  30.7349 i
 41.85  40.4462  30.7315 i
 41.9  36.0976  30.7282 i
 41.95  37.4309  30.7267 i
 42  44.0595  30.7251 i
 42.05  31.3983  30.7244 i
 42.1  43.4125  30.7237 i
 42.15  28.9685  30.7226 i
 42.2  34.6107  30.7214 i
 42.25  43.4921  30.7203 i
 42.3  35.9761  30.7192 i
 42.35  30.5934  30.72 i
 42.4  35.0934  30.7208 i
 42.45  35.8927  30.7246 i
 42.5  47.1783  30.7285 i
 42.55  51.1438  30.7321 i
 42.6  26.5552  30.7405 i
 42.65  35.1824  30.7473 i
 42.7  46.3211  30.7541 i
 42.75  32.1689  30.7622 i
 42.8  23.0303  30.7703 i
 42.85  33.9488  30.7824 i
 42.9  28.3589  30.7945 i
 42.95  32.0186  30.813 i
 43  31.3461  30.8315 i
 43.05  42.2715  30.8568 i
 43.1  42.0807  30.8821 i
 43.15  33.6358  30.9139 i
 43.2  34.5276  30.9457 i
 43.25  42.669  30.9896 i
 43.3  28.4821  31.0335 i
 43.35  33.4631  31.1948 i
 43.4  23.2355  31.3562 i
 43.45  41.486  31.6124 i
 43.5  31.5241  31.8686 i
 43.55  43.7992  32.0382 i
 43.6  26.4082  32.2079 i
 43.65  38.9257  32.4334 i
 43.7  28.9552  32.6589 i
 43.75  44.8247  32.9447 i
 43.8  41.6183  33.2985 i
 43.85  37.3364  33.782 i
 43.9  42.3268  34.2655 i
 43.95  38.6668  35.0479 i
 44  28.3006  35.8303 i
 44.05  40.2734  37.2101 i
 44.1  45.0528  38.5898 i
 44.15  45.5092  40.8311 i
 44.2  40.7729  44.2397 i
 44.25  62.1156  49.8469 i
 44.3  90.3015  60.9956 i
 44.35  86.2068  91.2931 i
 44.4  132.834  186.927 i
 44.45  388.156  472.852 i
 44.5  1221.71  1090.91 i
 44.55  2047.15  1905.11 i
 44.6  2128.81  2216.52 i
 44.65  1038.57  1132.65 i
 44.7  314.425  272.911 i
 44.75  112.672  102.627 i
 44.8  67.4062  64.6941 i
 44.85  55.291  51.0017 i
 44.9  53.567  43.7784 i
 44.95  34.5585  39.8922 i
 45  42.4602  37.4874 i
 45.05  39.2446  35.8526 i
 45.1  42.593  34.727 i
 45.15  35.4679  33.9939 i
 45.2  39.2192  33.2609 i
 45.25  28.9319  32.8275 i
 45.3  27.1791  32.3942 i
 45.35  40.3439  32.1174 i
 45.4  36.06  31.8405 i
 45.45  35.052  31.6488 i
 45.5  31.6683  31.4571 i
 45.55  42.7867  31.3154 i
 45.6  31.6265  31.1736 i
 45.65  31.0057  31.066 i
 45.7  37.0649  30.9585 i
 45.75  31.5779  30.8518 i
 45.8  33.1763  30.745 i
 45.85  33.7227  30.6504 i
 45.9  39.245  30.5557 i
 45.95  34.6316  30.5053 i
 46  40.7745  30.455 i
 46.05  31.1905  30.4118 i
 46.1  34.1073  30.3685 i
 46.15  30.8024  30.3322 i
 46.2  33.3687  30.296 i
 46.25  35.9098  30.267 i
 46.3  33.6718  30.238 i
 46.35  35.2325  30.2134 i
 46.4  39.2035  30.1889 i
 46.45  28.3279  30.1656 i
 46.5  26.9769  30.1423 i
 46.55  30.7296  30.1198 i
 46.6  26.733  30.0972 i
 46.65  38.7006  30.0775 i
 46.7  28.8  30.0577 i
 46.75  35.3817  30.0414 i
 46.8  28.3975  30.0251 i
 46.85  34.2383  30.0105 i
 46.9  28.6907  29.9958 i
 46.95  33.478  29.9806 i
 47  34.6106  29.9655 i
 47.05  39.4882  29.9503 i
 47.1  38.9196  29.935 i
 47.15  31.7805  29.9215 i
 47.2  45.2878  29.9081 i
 47.25  22.8709  29.8968 i
 47.3  29.4135  29.8855 i
 47.35  43.656  29.8747 i
 47.4  30.1246  29.8639 i
 47.45  21.8887  29.8522 i
 47.5  31.2862  29.8405 i
 47.55  30.4005  29.8287 i
 47.6  36.2561  29.8168 i
 47.65  34.2039  29.8065 i
 47.7  43.0799  29.7961 i
 47.75  27.5883  29.7872 i
 47.8  34.8738  29.7784 i
 47.85  24.2293  29.7694 i
 47.9  32.6708  29.7605 i
 47.95  39.6348  29.7505 i
 48  30.9969  29.7406 i
 48.05  32.9948  29.7307 i
 48.1  34.17  29.7209 i
 48.15  30.1831  29.7124 i
 48.2  43.8083  29.7039 i
 48.25  23.1212  29.6964 i
 48.3  43.0392  29.6889 i
 48.35  35.6703  29.6809 i
 48.4  35.1031  29.6729 i
 48.45  34.6821  29.664 i
 48.5  35.5354  29.6552 i
 48.55  37.9791  29.6467 i
 48.6  34.8178  29.6383 i
 48.65  35.5609  29.631 i
 48.7  43.5553  29.6238 i
 48.75  36.0446  29.6171 i
 48.8  24.4959  29.6105 i
 48.85  40.6029  29.603 i
 48.9  31.1297  29.5956 i
 48.95  29.3945  29.5876 i
 49  31.6467  29.5796 i
 49.05  31.2944  29.5722 i
 49.1  40.9809  29.5648 i
 49.15  40.4277  29.5599 i
 49.2  40.8869  29.5523 i
 49.25  32.5545  29.5466 i
 49.3  37.3047  29.5408 i
 49.35  27.8866  29.5338 i
 49.4  26.9594  29.5267 i
 49.45  34.2276  29.5195 i
 49.5  22.9708  29.5122 i
 49.55  35.9974  29.5059 i
 49.6  39.6962  29.4995 i
 49.65  34.1383  29.4939 i
 49.7  40.6611  29.4884 i
 49.75  34.0503  29.4824 i
 49.8  41.7306  29.4765 i
 49.85  38.4141  29.4699 i
 49.9  37.2007  29.4632 i
 49.95  39.7824  29.4568 i
 50  37.4719  29.4503 i
 50.05  32.3429  29.4448 i
 50.1  32.2046  29.4393 i
 50.15  27.8737  29.4342 i
 50.2  27.4769  29.4291 i
 50.25  24.6144  29.4234 i
 50.3  29.5989  29.4177 i
 50.35  34.7391  29.4115 i
 50.4  38.154  29.4053 i
 50.45  25.3819  29.3997 i
 50.5  29.161  29.394 i
 50.55  21.7673  29.3893 i
 50.6  26.7856  29.3845 i
 50.65  35.8377  29.3797 i
 50.7  34.312  29.3749 i
 50.75  37.034  29.3694 i
 50.8  25.8528  29.3639 i
 50.85  26.4516  29.3583 i
 50.9  26.6676  29.3527 i
 50.95  35.5244  29.3479 i
 51  32.4467  29.3432 i
 51.05  33.6119  29.3389 i
 51.1  33.6954  29.3347 i
 51.15  35.3563  29.3301 i
 51.2  37.2714  29.3254 i
 51.25  35.397  29.3202 i
 51.3  28.8227  29.315 i
 51.35  25.9283  29.3102 i
 51.4  32.0738  29.3054 i
 51.45  19.9206  29.3014 i
 51.5  28.489  29.2974 i
 51.55  31.6386  29.2935 i
 51.6  33.0086  29.2897 i
 51.65  31.7539  29.2851 i
 51.7  35.1684  29.2806 i
 51.75  33.7806  29.276 i
 51.8  30.5657  29.2713 i
 51.85  31.0596  29.2673 i
 51.9  27.1714  29.2634 i
 51.95  27.3948  29.26 i
 52  26.1106  29.2566 i
 52.05  32.46  29.2529 i
 52.1  39.4973  29.2492 i
 52.15  30.683  29.2449 i
 52.2  22.5767  29.2407 i
 52.25  36.2706  29.2368 i
 52.3  21.7382  29.2329 i
 52.35  20.9048  29.2298 i
 52.4  21.4717  29.2266 i
 52.45  43.1407  29.2236 i
 52.5  33.8487  29.2206 i
 52.55  24.932  29.217 i
 52.6  35.1448  29.2134 i
 52.65  23.0995  29.2097 i
 52.7  26.9036  29.206 i
 52.75  26.9403  29.203 i
 52.8  34.0156  29.2 i
 52.85  43.6577  29.1974 i
 52.9  37.3954  29.195 i
 52.95  34.7875  29.1921 i
 53  42.7785  29.1893 i
 53.05  26.4611  29.186 i
 53.1  24.3747  29.1827 i
 53.15  26.5557  29.1798 i
 53.2  35.6002  29.1769 i
 53.25  33.0768  29.1747 i
 53.3  43.027  29.1725 i
 53.35  29.0047  29.1704 i
 53.4  23.1312  29.1682 i
 53.45  30.3967  29.1655 i
 53.5  35.0906  29.1628 i
 53.55  34.4325  29.1601 i
 53.6  30.3316  29.1575 i
 53.65  31.5984  29.1555 i
 53.7  39.9395  29.1535 i
 53.75  23.8201  29.152 i
 53.8  25.35  29.1504 i
 53.85  33.1258  29.1484 i
 53.9  29.8932  29.1464 i
 53.95  36.5518  29.144 i
 54  35.8119  29.1417 i
 54.05  17.3188  29.14 i
 54.1  36.8444  29.1382 i
 54.15  43.1527  29.1371 i
 54.2  31.3718  29.1359 i
 54.25  25.2611  29.1346 i
 54.3  25.2066  29.1333 i
 54.35  21.341  29.1315 i
 54.4  38.7524  29.1297 i
 54.45  33.3383  29.1282 i
 54.5  27.9764  29.1266 i
 54.55  22.7129  29.1258 i
 54.6  28.2528  29.125 i
 54.65  33.4566  29.1244 i
 54.7  38.5722  29.1237 i
 54.75  31.9218  29.1225 i
 54.8  27.2066  29.1214 i
 54.85  19.997  29.1201 i
 54.9  27.0571  29.1189 i
 54.95  24.4139  29.1184 i
 55  34.4663  29.1179 i
 55.05  25.755  29.1178 i
 55.1  27.048  29.1177 i
 55.15  27.4988  29.1172 i
 55.2  29.5028  29.1167 i
 55.25  30.6418  29.1159 i
 55.3  30.4462  29.1152 i
 55.35  26.2053  29.1149 i
 55.4  37.9142  29.1147 i
 55.45  31.6893  29.1151 i
 55.5  31.8722  29.1155 i
 55.55  35.4997  29.1156 i
 55.6  32.245  29.1158 i
 55.65  30.7244  29.1154 i
 55.7  34.9404  29.1151 i
 55.75  29.2784  29.1151 i
 55.8  38.4364  29.1151 i
 55.85  32.6818  29.1157 i
 55.9  27.3658  29.1164 i
 55.95  35.9463  29.117 i
 56  27.1636  29.1176 i
 56.05  31.6079  29.1177 i
 56.1  25.5732  29.1178 i
 56.15  26.8559  29.1179 i
 56.2  28.7111  29.1181 i
 56.25  30.4102  29.119 i
 56.3  25.6945  29.1198 i
 56.35  46.0554  29.1202 i
 56.4  21.5673  29.1219 i
 56.45  29.2658  29.1224 i
 56.5  38.7647  29.1229 i
 56.55  34.3973  29.1233 i
 56.6  36.1798  29.1237 i
 56.65  29.721  29.1247 i
 56.7  43.5931  29.1258 i
 56.75  42.5369  29.1268 i
 56.8  36.0205  29.1285 i
 56.85  31.702  29.1295 i
 56.9  45.3606  29.1304 i
 56.95  38.7644  29.1311 i
 57  29.3356  29.1318 i
 57.05  28.3233  29.133 i
 57.1  32.4044  29.1342 i
 57.15  25.0914  29.1359 i
 57.2  30.8465  29.1376 i
 57.25  29.3317  29.1389 i
 57.3  34.1869  29.1403 i
 57.35  25.8735  29.1412 i
 57.4  28.6907  29.1422 i
 57.45  23.7205  29.1436 i
 57.5  22.1375  29.1449 i
 57.55  25.2014  29.1469 i
 57.6  38.8987  29.1489 i
 57.65  34.1924  29.1506 i
 57.7  30.1855  29.1523 i
 57.75  32.3538  29.1536 i
 57.8  25.8793  29.1548 i
 57.85  24.9716  29.1564 i
 57.9  29.007  29.158 i
 57.95  35.3117  29.1602 i
 58  24.9939  29.1624 i
 58.05  35.1236  29.1645 i
 58.1  40.4648  29.1666 i
 58.15  20.5547  29.1681 i
 58.2  29.9051  29.1697 i
 58.25  27.7473  29.1715 i
 58.3  30.3629  29.1732 i
 58.35  26.9001  29.1757 i
 58.4  26.8081  29.1781 i
 58.45  29.6876  29.1805 i
 58.5  37.2998  29.1829 i
 58.55  39.7795  29.1848 i
 58.6  33.3192  29.1866 i
 58.65  23.7113  29.1886 i
 58.7  37.46  29.1906 i
 58.75  23.2162  29.1933 i
 58.8  33.4817  29.1959 i
 58.85  19.9588  29.1986 i
 58.9  27.999  29.2013 i
 58.95  25.757  29.2035 i
 59  35.5659  29.2056 i
 59.05  29.5895  29.2078 i
 59.1  31.2974  29.21 i
 59.15  28.1202  29.2129 i
 59.2  37.1628  29.2158 i
 59.25  30.003  29.2188 i
 59.3  32.3963  29.2217 i
 59.35  29.1489  29.2241 i
 59.4  33.2066  29.2265 i
 59.45  34.0707  29.229 i
 59.5  29.4898  29.2314 i
 59.55  28.5683  29.2345 i
 59.6  24.1645  29.2377 i
 59.65  25.1939  29.2409 i
 59.7  32.9227  29.2441 i
 59.75  40.3681  29.2468 i
 59.8  34.4669  29.2494 i
 59.85  25.1585  29.2521 i
 59.9  27.9031  29.2548 i
 59.95  38.2508  29.2525 i
 60  30.9981  29.2503 i
 60.05  34.4581  29.2534 i
 60.1  25.5974  29.2566 i
 60.15  24.4541  29.2597 i
 60.2  30.0892  29.2629 i
 60.25  31.7191  29.2661 i
 60.3  33.5255  29.2693 i
 60.35  29.3524  29.2727 i
 60.4  36.141  29.276 i
 60.45  34.1209  29.2794 i
 60.5  34.0724  29.2827 i
 60.55  26.6117  29.2861 i
 60.6  24.4015  29.2895 i
 60.65  25.6752  29.293 i
 60.7  23.5943  29.2964 i
 60.75  37.401  29.3 i
 60.8  33.5989  29.3036 i
 60.85  31.5647  29.3072 i
 60.9  31.3644  29.3108 i
 60.95  17.3473  29.3144 i
 61  24.0161  29.318 i
 61.05  41.4025  29.3217 i
 61.1  38.1085  29.3254 i
 61.15  34.5906  29.3293 i
 61.2  34.9258  29.3331 i
 61.25  24.2594  29.3369 i
 61.3  26.5075  29.3408 i
 61.35  23.1835  29.3446 i
 61.4  30.3417  29.3485 i
 61.45  24.8126  29.3525 i
 61.5  30.6241  29.3565 i
 61.55  26.8249  29.3606 i
 61.6  30.8481  29.3647 i
 61.65  34.5011  29.3688 i
 61.7  33.1219  29.3729 i
 61.75  32.1926  29.3771 i
 61.8  20.3333  29.3813 i
 61.85  30.1637  29.3856 i
 61.9  35.8625  29.3899 i
 61.95  28.2334  29.3943 i
 62  25.9097  29.3987 i
 62.05  21.2511  29.4032 i
 62.1  33.8374  29.4076 i
 62.15  32.8678  29.4122 i
 62.2  27.8103  29.4167 i
 62.25  37.7037  29.4214 i
 62.3  32.8878  29.4262 i
 62.35  33.1621  29.431 i
 62.4  24.6608  29.4359 i
 62.45  35.4724  29.4409 i
 62.5  27.0785  29.4458 i
 62.55  28.6063  29.4509 i
 62.6  29.1383  29.456 i
 62.65  27.089  29.4614 i
 62.7  30.7648  29.4668 i
 62.75  26.3654  29.4724 i
 62.8  29.554  29.478 i
 62.85  19.1871  29.4838 i
 62.9  41.1347  29.4896 i
 62.95  31.1773  29.4958 i
 63  32.7736  29.5019 i
 63.05  31.148  29.5086 i
 63.1  23.2743  29.5153 i
 63.15  29.7061  29.5225 i
 63.2  21.389  29.5297 i
 63.25  24.0445  29.5376 i
 63.3  31.3655  29.5455 i
 63.35  34.4312  29.5546 i
 63.4  34.8995  29.5637 i
 63.45  28.9771  29.5754 i
 63.5  29.0094  29.5872 i
 63.55  30.3079  29.6082 i
 63.6  28.9654  29.6292 i
 63.65  29.6827  29.6672 i
 63.7  39.2041  29.7051 i
 63.75  25.1204  29.7383 i
 63.8  31.6075  29.7715 i
 63.85  21.3968  29.8062 i
 63.9  26.3006  29.8409 i
 63.95  27.2398  29.8864 i
 64  37.4973  29.9319 i
 64.05  18.9878  29.997 i
 64.1  27.356  30.0622 i
 64.15  29.9449  30.1631 i
 64.2  32.8813  30.2639 i
 64.25  30.4024  30.4356 i
 64.3  30.4355  30.6073 i
 64.35  41.435  30.9427 i
 64.4  31.689  31.2781 i
 64.45  31.3191  32.0971 i
 64.5  38.5573  32.916 i
 64.55  34.1538  34.7894 i
 64.6  57.507  38.5714 i
 64.65  56.0474  46.7016 i
 64.7  77.1734  63.6631 i
 64.75  93.3635  93.7273 i
 64.8  130.998  131.374 i
 64.85  140.542  154.352 i
 64.9  138.201  140.731 i
 64.95  84.544  100.975 i
 65  86.4943  65.8209 i
 65.05  49.9816  47.2592 i
 65.1  45.4336  38.1288 i
 65.15  30.6321  35.3454 i
 65.2  33.2327  32.5619 i
 65.25  34.8144  31.8129 i
 65.3  25.8864  31.0638 i
 65.35  34.5619  30.7798 i
 65.4  34.5678  30.4958 i
 65.45  34.5717  30.3624 i
 65.5  42.9745  30.2289 i
 65.55  43.2153  30.1575 i
 65.6  30.9177  30.086 i
 65.65  30.5861  30.0442 i
 65.7  30.9474  30.0025 i
 65.75  34.0415  29.9769 i
 65.8  31.2791  29.9512 i
 65.85  26.408  29.9349 i
 65.9  32.5767  29.9186 i
 65.95  31.6389  29.9054 i
 66  34.0363  29.8922 i
 66.05  30.1529  29.8767 i
 66.1  23.5213  29.8613 i
 66.15  26.6193  29.8541 i
 66.2  33.5589  29.847 i
 66.25  37.0723  29.8458 i
 66.3  30.1206  29.8447 i
 66.35  26.665  29.8452 i
 66.4  35.118  29.8458 i
 66.45  29.526  29.8474 i
 66.5  29.6647  29.849 i
 66.55  22.6774  29.8514 i
 66.6  32.3018  29.8539 i
 66.65  25.5633  29.8568 i
 66.7  26.756  29.8597 i
 66.75  33.5586  29.8629 i
 66.8  24.9422  29.866 i
 66.85  23.1294  29.8696 i
 66.9  19.4453  29.8732 i
 66.95  33.3654  29.8771 i
 67  22.2437  29.881 i
 67.05  17.5329  29.885 i
 67.1  26.732  29.889 i
 67.15  39.3365  29.8931 i
 67.2  24.3805  29.8972 i
 67.25  34.5962  29.9017 i
 67.3  43.4606  29.9061 i
 67.35  31.4021  29.9106 i
 67.4  37.7339  29.9151 i
 67.45  36.5406  29.9196 i
 67.5  27.175  29.9241 i
 67.55  27.5913  29.9287 i
 67.6  37.1591  29.9333 i
 67.65  33.6231  29.9381 i
 67.7  33.0331  29.9429 i
 67.75  28.4957  29.9477 i
 67.8  31.5601  29.9525 i
 67.85  27.9058  29.9572 i
 67.9  26.0222  29.9619 i
 67.95  21.0982  29.9669 i
 68  29.2828  29.9718 i
 68.05  20.9556  29.9768 i
 68.1  29.4992  29.9818 i
 68.15  26.9162  29.9867 i
 68.2  28.9512  29.9916 i
 68.25  39.1714  29.9965 i
 68.3  37.5046  30.0015 i
 68.35  25.7077  30.0066 i
 68.4  38.8754  30.0117 i
 68.45  32.4066  30.0168 i
 68.5  41.3952  30.0218 i
 68.55  31.3949  30.0268 i
 68.6  34.9145  30.0318 i
 68.65  30.6778  30.0369 i
 68.7  27.3342  30.042 i
 68.75  34.34  30.0472 i
 68.8  31.0936  30.0524 i
 68.85  22.7808  30.0574 i
 68.9  23.778  30.0624 i
 68.95  27.1934  30.0675 i
 69  40.1503  30.0726 i
 69.05  39.2177  30.0779 i
 69.1  29.2149  30.0831 i
 69.15  19.8343  30.0882 i
 69.2  22.3496  30.0934 i
 69.25  29.3671  30.0984 i
 69.3  33.5951  30.1035 i
 69.35  34.7911  30.1087 i
 69.4  34.4323  30.1139 i
 69.45  32.2934  30.1191 i
 69.5  22.0362  30.1244 i
 69.55  39.0088  30.1294 i
 69.6  34.9458  30.1345 i
 69.65  36.4179  30.1397 i
 69.7  31.792  30.1448 i
 69.75  25.412  30.1501 i
 69.8  26.3511  30.1553 i
 69.85  34.9698  30.1605 i
 69.9  34.4616  30.1656 i
 69.95  33.5315  30.1707 i
 70  23.7656  30.1758 i
 70.05  37.1546  30.181 i
 70.1  28.4014  30.1862 i
 70.15  27.0862  30.1914 i
 70.2  32.5499  30.1966 i
 70.25  30.0771  30.2017 i
 70.3  27.8764  30.2067 i
 70.35  28.3765  30.2119 i
 70.4  25.9228  30.217 i
 70.45  30.1307  30.2223 i
 70.5  26.4985  30.2275 i
 70.55  26.522  30.2326 i
 70.6  29.8555  30.2377 i
 70.65  26.4111  30.2427 i
 70.7  34.4922  30.2478 i
 70.75  33.4925  30.253 i
 70.8  25.8902  30.2582 i
 70.85  26.6116  30.2633 i
 70.9  20.3063  30.2684 i
 70.95  26.8388  30.2734 i
 71  26.5893  30.2784 i
 71.05  30.1253  30.2835 i
 71.1  36.6164  30.2887 i
 71.15  38.614  30.2938 i
 71.2  24.3532  30.299 i
 71.25  26.4842  30.3039 i
 71.3  29.491  30.3089 i
 71.35  24.5377  30.3139 i
 71.4  25.2413  30.3189 i
 71.45  23.6242  30.3241 i
 71.5  25.9276  30.3292 i
 71.55  29.55  30.3342 i
 71.6  31.8424  30.3392 i
 71.65  36.8671  30.3441 i
 71.7  30.4799  30.349 i
 71.75  34.8286  30.3541 i
 71.8  33.8504  30.3591 i
 71.85  30.2497  30.3641 i
 71.9  18.3247  30.3691 i
 71.95  25.1451  30.374 i
 72  24.5693  30.3788 i
 72.05  33.7637  30.3838 i
 72.1  34.9124  30.3887 i
 72.15  27.5239  30.3938 i
 72.2  32.8609  30.3988 i
 72.25  20.096  30.4036 i
 72.3  28.0578  30.4083 i
 72.35  22.134  30.4132 i
 72.4  30.7525  30.418 i
 72.45  30.5466  30.423 i
 72.5  29.9378  30.428 i
 72.55  28.6909  30.4328 i
 72.6  28.0295  30.4375 i
 72.65  31.8984  30.4423 i
 72.7  35.1522  30.447 i
 72.75  33.927  30.4519 i
 72.8  35.2966  30.4568 i
 72.85  32.795  30.4615 i
 72.9  37.1849  30.4663 i
 72.95  28.2584  30.471 i
 73  32.1942  30.4756 i
 73.05  31.6882  30.4803 i
 73.1  26.6807  30.4851 i
 73.15  34.0966  30.4899 i
 73.2  32.6408  30.4947 i
 73.25  37.3697  30.4992 i
 73.3  28.5436  30.5038 i
 73.35  31.5039  30.5084 i
 73.4  25.3075  30.513 i
 73.45  29.7824  30.5178 i
 73.5  37.4717  30.5225 i
 73.55  32.8707  30.527 i
 73.6  25.8975  30.5315 i
 73.65  32.2801  30.536 i
 73.7  30.759  30.5405 i
 73.75  32.9912  30.5451 i
 73.8  39.1482  30.5498 i
 73.85  31.476  30.5543 i
 73.9  27.9186  30.5587 i
 73.95  27.5089  30.5631 i
 74  22.17  30.5674 i
 74.05  25.481  30.572 i
 74.1  23.8764  30.5765 i
 74.15  26.0438  30.581 i
 74.2  31.864  30.5854 i
 74.25  29.7933  30.5897 i
 74.3  30.1179  30.5939 i
 74.35  30.5336  30.5983 i
 74.4  27.8262  30.6027 i
 74.45  24.9988  30.6072 i
 74.5  34.8327  30.6116 i
 74.55  36.6574  30.6159 i
 74.6  24.4083  30.6201 i
 74.65  42.3221  30.6246 i
 74.7  31.8629  30.6291 i
 74.75  26.5337  30.6338 i
 74.8  17.6964  30.6384 i
 74.85  33.1714  30.6429 i
 74.9  29.4827  30.6474 i
 74.95  33.0591  30.652 i
 75  25.7492  30.6567 i
 75.05  23.2727  30.6615 i
 75.1  39.5966  30.6664 i
 75.15  28.7815  30.6711 i
 75.2  38.6127  30.6759 i
 75.25  27.6489  30.6806 i
 75.3  21.2795  30.6854 i
 75.35  29.3067  30.6905 i
 75.4  30.4609  30.6955 i
 75.45  25.3159  30.7005 i
 75.5  36.3741  30.7055 i
 75.55  36.9649  30.7104 i
 75.6  29.0073  30.7153 i
 75.65  23.0896  30.7205 i
 75.7  24.1046  30.7257 i
 75.75  24.9946  30.7309 i
 75.8  33.8562  30.7361 i
 75.85  34.5579  30.7412 i
 75.9  38.3091  30.7462 i
 75.95  29.339  30.7516 i
 76  29.7583  30.7569 i
 76.05  26.4374  30.7623 i
 76.1  29.8073  30.7677 i
 76.15  35.0937  30.7729 i
 76.2  33.1754  30.7781 i
 76.25  23.6934  30.7836 i
 76.3  27.7044  30.7891 i
 76.35  35.1919  30.7947 i
 76.4  31.2959  30.8003 i
 76.45  25.7723  30.8057 i
 76.5  24.4918  30.811 i
 76.55  28.2011  30.8167 i
 76.6  33.6364  30.8223 i
 76.65  35.0458  30.828 i
 76.7  27.5208  30.8338 i
 76.75  25.8209  30.8393 i
 76.8  33.9092  30.8449 i
 76.85  22.8391  30.8506 i
 76.9  22.2033  30.8563 i
 76.95  23.7185  30.8622 i
 77  23.6096  30.8682 i
 77.05  21.1062  30.8739 i
 77.1  27.5137  30.8796 i
 77.15  29.1277  30.8854 i
 77.2  33.6644  30.8912 i
 77.25  24.4314  30.8973 i
 77.3  25.8579  30.9034 i
 77.35  29.1229  30.9093 i
 77.4  26.1967  30.9151 i
 77.45  29.6874  30.921 i
 77.5  33.5148  30.9269 i
 77.55  28.4131  30.9332 i
 77.6  23.0613  30.9395 i
 77.65  16.7403  30.9455 i
 77.7  26.6324  30.9515 i
 77.75  39.1682  30.9575 i
 77.8  27.55  30.9635 i
 77.85  29.5726  30.9699 i
 77.9  29.2624  30.9764 i
 77.95  28.284  30.9825 i
 78  29.6901  30.9887 i
 78.05  30.7493  30.9948 i
 78.1  32.434  31.001 i
 78.15  25.7791  31.0076 i
 78.2  28.467  31.0142 i
 78.25  24.0621  31.0205 i
 78.3  24.5743  31.0268 i
 78.35  30.9411  31.0331 i
 78.4  28.4336  31.0393 i
 78.45  24.7524  31.0461 i
 78.5  31.5448  31.0529 i
 78.55  31.145  31.0594 i
 78.6  28.9138  31.0659 i
 78.65  28.9656  31.0723 i
 78.7  31.5003  31.0787 i
 78.75  23.2805  31.0857 i
 78.8  33.993  31.0927 i
 78.85  34.2957  31.0994 i
 78.9  38.6198  31.1061 i
 78.95  23.0598  31.1127 i
 79  32.5388  31.1194 i
 79.05  29.9064  31.1266 i
 79.1  19.7132  31.1339 i
 79.15  25.6103  31.1408 i
 79.2  24.848  31.1478 i
 79.25  28.6356  31.1547 i
 79.3  30.734  31.1616 i
 79.35  32.7675  31.1692 i
 79.4  37.1285  31.1768 i
 79.45  29.537  31.1846 i
 79.5  25.0901  31.1923 i
 79.55  39.2385  31.1996 i
 79.6  31.0931  31.2069 i
 79.65  28.4564  31.215 i
 79.7  29.9053  31.2231 i
 79.75  32.2078  31.231 i
 79.8  23.7629  31.239 i
 79.85  31.4927  31.2469 i
 79.9  25.6387  31.2548 i
 79.95  40.5422  31.2638 i
 80  26.8413  31.2728 i
 80.05  22.7455  31.2816 i
 80.1  30.4129  31.2905 i
 80.15  24.9388  31.2996 i
 80.2  24.3861  31.3087 i
 80.25  22.9927  31.3192 i
 80.3  30.7887  31.3297 i
 80.35  26.4898  31.3403 i
 80.4  38.7109  31.3509 i
 80.45  21.4535  31.3623 i
 80.5  27.0335  31.3737 i
 80.55  39.3368  31.3873 i
 80.6  41.1676  31.401 i
 80.65  29.0845  31.4157 i
 80.7  24.3848  31.4305 i
 80.75  25.1725  31.4488 i
 80.8  23.3962  31.4672 i
 80.85  36.6726  31.5001 i
 80.9  32.4584  31.5331 i
 80.95  34.427  31.6127 i
 81  28.8769  31.6924 i
 81.05  27.0823  31.7546 i
 81.1  26.4852  31.8168 i
 81.15  25.5895  31.8798 i
 81.2  31.7581  31.9428 i
 81.25  24.8356  32.0249 i
 81.3  31.0266  32.107 i
 81.35  27.464  32.2264 i
 81.4  38.2997  32.3459 i
 81.45  35.3726  32.5316 i
 81.5  21.0823  32.7173 i
 81.55  28.4724  33.0295 i
 81.6  36.0237  33.3417 i
 81.65  30.0884  33.9488 i
 81.7  30.1811  34.5559 i
 81.75  35.0079  36.0134 i
 81.8  41.5676  37.4709 i
 81.85  31.5584  42.6966 i
 81.9  59.1588  47.9223 i
 81.95  80.9349  65.0895 i
 82  125.753  106.689 i
 82.05  201.337  187.678 i
 82.1  272.922  283.328 i
 82.15  290.01  308.756 i
 82.2  228.493  226.752 i
 82.25  115.901  125.833 i
 82.3  81.8352  70.4884 i
 82.35  56.6358  49.7277 i
 82.4  42.0618  40.8122 i
 82.45  37.106  38.0649 i
 82.5  32.2949  35.3176 i
 82.55  36.3754  34.4522 i
 82.6  42.1452  33.5869 i
 82.65  28.3212  33.2113 i
 82.7  34.9018  32.8357 i
 82.75  32.8197  32.6438 i
 82.8  22.8048  32.4518 i
 82.85  33.462  32.34 i
 82.9  23.3978  32.2282 i
 82.95  33.4151  32.1588 i
 83  27.9084  32.0895 i
 83.05  23.8893  32.0455 i
 83.1  27.1283  32.0015 i
 83.15  37.0245  31.9693 i
 83.2  31.3796  31.937 i
 83.25  38.3221  31.9034 i
 83.3  27.8523  31.8698 i
 83.35  21.5503  31.8357 i
 83.4  22.7304  31.8016 i
 83.45  36.6339  31.7902 i
 83.5  30.6654  31.7788 i
 83.55  27.616  31.7745 i
 83.6  24.9472  31.7702 i
 83.65  29.1409  31.7682 i
 83.7  26.4912  31.7662 i
 83.75  31.2018  31.7649 i
 83.8  20.3905  31.7637 i
 83.85  25.9495  31.7645 i
 83.9  35.5264  31.7653 i
 83.95  26.0225  31.7665 i
 84  31.9261  31.7677 i
 84.05  28.9783  31.7691 i
 84.1  28.1164  31.7706 i
 84.15  37.4911  31.7734 i
 84.2  27.9047  31.7762 i
 84.25  35.8338  31.7787 i
 84.3  27.528  31.7811 i
 84.35  35.6899  31.784 i
 84.4  26.0067  31.7868 i
 84.45  26.8285  31.7905 i
 84.5  36.6573  31.7941 i
 84.55  31.5955  31.7972 i
 84.6  36.4477  31.8003 i
 84.65  18.9257  31.8039 i
 84.7  39.1499  31.8076 i
 84.75  22.9137  31.8116 i
 84.8  39.3489  31.8155 i
 84.85  33.0331  31.8189 i
 84.9  25.8977  31.8223 i
 84.95  18.9295  31.8265 i
 85  29.2277  31.8306 i
 85.05  27.9025  31.8345 i
 85.1  25.8667  31.8385 i
 85.15  33.0877  31.8422 i
 85.2  29.446  31.8458 i
 85.25  29.6791  31.8501 i
 85.3  21.3994  31.8544 i
 85.35  26.6558  31.8583 i
 85.4  30.8983  31.8621 i
 85.45  21.803  31.866 i
 85.5  27.2952  31.8698 i
 85.55  31.3216  31.8741 i
 85.6  37.3377  31.8784 i
 85.65  29.6665  31.8821 i
 85.7  31.5125  31.8858 i
 85.75  23.1331  31.8898 i
 85.8  35.1836  31.8938 i
 85.85  32.0507  31.8979 i
 85.9  33.9229  31.902 i
 85.95  27.6168  31.9056 i
 86  30.1984  31.9092 i
 86.05  38.6335  31.9132 i
 86.1  29.0438  31.9173 i
 86.15  38.3576  31.9211 i
 86.2  27.3519  31.9249 i
 86.25  21.3121  31.9284 i
 86.3  27.2174  31.932 i
 86.35  28.9234  31.936 i
 86.4  22.895  31.9399 i
 86.45  28.8922  31.9434 i
 86.5  22.88  31.9469 i
 86.55  34.8545  31.9505 i
 86.6  39.2595  31.9541 i
 86.65  23.9044  31.9578 i
 86.7  29.6679  31.9615 i
 86.75  41.6438  31.9648 i
 86.8  33.3404  31.968 i
 86.85  27.8867  31.9716 i
 86.9  32.1615  31.9751 i
 86.95  32.8499  31.9785 i
 87  22.8166  31.9819 i
 87.05  28.6601  31.985 i
 87.1  24.6814  31.9881 i
 87.15  26.6025  31.9915 i
 87.2  32.6764  31.9949 i
 87.25  29.9711  31.998 i
 87.3  30.0376  32.001 i
 87.35  32.831  32.004 i
 87.4  30.1787  32.007 i
 87.45  32.5293  32.0102 i
 87.5  28.9088  32.0133 i
 87.55  25.066  32.0161 i
 87.6  28.1342  32.0188 i
 87.65  34.3306  32.0217 i
 87.7  32.6755  32.0247 i
 87.75  28.2063  32.0274 i
 87.8  28.2439  32.0302 i
 87.85  33.4079  32.0327 i
 87.9  25.1257  32.0352 i
 87.95  33.7044  32.038 i
 88  38.4745  32.0408 i
 88.05  28.8775  32.0431 i
 88.1  32.5916  32.0455 i
 88.15  23.9138  32.0479 i
 88.2  29.2334  32.0503 i
 88.25  30.7421  32.0528 i
 88.3  16.9411  32.0552 i
 88.35  39.8475  32.0572 i
 88.4  29.0364  32.0593 i
 88.45  32.2394  32.0615 i
 88.5  35.0021  32.0638 i
 88.55  21.6807  32.0658 i
 88.6  32.9028  32.0679 i
 88.65  21.6855  32.0697 i
 88.7  35.5216  32.0715 i
 88.75  27.2261  32.0735 i
 88.8  28.9834  32.0756 i
 88.85  40.9778  32.0772 i
 88.9  28.2339  32.0788 i
 88.95  27.1072  32.0805 i
 89  29.1042  32.0822 i
 89.05  27.4345  32.0838 i
 89.1  30.3772  32.0854 i
 89.15  30.9529  32.0867 i
 89.2  26.1232  32.088 i
 89.25  29.8692  32.0895 i
 89.3  31.7141  32.091 i
 89.35  32.3612  32.0921 i
 89.4  39.5375  32.0933 i
 89.45  29.6782  32.0944 i
 89.5  25.0268  32.0955 i
 89.55  26.226  32.0966 i
 89.6  38.163  32.0978 i
 89.65  34.2386  32.0985 i
 89.7  30.3437  32.0993 i
 89.75  30.2211  32.1002 i
 89.8  21.6144  32.1011 i
 89.85  26.0658  32.1018 i
 89.9  29.6976  32.1025 i
 89.95  31.9983  32.103 i
 90  25.1133  32.1035 i
 90.05  39.3035  32.1041 i
 90.1  33.1481  32.1047 i
 90.15  33.348  32.1049 i
 90.2  18.1046  32.1051 i
 90.25  23.0433  32.1054 i
 90.3  26.3932  32.1057 i
 90.35  30.5716  32.1059 i
 90.4  25.2718  32.106 i
 90.45  34.2709  32.1059 i
 90.5  24.3  32.1058 i
 90.55  32.6726  32.1058 i
 90.6  31.0285  32.1058 i
 90.65  30.6299  32.1054 i
 90.7  28.2824  32.105 i
 90.75  41.6055  32.1046 i
 90.8  33.2273  32.1042 i
 90.85  26.5924  32.1036 i
 90.9  42.1154  32.1031 i
 90.95  27.185  32.1023 i
 91  19.8277  32.1014 i
 91.05  27.5497  32.1007 i
 91.1  32.4  32.0999 i
 91.15  32.2343  32.0988 i
 91.2  35.6505  32.0977 i
 91.25  39.8455  32.0966 i
 91.3  25.3055  32.0955 i
 91.35  25.8826  32.0943 i
 91.4  35.4364  32.0931 i
 91.45  30.8476  32.0915 i
 91.5  30.2833  32.09 i
 91.55  20.6298  32.0885 i
 91.6  29.1618  32.0871 i
 91.65  29.4809  32.0854 i
 91.7  31.2338  32.0836 i
 91.75  28.3833  32.0818 i
 91.8  27.0281  32.08 i
 91.85  20.3496  32.0782 i
 91.9  27.543  32.0763 i
 91.95  27.2605  32.0741 i
 92  30.6869  32.0719 i
 92.05  35.6652  32.0699 i
 92.1  29.0379  32.0679 i
 92.15  23.6908  32.0655 i
 92.2  28.3805  32.0631 i
 92.25  29.036  32.0607 i
 92.3  35.5916  32.0583 i
 92.35  28.752  32.0558 i
 92.4  28.6815  32.0534 i
 92.45  27.9669  32.0506 i
 92.5  36.0393  32.0478 i
 92.55  24.8486  32.0452 i
 92.6  32.0705  32.0425 i
 92.65  23.603  32.0396 i
 92.7  28.9185  32.0366 i
 92.75  28.4998  32.0337 i
 92.8  23.3513  32.0307 i
 92.85  29.5013  32.0277 i
 92.9  30.1001  32.0246 i
 92.95  35.0862  32.0213 i
 93  27.1896  32.018 i
 93.05  35.2035  32.0149 i
 93.1  30.6276  32.0117 i
 93.15  36.7706  32.0082 i
 93.2  28.5533  32.0047 i
 93.25  28.0802  32.0012 i
 93.3  35.1962  31.9978 i
 93.35  30.5692  31.9942 i
 93.4  31.7742  31.9907 i
 93.45  31.4674  31.9869 i
 93.5  29.2062  31.9831 i
 93.55  24.8247  31.9798 i
 93.6  26.4289  31.9765 i
 93.65  23.3329  31.9725 i
 93.7  26.1126  31.9685 i
 93.75  21.7254  31.9646 i
 93.8  26.4467  31.9608 i
 93.85  29.1616  31.9567 i
 93.9  18.6514  31.9527 i
 93.95  22.1553  31.9487 i
 94  22.2347  31.9443 i
 94.05  31.9536  31.9402 i
 94.1  33.7966  31.9362 i
 94.15  32.6424  31.9317 i
 94.2  10.7776  31.9273 i
 94.25  23.3241  31.9231 i
 94.3  29.0883  31.9189 i
 94.35  24.5275  31.9144 i
 94.4  31.7447  31.9099 i
 94.45  30.2444  31.9054 i
 94.5  20.8884  31.9009 i
 94.55  31.2994  31.8964 i
 94.6  27.9483  31.892 i
 94.65  26.7439  31.8872 i
 94.7  20.1682  31.8824 i
 94.75  36.5514  31.8779 i
 94.8  28.615  31.8734 i
 94.85  34.912  31.8686 i
 94.9  35.65  31.8637 i
 94.95  31.3487  31.859 i
 95  33.084  31.8543 i
 95.05  26.1786  31.8495 i
 95.1  26.9811  31.8447 i
 95.15  37.5457  31.8397 i
 95.2  15.2935  31.8348 i
 95.25  27.0564  31.83 i
 95.3  22.3637  31.8253 i
 95.35  27.3966  31.8202 i
 95.4  26.7912  31.8151 i
 95.45  35.4195  31.8103 i
 95.5  31.049  31.8055 i
 95.55  31.3759  31.8005 i
 95.6  42.2209  31.7954 i
 95.65  26.9932  31.7905 i
 95.7  33.8053  31.7855 i
 95.75  31.1653  31.7806 i
 95.8  34.0004  31.7758 i
 95.85  27.2408  31.7707 i
 95.9  27.1328  31.7656 i
 95.95  22.8034  31.7609 i
 96  29.9986  31.7562 i
 96.05  27.5256  31.7511 i
 96.1  36.0953  31.7461 i
 96.15  27.8521  31.7415 i
 96.2  40.111  31.7369 i
 96.25  36.6665  31.7321 i
 96.3  26.6931  31.7273 i
 96.35  33.6237  31.7228 i
 96.4  25.7229  31.7182 i
 96.45  33.9574  31.7139 i
 96.5  39.4341  31.7097 i
 96.55  23.492  31.7053 i
 96.6  28.0522  31.7009 i
 96.65  23.5119  31.6972 i
 96.7  24.5518  31.6936 i
 96.75  35.0106  31.6898 i
 96.8  25.5393  31.686 i
 96.85  26.2309  31.6831 i
 96.9  30.1479  31.6802 i
 96.95  24.8242  31.6777 i
 97  27.28  31.6751 i
 97.05  36.8215  31.6734 i
 97.1  33.479  31.6718 i
 97.15  29.3382  31.6715 i
 97.2  23.9933  31.6713 i
 97.25  23.8954  31.6726 i
 97.3  20.8169  31.6739 i
 97.35  28.3133  31.6809 i
 97.4  30.7852  31.6878 i
 97.45  33.71  31.7082 i
 97.5  40.3987  31.7287 i
 97.55  29.2908  31.7555 i
 97.6  30.0829  31.7823 i
 97.65  33.8858  31.8082 i
 97.7  31.9837  31.834 i
 97.75  31.3083  31.8711 i
 97.8  33.029  31.9081 i
 97.85  28.0556  31.9654 i
 97.9  26.6641  32.0228 i
 97.95  31.5085  32.1168 i
 98  26.0596  32.2108 i
 98.05  33.0411  32.3784 i
 98.1  31.3709  32.546 i
 98.15  26.9546  32.8774 i
 98.2  21.0466  33.2088 i
 98.25  31.1284  34.003 i
 98.3  39.8646  34.7972 i
 98.35  27.6265  37.3254 i
 98.4  42.5923  39.8536 i
 98.45  63.1325  47.1438 i
 98.5  53.5052  61.126 i
 98.55  91.1127  88.0869 i
 98.6  125.566  126.402 i
 98.65  162.348  158.084 i
 98.7  167.645  157.986 i
 98.75  119.999  125.832 i
 98.8  80.1332  87.7213 i
 98.85  62.4565  61.6639 i
 98.9  57.2333  47.8688 i
 98.95  42.4041  41.0526 i
 99  36.4898  37.5499 i
 99.05  35.5474  35.9902 i
 99.1  28.6489  34.4306 i
 99.15  31.8868  33.7975 i
 99.2  28.4925  33.1644 i
 99.25  28.4476  32.8476 i
 99.3  26.6716  32.5309 i
 99.35  31.8549  32.3496 i
 99.4  25.2152  32.1683 i
 99.45  21.7185  32.0526 i
 99.5  29.1969  31.9369 i
 99.55  35.8804  31.8585 i
 99.6  32.5827  31.7801 i
 99.65  35.79  31.7205 i
 99.7  41.6088  31.6609 i
 99.75  23.8862  31.6064 i
 99.8  31.8469  31.5519 i
 99.85  26.1777  31.4873 i
 99.9  25.569  31.4227 i
 99.95  40.8276  31.3857 i
 100  33.3382  31.3486 i
 100.05  27.3328  31.3293 i
 100.1  33.3231  31.3099 i
 100.15  37.2203  31.2957 i
 100.2  30.9277  31.2814 i
 100.25  36.6431  31.2694 i
 100.3  33.0989  31.2575 i
 100.35  25.4304  31.2464 i
 100.4  33.3918  31.2353 i
 100.45  27.5131  31.2256 i
 100.5  36.989  31.2159 i
 100.55  27.988  31.2063 i
 100.6  28.5961  31.1967 i
 100.65  27.8422  31.1882 i
 100.7  26.5764  31.1797 i
 100.75  23.5716  31.171 i
 100.8  31.1095  31.1623 i
 100.85  35.8481  31.1545 i
 100.9  26.2116  31.1467 i
 100.95  29.2889  31.1388 i
 101  36.4682  31.1309 i
 101.05  24.7089  31.1234 i
 101.1  32.3988  31.116 i
 101.15  30.9538  31.1086 i
 101.2  28.4113  31.1013 i
 101.25  22.5347  31.0941 i
 101.3  35.3141  31.0869 i
 101.35  35.4485  31.08 i
 101.4  29.911  31.0732 i
 101.45  24.1322  31.0662 i
 101.5  37.9833  31.0591 i
 101.55  30.44  31.0527 i
 101.6  35.3052  31.0462 i
 101.65  24.6459  31.0393 i
 101.7  29.9688  31.0325 i
 101.75  36.3174  31.0263 i
 101.8  20.5382  31.02 i
 101.85  30.3793  31.0134 i
 101.9  28.5719  31.0069 i
 101.95  34.0666  31 i
 102  28.6424  30.9931 i
 102.05  28.3518  30.9869 i
 102.1  32.919  30.9806 i
 102.15  28.0351  30.9745 i
 102.2  25.2501  30.9684 i
 102.25  26.5138  30.9625 i
 102.3  28.8091  30.9566 i
 102.35  30.2142  30.9506 i
 102.4  28.4446  30.9446 i
 102.45  29.3133  30.9389 i
 102.5  30.105  30.9332 i
 102.55  23.5209  30.9273 i
 102.6  31.2134  30.9214 i
 102.65  28.6144  30.916 i
 102.7  32.9143  30.9105 i
 102.75  28.511  30.9048 i
 102.8  24.3569  30.899 i
 102.85  24.2163  30.8937 i
 102.9  27.4712  30.8884 i
 102.95  35.0067  30.8829 i
 103  24.133  30.8773 i
 103.05  26.7605  30.8721 i
 103.1  34.7819  30.8669 i
 103.15  36.999  30.8616 i
 103.2  29.6338  30.8564 i
 103.25  28.6998  30.8513 i
 103.3  31.6295  30.8462 i
 103.35  31.0552  30.8411 i
 103.4  28.6465  30.8361 i
 103.45  34.5375  30.8311 i
 103.5  36.5434  30.8261 i
 103.55  29.0084  30.8213 i
 103.6  26.4439  30.8165 i
 103.65  33.9435  30.8116 i
 103.7  27.0234  30.8067 i
 103.75  32.0914  30.8021 i
 103.8  31.6822  30.7975 i
 103.85  20.1524  30.7928 i
 103.9  39.2962  30.7881 i
 103.95  27.6145  30.7837 i
 104  22.4968  30.7794 i
 104.05  25.7698  30.7748 i
 104.1  30.484  30.7703 i
 104.15  23.0918  30.7661 i
 104.2  25.1521  30.7619 i
 104.25  38.47  30.7576 i
 104.3  32.7419  30.7532 i
 104.35  27.1274  30.7492 i
 104.4  27.0946  30.7452 i
 104.45  29.336  30.7411 i
 104.5  32.2853  30.737 i
 104.55  27.3731  30.7331 i
 104.6  35.0044  30.7293 i
 104.65  33.6283  30.7254 i
 104.7  26.8915  30.7216 i
 104.75  22.3162  30.7179 i
 104.8  33.0134  30.7142 i
 104.85  34.4845  30.7106 i
 104.9  33.4021  30.707 i
 104.95  31.7736  30.7035 i
 105  38.5513  30.7 i
 105.05  38.8448  30.6966 i
 105.1  31.3453  30.6933 i
 105.15  46.901  30.69 i
 105.2  30.2521  30.6866 i
 105.25  27.0555  30.6835 i
 105.3  27.2014  30.6804 i
 105.35  37.2661  30.6773 i
 105.4  20.6294  30.6742 i
 105.45  30.4425  30.6714 i
 105.5  35.8572  30.6685 i
 105.55  33.897  30.6656 i
 105.6  38.6287  30.6627 i
 105.65  28.5333  30.6601 i
 105.7  36.0289  30.6575 i
 105.75  32.9534  30.6548 i
 105.8  30.4054  30.6522 i
 105.85  26.0733  30.6498 i
 105.9  32.8631  30.6475 i
 105.95  29.5234  30.645 i
 106  31.7938  30.6426 i
 106.05  30.7298  30.6405 i
 106.1  32.7249  30.6384 i
 106.15  25.8185  30.6363 i
 106.2  26.3408  30.6341 i
 106.25  29.7778  30.6322 i
 106.3  29.9377  30.6304 i
 106.35  26.8295  30.6285 i
 106.4  29.6797  30.6266 i
 106.45  33.1362  30.625 i
 106.5  35.7893  30.6234 i
 106.55  28.4438  30.6218 i
 106.6  28.8709  30.6202 i
 106.65  26.5158  30.6188 i
 106.7  26.4388  30.6175 i
 106.75  29.8706  30.6162 i
 106.8  33.8466  30.6149 i
 106.85  24.4944  30.6138 i
 106.9  21.9048  30.6127 i
 106.95  26.5506  30.6117 i
 107  24.9629  30.6107 i
 107.05  33.6854  30.6098 i
 107.1  21.8956  30.609 i
 107.15  25.8335  30.6083 i
 107.2  36.6344  30.6076 i
 107.25  32.1564  30.6071 i
 107.3  28.3505  30.6065 i
 107.35  40.6491  30.6061 i
 107.4  29.0669  30.6057 i
 107.45  19.022  30.6055 i
 107.5  37.1313  30.6052 i
 107.55  24.0285  30.6051 i
 107.6  23.9493  30.605 i
 107.65  18.8693  30.6051 i
 107.7  30.3858  30.6051 i
 107.75  27.0123  30.6053 i
 107.8  35.0013  30.6054 i
 107.85  44.9055  30.6056 i
 107.9  24.2828  30.6058 i
 107.95  40.438  30.6062 i
 108  32.9745  30.6065 i
 108.05  28.5184  30.6069 i
 108.1  42.2013  30.6073 i
 108.15  40.3378  30.6078 i
 108.2  25.4342  30.6084 i
 108.25  37.1387  30.6089 i
 108.3  24.7094  30.6095 i
 108.35  21.3942  30.6102 i
 108.4  26.0256  30.611 i
 108.45  28.6867  30.6117 i
 108.5  25.7006  30.6124 i
 108.55  21.3213  30.6134 i
 108.6  29.1942  30.6143 i
 108.65  35.6426  30.6152 i
 108.7  34.5323  30.6161 i
 108.75  34.6467  30.6172 i
 108.8  28.4721  30.6183 i
 108.85  32.6278  30.6194 i
 108.9  34.7581  30.6205 i
 108.95  35.2337  30.6217 i
 109  32.1858  30.623 i
 109.05  29.3582  30.6243 i
 109.1  35.5235  30.6255 i
 109.15  27.1686  30.627 i
 109.2  23.6572  30.6284 i
 109.25  27.6425  30.6299 i
 109.3  28.3587  30.6313 i
 109.35  21.7229  30.6329 i
 109.4  20.7581  30.6345 i
 109.45  23.2442  30.6362 i
 109.5  24.1788  30.6378 i
 109.55  30.5744  30.6396 i
 109.6  41.6796  30.6413 i
 109.65  31.1915  30.6431 i
 109.7  38.2635  30.6449 i
 109.75  34.1513  30.6469 i
 109.8  28.7562  30.6488 i
 109.85  31.878  30.6508 i
 109.9  21.5876  30.6527 i
 109.95  32.6157  30.6549 i
 110  20.734  30.657 i
 110.05  28.0107  30.6591 i
 110.1  30.2035  30.6613 i
 110.15  29.5798  30.6635 i
 110.2  35.3038  30.6658 i
 110.25  32.2178  30.6681 i
 110.3  29.1102  30.6704 i
 110.35  28.6974  30.6729 i
 110.4  28.6501  30.6753 i
 110.45  31.0126  30.6778 i
 110.5  27.7622  30.6803 i
 110.55  27.5605  30.6829 i
 110.6  26.1067  30.6855 i
 110.65  26.2638  30.6882 i
 110.7  31.9206  30.6908 i
 110.75  23.8921  30.6936 i
 110.8  20.317  30.6964 i
 110.85  28.5491  30.6992 i
 110.9  30.6601  30.702 i
 110.95  30.3562  30.705 i
 111  39.755  30.7079 i
 111.05  32.5764  30.7109 i
 111.1  36.5822  30.7139 i
 111.15  32.7535  30.717 i
 111.2  31.1302  30.7201 i
 111.25  30.5688  30.7233 i
 111.3  28.2545  30.7265 i
 111.35  27.5743  30.7297 i
 111.4  30.2108  30.733 i
 111.45  25.0764  30.7364 i
 111.5  20.4026  30.7398 i
 111.55  32.1485  30.7432 i
 111.6  28.6173  30.7466 i
 111.65  24.1248  30.7502 i
 111.7  26.343  30.7537 i
 111.75  34.0476  30.7574 i
 111.8  38.8817  30.761 i
 111.85  29.5332  30.7647 i
 111.9  26.7756  30.7685 i
 111.95  17.8362  30.7723 i
 112  28.0956  30.7761 i
 112.05  33.3948  30.78 i
 112.1  34.5133  30.784 i
 112.15  33.7953  30.788 i
 112.2  30.5019  30.792 i
 112.25  30.0772  30.7962 i
 112.3  33.8506  30.8004 i
 112.35  30.244  30.8046 i
 112.4  24.341  30.8088 i
 112.45  31.9063  30.8132 i
 112.5  29.8003  30.8176 i
 112.55  32.3489  30.8221 i
 112.6  28.4296  30.8266 i
 112.65  27.1779  30.8312 i
 112.7  29.0831  30.8359 i
 112.75  21.9597  30.8407 i
 112.8  26.0692  30.8454 i
 112.85  37.1654  30.8504 i
 112.9  26.9639  30.8554 i
 112.95  28.2065  30.8604 i
 113  31.6166  30.8655 i
 113.05  27.0373  30.8708 i
 113.1  22.3836  30.8762 i
 113.15  33.2183  30.8817 i
 113.2  28.6408  30.8871 i
 113.25  35.6167  30.8929 i
 113.3  32.3564  30.8987 i
 113.35  28.1382  30.9047 i
 113.4  38.7049  30.9107 i
 113.45  26.4176  30.917 i
 113.5  36.1205  30.9233 i
 113.55  40.4675  30.93 i
 113.6  26.8196  30.9367 i
 113.65  27.807  30.9438 i
 113.7  29.6108  30.9509 i
 113.75  34.842  30.9585 i
 113.8  34.1136  30.9661 i
 113.85  29.0934  30.9743 i
 113.9  20.4178  30.9826 i
 113.95  32.896  30.9916 i
 114  31.5819  31.0006 i
 114.05  27.5008  31.0105 i
 114.1  33.706  31.0204 i
 114.15  26.4173  31.0317 i
 114.2  41.4622  31.0429 i
 114.25  26.3322  31.0557 i
 114.3  22.5062  31.0686 i
 114.35  25.4366  31.0838 i
 114.4  37.9699  31.0991 i
 114.45  25.2794  31.1178 i
 114.5  24.3301  31.1366 i
 114.55  26.6634  31.1611 i
 114.6  26.9404  31.1856 i
 114.65  32.252  31.2193 i
 114.7  25.1638  31.2529 i
 114.75  23.7745  31.2997 i
 114.8  17.7955  31.3465 i
 114.85  38.771  31.4043 i
 114.9  43.9933  31.4699 i
 114.95  31.6949  31.5501 i
 115  30.1918  31.6303 i
 115.05  27.9263  31.7416 i
 115.1  34.84  31.8529 i
 115.15  32.8342  32.0221 i
 115.2  34.8933  32.1913 i
 115.25  37.6745  32.4724 i
 115.3  34.4306  32.7534 i
 115.35  32.2844  33.2638 i
 115.4  34.4845  33.7743 i
 115.45  29.6453  34.7893 i
 115.5  41.6869  35.8043 i
 115.55  33.447  37.9716 i
 115.6  36.6056  40.1389 i
 115.65  33.3979  44.8065 i
 115.7  46.6648  49.474 i
 115.75  73.2649  57.1969 i
 115.8  75.0004  67.3328 i
 115.85  68.3783  79.4241 i
 115.9  79.6012  91.9001 i
 115.95  104.855  102.169 i
 116  118.826  107.59 i
 116.05  114.242  106.352 i
 116.1  92.6712  98.916 i
 116.15  90.8858  87.5181 i
 116.2  84.6537  74.9995 i
 116.25  58.6954  63.7116 i
 116.3  44.8518  54.3766 i
 116.35  44.1382  47.5317 i
 116.4  37.9758  42.6994 i
 116.45  30.7737  39.9142 i
 116.5  44.2251  37.1291 i
 116.55  32.8099  35.8321 i
 116.6  48.3133  34.5352 i
 116.65  37.7372  33.8992 i
 116.7  32.9497  33.2631 i
 116.75  40.534  32.9253 i
 116.8  27.1784  32.5875 i
 116.85  40.9785  32.393 i
 116.9  35.6762  32.1985 i
 116.95  21.3776  32.0772 i
 117  28.4952  31.9559 i
 117.05  38.1886  31.8735 i
 117.1  25.5728  31.7911 i
 117.15  30.2954  31.7313 i
 117.2  33.9992  31.6715 i
 117.25  38.7959  31.6286 i
 117.3  28.696  31.5858 i
 117.35  26.4865  31.5581 i
 117.4  23.5597  31.5304 i
 117.45  36.232  31.5135 i
 117.5  27.6985  31.4967 i
 117.55  36.1241  31.4869 i
 117.6  31.1633  31.4771 i
 117.65  24.4867  31.4715 i
 117.7  33.6397  31.4658 i
 117.75  28.0725  31.463 i
 117.8  32.1908  31.4602 i
 117.85  38.6934  31.4593 i
 117.9  28.046  31.4584 i
 117.95  25.936  31.4589 i
 118  37.2425  31.4594 i
 118.05  35.1619  31.461 i
 118.1  36.9821  31.4626 i
 118.15  29  31.465 i
 118.2  12.7811  31.4673 i
 118.25  24.2062  31.4705 i
 118.3  24.293  31.4736 i
 118.35  24.0327  31.4772 i
 118.4  33.1203  31.4807 i
 118.45  30.4562  31.4848 i
 118.5  27.5864  31.4889 i
 118.55  25.1526  31.4933 i
 118.6  18.5628  31.4977 i
 118.65  19.108  31.5024 i
 118.7  29.0048  31.5071 i
 118.75  27.4097  31.5121 i
 118.8  28.7172  31.5171 i
 118.85  33.7729  31.5223 i
 118.9  38.1214  31.5274 i
 118.95  29.5586  31.5329 i
 119  29.1213  31.5383 i
 119.05  33.2163  31.5438 i
 119.1  41.17  31.5493 i
 119.15  32.4594  31.555 i
 119.2  25.4239  31.5608 i
 119.25  29.4904  31.5666 i
 119.3  24.5329  31.5724 i
 119.35  29.0601  31.5783 i
 119.4  36.0027  31.5843 i
 119.45  26.9506  31.5904 i
 119.5  25.2263  31.5964 i
 119.55  36.16  31.6025 i
 119.6  30.069  31.6086 i
 119.65  30.9213  31.6149 i
 119.7  17.1068  31.6212 i
 119.75  21.9221  31.6274 i
 119.8  24.5859  31.6336 i
 119.85  22.6878  31.6401 i
 119.9  34.001  31.6465 i
 119.95  22.8291  31.6529 i
 120  23.8941  31.6592 i
 120.05  25.2256  31.6657 i
 120.1  34.0582  31.6723 i
 120.15  19.7318  31.6788 i
 120.2  27.7268  31.6853 i
 120.25  28.0838  31.6919 i
 120.3  32.9658  31.6984 i
 120.35  31.8399  31.7051 i
 120.4  34.5745  31.7118 i
 120.45  30.4047  31.7184 i
 120.5  28.0583  31.725 i
 120.55  27.0504  31.7318 i
 120.6  29.868  31.7385 i
 120.65  26.7714  31.7452 i
 120.7  23.7959  31.7519 i
 120.75  25.9127  31.7587 i
 120.8  34.2955  31.7656 i
 120.85  17.703  31.7724 i
 120.9  28.3744  31.7792 i
 120.95  35.8506  31.786 i
 121  33.4317  31.7928 i
 121.05  29.4589  31.7997 i
 121.1  25.0605  31.8066 i
 121.15  33.1832  31.8134 i
 121.2  31.6445  31.8203 i
 121.25  34.3045  31.8272 i
 121.3  18.0128  31.8342 i
 121.35  33.0851  31.8411 i
 121.4  37.3424  31.848 i
 121.45  40.2439  31.855 i
 121.5  33.8189  31.862 i
 121.55  38.8073  31.8689 i
 121.6  30.5445  31.8759 i
 121.65  27.8157  31.8829 i
 121.7  36.4264  31.8899 i
 121.75  34.5238  31.8969 i
 121.8  24.2025  31.904 i
 121.85  33.696  31.911 i
 121.9  25.6565  31.9179 i
 121.95  18.1093  31.925 i
 122  34.09  31.9321 i
 122.05  28.2182  31.9391 i
 122.1  27.9882  31.9462 i
 122.15  30.4245  31.9532 i
 122.2  29.9253  31.9603 i
 122.25  27.392  31.9674 i
 122.3  25.439  31.9745 i
 122.35  36.7989  31.9816 i
 122.4  32.9072  31.9886 i
 122.45  50.9807  31.9958 i
 122.5  26.9048  32.0029 i
 122.55  26.1213  32.01 i
 122.6  29.5446  32.017 i
 122.65  28.6655  32.0242 i
 122.7  30.5386  32.0313 i
 122.75  29.6451  32.0385 i
 122.8  38.6575  32.0456 i
 122.85  35.7507  32.0523 i
 122.9  24.426  32.0591 i
 122.95  25.0442  32.0662 i
 123  35.2396  32.0733 i
 123.05  27.5029  32.0805 i
 123.1  33.005  32.0876 i
 123.15  27.3044  32.0948 i
 123.2  26.2069  32.1019 i
 123.25  30.759  32.1091 i
 123.3  21.2015  32.1162 i
 123.35  27.7073  32.1234 i
 123.4  32.3929  32.1305 i
 123.45  34.1854  32.1377 i
 123.5  24.6019  32.1448 i
 123.55  30.9274  32.152 i
 123.6  28.9095  32.1591 i
 123.65  37.3715  32.1663 i
 123.7  34.2188  32.1734 i
 123.75  32.9475  32.1806 i
 123.8  25.2962  32.1877 i
 123.85  36.439  32.1949 i
 123.9  39.8006  32.202 i
 123.95  21.7855  32.2092 i
 124  34.985  32.2163 i
 124.05  34.9073  32.2235 i
 124.1  35.1481  32.2306 i
 124.15  29.3091  32.2378 i
 124.2  34.7649  32.2449 i
 124.25  33.6452  32.252 i
 124.3  37.3742  32.2592 i
 124.35  27.099  32.2663 i
 124.4  30.7175  32.2734 i
 124.45  37.9119  32.2806 i
 124.5  28.7401  32.2877 i
 124.55  22.7125  32.2948 i
 124.6  23.1346  32.3019 i
 124.65  32.9639  32.309 i
 124.7  27.3049  32.3162 i
 124.75  22.3022  32.3233 i
 124.8  27.7311  32.3304 i
 124.85  35.0492  32.3375 i
 124.9  31.1729  32.3446 i
 124.95  18.0045  32.3517 i
 125  22.7108  32.3587 i
 125.05  30.174  32.3658 i
 125.1  32.0807  32.3729 i
 125.15  28.447  32.38 i
 125.2  25.3935  32.3871 i
 125.25  37.2941  32.3941 i
 125.3  31.3685  32.4012 i
 125.35  29.0255  32.4082 i
 125.4  25.9534  32.4153 i
 125.45  27.546  32.4223 i
 125.5  29.9226  32.4293 i
 125.55  25.538  32.4364 i
 125.6  37.219  32.4434 i
 125.65  36.1512  32.4504 i
 125.7  31.737  32.4574 i
 125.75  26.7959  32.4644 i
 125.8  39.3174  32.4714 i
 125.85  25.0092  32.4784 i
 125.9  31.7898  32.4854 i
 125.95  29.4233  32.4923 i
 126  27.0945  32.4993 i
 126.05  41.9846  32.5063 i
 126.1  37.857  32.5132 i
 126.15  27.6433  32.5201 i
 126.2  32.9618  32.5271 i
 126.25  27.9949  32.534 i
 126.3  29.5218  32.5409 i
 126.35  29.0005  32.5478 i
 126.4  31.8544  32.5547 i
 126.45  27.4598  32.5616 i
 126.5  29.9569  32.5685 i
 126.55  28.3469  32.5753 i
 126.6  33.7523  32.5822 i
 126.65  28.539  32.5891 i
 126.7  21.907  32.5959 i
 126.75  29.6607  32.6027 i
 126.8  29.7127  32.6095 i
 126.85  32.6464  32.6163 i
 126.9  30.0451  32.6232 i
 126.95  28.2581  32.6299 i
 127  34.4638  32.6367 i
 127.05  32.6775  32.6435 i
 127.1  33.6222  32.6502 i
 127.15  30.0772  32.657 i
 127.2  23.6675  32.6637 i
 127.25  43.2425  32.6704 i
 127.3  26.33  32.6771 i
 127.35  29.5049  32.6838 i
 127.4  29.4776  32.6905 i
 127.45  33.0914  32.6972 i
 127.5  33.4123  32.7039 i
 127.55  33.1641  32.7105 i
 127.6  32.9134  32.7171 i
 127.65  35.3503  32.7237 i
 127.7  31.1683  32.7304 i
 127.75  33.7064  32.737 i
 127.8  25.0524  32.7435 i
 127.85  23.4112  32.7501 i
 127.9  28.4937  32.7567 i
 127.95  23.3208  32.7632 i
 128  35.1636  32.7697 i
 128.05  47.5383  32.7762 i
 128.1  32.3725  32.7828 i
 128.15  26.303  32.7892 i
 128.2  28.7113  32.7957 i
 128.25  31.0633  32.8022 i
 128.3  21.5306  32.8086 i
 128.35  33.1584  32.815 i
 128.4  47.1228  32.8214 i
 128.45  30.2619  32.8278 i
 128.5  47.63  32.8342 i
 128.55  38.8125  32.8406 i
 128.6  27.8225  32.8469 i
 128.65  26.5979  32.8533 i
 128.7  22.3036  32.8596 i
 128.75  37.3298  32.8659 i
 128.8  26.0879  32.8722 i
 128.85  32.4807  32.8785 i
 128.9  31.8976  32.8847 i
 128.95  29.0895  32.8909 i
 129  37.6278  32.8972 i
 129.05  26.1957  32.9034 i
 129.1  28.152  32.9096 i
 129.15  29.1738  32.9157 i
 129.2  34.7054  32.9219 i
 129.25  27.7309  32.928 i
 129.3  43.58  32.9341 i
 129.35  40.3284  32.9402 i
 129.4  39.9977  32.9463 i
 129.45  23.7732  32.9524 i
 129.5  38.2417  32.9584 i
 129.55  36.3142  32.9644 i
 129.6  24.9126  32.9704 i
 129.65  28.7602  32.9764 i
 129.7  34.0529  32.9824 i
 129.75  31.5018  32.9883 i
 129.8  27.9486  32.9943 i
 129.85  30.554  33.0002 i
 129.9  31.5458  33.0061 i
 129.95  27.1725  33.0188 i
 130  27.6914  33.0315 i

