
#Surface 0 of 1 surfaces

#IsoCurve 0, 1801 points
#x y z type
 40  24.5352  30.8948 i
 40.05  36.4874  30.8867 i
 40.1  38.6125  30.8786 i
 40.15  28.0716  30.8705 i
 40.2  41.0463  30.8623 i
 40.25  42.4861  30.8542 i
 40.3  38.2264  30.8461 i
 40.35  48.7182  30.8379 i
 40.4  31.1715  30.8298 i
 40.45  37.1906  30.8216 i
 40.5  39.9501  30.8135 i
 40.55  39.9877  30.8053 i
 40.6  38.2762  30.7971 i
 40.65  41.9794  30.789 i
 40.7  50.4556  30.7808 i
 40.75  37.6241  30.7726 i
 40.8  26.8761  30.7644 i
 40.85  32.6827  30.7562 i
 40.9  37.2231  30.748 i
 40.95  45.0364  30.7398 i
 41  36.8861  30.7316 i
 41.05  32.9962  30.7234 i
 41.1  38.5916  30.7152 i
 41.15  29.7197  30.707 i
 41.2  32.1859  30.6988 i
 41.25  36.9086  30.6905 i
 41.3  43.6549  30.6823 i
 41.35  40.5931  30.6741 i
 41.4  31.9836  30.6659 i
 41.45  37.7144  30.6576 i
 41.5  30.6537  30.6494 i
 41.55  39.173  30.6412 i
 41.6  43.0433  30.6329 i
 41.65  39.63  30.6247 i
 41.7  40.7633  30.6165 i
 41.75  25.8908  30.6082 i
 41.8  38.8361  30.6 i
 41.85  40.4462  30.5918 i
 41.9  36.0976  30.5835 i
 41.95  37.4309  30.5753 i
 42  44.0595  30.5671 i
 42.05  31.3983  30.5588 i
 42.1  43.4125  30.5506 i
 42.15  28.9685  30.5424 i
 42.2  34.6107  30.5341 i
 42.25  43.4921  30.5259 i
 42.3  35.9761  30.5177 i
 42.35  30.5934  30.5095 i
 42.4  35.0934  30.5012 i
 42.45  35.8927  30.493 i
 42.5  47.1783  30.4848 i
 42.55  51.1438  30.4766 i
 42.6  26.5552  30.4684 i
 42.65  35.1824  30.4602 i
 42.7  46.3211  30.452 i
 42.75  32.1689  30.4438 i
 42.8  23.0303  30.4356 i
 42.85  33.9488  30.4274 i
 42.9  28.3589  30.4192 i
 42.95  32.0186  30.411 i
 43  31.3461  30.4029 i
 43.05  42.2715  30.3947 i
 43.1  42.0807  30.3865 i
 43.15  33.6358  30.3784 i
 43.2  34.5276  30.3702 i
 43.25  42.669  30.3621 i
 43.3  28.4821  30.3539 i
 43.35  33.4631  30.3458 i
 43.4  23.2355  30.3377 i
 43.45  41.486  30.3295 i
 43.5  31.5241  30.3214 i
 43.55  43.7992  30.3133 i
 43.6  26.4082  30.3052 i
 43.65  38.9257  30.2971 i
 43.7  28.9552  30.2891 i
 43.75  44.8247  30.281 i
 43.8  41.6183  30.2729 i
 43.85  37.3364  30.2649 i
 43.9  42.3268  30.2568 i
 43.95  38.6668  30.2488 i
 44  28.3006  30.2408 i
 44.05  40.2734  30.2327 i
 44.1  45.0528  30.2247 i
 44.15  45.5092  30.2167 i
 44.2  40.7729  30.2088 i
 44.25  62.1156  30.2008 i
 44.3  90.3015  30.1928 i
 44.35  86.2068  30.1849 i
 44.4  132.834  30.1769 i
 44.45  388.156  30.169 i
 44.5  1221.71  30.1611 i
 44.55  2047.15  30.1532 i
 44.6  2128.81  30.1453 i
 44.65  1038.57  30.1374 i
 44.7  314.425  30.1295 i
 44.75  112.672  30.1216 i
 44.8  67.4062  30.1138 i
 44.85  55.291  30.106 i
 44.9  53.567  30.0982 i
 44.95  34.5585  30.0903 i
 45  42.4602  30.0826 i
 45.05  39.2446  30.0748 i
 45.1  42.593  30.067 i
 45.15  35.4679  30.0593 i
 45.2  39.2192  30.0515 i
 45.25  28.9319  30.0438 i
 45.3  27.1791  30.0361 i
 45.35  40.3439  30.0284 i
 45.4  36.06  30.0208 i
 45.45  35.052  30.0131 i
 45.5  31.6683  30.0055 i
 45.55  42.7867  29.9978 i
 45.6  31.6265  29.9902 i
 45.65  31.0057  29.9826 i
 45.7  37.0649  29.9751 i
 45.75  31.5779  29.9675 i
 45.8  33.1763  29.96 i
 45.85  33.7227  29.9525 i
 45.9  39.245  29.945 i
 45.95  34.6316  29.9375 i
 46  40.7745  29.93 i
 46.05  31.1905  29.9226 i
 46.1  34.1073  29.9151 i
 46.15  30.8024  29.9077 i
 46.2  33.3687  29.9003 i
 46.25  35.9098  29.8929 i
 46.3  33.6718  29.8856 i
 46.35  35.2325  29.8783 i
 46.4  39.2035  29.871 i
 46.45  28.3279  29.8637 i
 46.5  26.9769  29.8564 i
 46.55  30.7296  29.8491 i
 46.6  26.733  29.8419 i
 46.65  38.7006  29.8347 i
 46.7  28.8  29.8275 i
 46.75  35.3817  29.8204 i
 46.8  28.3975  29.8132 i
 46.85  34.2383  29.8061 i
 46.9  28.6907  29.799 i
 46.95  33.478  29.7919 i
 47  34.6106  29.7849 i
 47.05  39.4882  29.7778 i
 47.1  38.9196  29.7708 i
 47.15  31.7805  29.7638 i
 47.2  45.2878  29.7569 i
 47.25  22.8709  29.7499 i
 47.3  29.4135  29.743 i
 47.35  43.656  29.7361 i
 47.4  30.1246  29.7293 i
 47.45  21.8887  29.7224 i
 47.5  31.2862  29.7156 i
 47.55  30.4005  29.7088 i
 47.6  36.2561  29.7021 i
 47.65  34.2039  29.6953 i
 47.7  43.0799  29.6886 i
 47.75  27.5883  29.6819 i
 47.8  34.8738  29.6753 i
 47.85  24.2293  29.6686 i
 47.9  32.6708  29.662 i
 47.95  39.6348  29.6554 i
 48  30.9969  29.6489 i
 48.05  32.9948  29.6424 i
 48.1  34.17  29.6359 i
 48.15  30.1831  29.6294 i
 48.2  43.8083  29.623 i
 48.25  23.1212  29.6165 i
 48.3  43.0392  29.6102 i
 48.35  35.6703  29.6038 i
 48.4  35.1031  29.5975 i
 48.45  34.6821  29.5912 i
 48.5  35.5354  29.5849 i
 48.55  37.9791  29.5787 i
 48.6  34.8178  29.5725 i
 48.65  35.5609  29.5663 i
 48.7  43.5553  29.5601 i
 48.75  36.0446  29.554 i
 48.8  24.4959  29.5479 i
 48.85  40.6029  29.5419 i
 48.9  31.1297  29.5358 i
 48.95  29.3945  29.5298 i
 49  31.6467  29.5239 i
 49.05  31.2944  29.518 i
 49.1  40.9809  29.5121 i
 49.15  40.4277  29.5062 i
 49.2  40.8869  29.5003 i
 49.25  32.5545  29.4945 i
 49.3  37.3047  29.4888 i
 49.35  27.8866  29.483 i
 49.4  26.9594  29.4773 i
 49.45  34.2276  29.4717 i
 49.5  22.9708  29.466 i
 49.55  35.9974  29.4604 i
 49.6  39.6962  29.4549 i
 49.65  34.1383  29.4493 i
 49.7  40.6611  29.4438 i
 49.75  34.0503  29.4384 i
 49.8  41.7306  29.4329 i
 49.85  38.4141  29.4275 i
 49.9  37.2007  29.4222 i
 49.95  39.7824  29.4169 i
 50  37.4719  29.4116 i
 50.05  32.3429  29.4063 i
 50.1  32.2046  29.4011 i
 50.15  27.8737  29.3959 i
 50.2  27.4769  29.3908 i
 50.25  24.6144  29.3857 i
 50.3  29.5989  29.3806 i
 50.35  34.7391  29.3756 i
 50.4  38.154  29.3706 i
 50.45  25.3819  29.3657 i
 50.5  29.161  29.3607 i
 50.55  21.7673  29.3559 i
 50.6  26.7856  29.351 i
 50.65  35.8377  29.3462 i
 50.7  34.312  29.3415 i
 50.75  37.034  29.3368 i
 50.8  25.8528  29.3321 i
 50.85  26.4516  29.3274 i
 50.9  26.6676  29.3228 i
 50.95  35.5244  29.3183 i
 51  32.4467  29.3138 i
 51.05  33.6119  29.3093 i
 51.1  33.6954  29.3048 i
 51.15  35.3563  29.3004 i
 51.2  37.2714  29.2961 i
 51.25  35.397  29.2918 i
 51.3  28.8227  29.2875 i
 51.35  25.9283  29.2833 i
 51.4  32.0738  29.2791 i
 51.45  19.9206  29.2749 i
 51.5  28.489  29.2708 i
 51.55  31.6386  29.2668 i
 51.6  33.0086  29.2627 i
 51.65  31.7539  29.2588 i
 51.7  35.1684  29.2548 i
 51.75  33.7806  29.2509 i
 51.8  30.5657  29.2471 i
 51.85  31.0596  29.2433 i
 51.9  27.1714  29.2395 i
 51.95  27.3948  29.2358 i
 52  26.1106  29.2322 i
 52.05  32.46  29.2285 i
 52.1  39.4973  29.225 i
 52.15  30.683  29.2214 i
 52.2  22.5767  29.218 i
 52.25  36.2706  29.2145 i
 52.3  21.7382  29.2111 i
 52.35  20.9048  29.2078 i
 52.4  21.4717  29.2045 i
 52.45  43.1407  29.2012 i
 52.5  33.8487  29.198 i
 52.55  24.932  29.1949 i
 52.6  35.1448  29.1917 i
 52.65  23.0995  29.1887 i
 52.7  26.9036  29.1857 i
 52.75  26.9403  29.1827 i
 52.8  34.0156  29.1798 i
 52.85  43.6577  29.1769 i
 52.9  37.3954  29.1741 i
 52.95  34.7875  29.1713 i
 53  42.7785  29.1686 i
 53.05  26.4611  29.1659 i
 53.1  24.3747  29.1633 i
 53.15  26.5557  29.1607 i
 53.2  35.6002  29.1582 i
 53.25  33.0768  29.1557 i
 53.3  43.027  29.1533 i
 53.35  29.0047  29.1509 i
 53.4  23.1312  29.1486 i
 53.45  30.3967  29.1463 i
 53.5  35.0906  29.1441 i
 53.55  34.4325  29.1419 i
 53.6  30.3316  29.1398 i
 53.65  31.5984  29.1378 i
 53.7  39.9395  29.1357 i
 53.75  23.8201  29.1338 i
 53.8  25.35  29.1319 i
 53.85  33.1258  29.13 i
 53.9  29.8932  29.1282 i
 53.95  36.5518  29.1265 i
 54  35.8119  29.1248 i
 54.05  17.3188  29.1231 i
 54.1  36.8444  29.1216 i
 54.15  43.1527  29.12 i
 54.2  31.3718  29.1186 i
 54.25  25.2611  29.1171 i
 54.3  25.2066  29.1158 i
 54.35  21.341  29.1145 i
 54.4  38.7524  29.1132 i
 54.45  33.3383  29.112 i
 54.5  27.9764  29.1109 i
 54.55  22.7129  29.1098 i
 54.6  28.2528  29.1087 i
 54.65  33.4566  29.1078 i
 54.7  38.5722  29.1068 i
 54.75  31.9218  29.106 i
 54.8  27.2066  29.1052 i
 54.85  19.997  29.1044 i
 54.9  27.0571  29.1037 i
 54.95  24.4139  29.1031 i
 55  34.4663  29.1025 i
 55.05  25.755  29.102 i
 55.1  27.048  29.1015 i
 55.15  27.4988  29.1012 i
 55.2  29.5028  29.1008 i
 55.25  30.6418  29.1005 i
 55.3  30.4462  29.1003 i
 55.35  26.2053  29.1001 i
 55.4  37.9142  29.1 i
 55.45  31.6893  29.1 i
 55.5  31.8722  29.1 i
 55.55  35.4997  29.1001 i
 55.6  32.245  29.1002 i
 55.65  30.7244  29.1003 i
 55.7  34.9404  29.1005 i
 55.75  29.2784  29.1007 i
 55.8  38.4364  29.1009 i
 55.85  32.6818  29.1012 i
 55.9  27.3658  29.1015 i
 55.95  35.9463  29.1019 i
 56  27.1636  29.1023 i
 56.05  31.6079  29.1027 i
 56.1  25.5732  29.1032 i
 56.15  26.8559  29.1037 i
 56.2  28.7111  29.1043 i
 56.25  30.4102  29.1049 i
 56.3  25.6945  29.1055 i
 56.35  46.0554  29.1062 i
 56.4  21.5673  29.1069 i
 56.45  29.2658  29.1076 i
 56.5  38.7647  29.1084 i
 56.55  34.3973  29.1092 i
 56.6  36.1798  29.1101 i
 56.65  29.721  29.111 i
 56.7  43.5931  29.1119 i
 56.75  42.5369  29.1129 i
 56.8  36.0205  29.1139 i
 56.85  31.702  29.1149 i
 56.9  45.3606  29.116 i
 56.95  38.7644  29.1171 i
 57  29.3356  29.1182 i
 57.05  28.3233  29.1194 i
 57.1  32.4044  29.1206 i
 57.15  25.0914  29.1218 i
 57.2  30.8465  29.1231 i
 57.25  29.3317  29.1244 i
 57.3  34.1869  29.1258 i
 57.35  25.8735  29.1272 i
 57.4  28.6907  29.1286 i
 57.45  23.7205  29.13 i
 57.5  22.1375  29.1315 i
 57.55  25.2014  29.133 i
 57.6  38.8987  29.1346 i
 57.65  34.1924  29.1362 i
 57.7  30.1855  29.1378 i
 57.75  32.3538  29.1395 i
 57.8  25.8793  29.1412 i
 57.85  24.9716  29.1429 i
 57.9  29.007  29.1446 i
 57.95  35.3117  29.1464 i
 58  24.9939  29.1482 i
 58.05  35.1236  29.1501 i
 58.1  40.4648  29.152 i
 58.15  20.5547  29.1539 i
 58.2  29.9051  29.1558 i
 58.25  27.7473  29.1578 i
 58.3  30.3629  29.1598 i
 58.35  26.9001  29.1618 i
 58.4  26.8081  29.1639 i
 58.45  29.6876  29.166 i
 58.5  37.2998  29.1682 i
 58.55  39.7795  29.1703 i
 58.6  33.3192  29.1725 i
 58.65  23.7113  29.1747 i
 58.7  37.46  29.177 i
 58.75  23.2162  29.1793 i
 58.8  33.4817  29.1816 i
 58.85  19.9588  29.1839 i
 58.9  27.999  29.1863 i
 58.95  25.757  29.1887 i
 59  35.5659  29.1912 i
 59.05  29.5895  29.1936 i
 59.1  31.2974  29.1961 i
 59.15  28.1202  29.1986 i
 59.2  37.1628  29.2012 i
 59.25  30.003  29.2038 i
 59.3  32.3963  29.2064 i
 59.35  29.1489  29.209 i
 59.4  33.2066  29.2117 i
 59.45  34.0707  29.2144 i
 59.5  29.4898  29.2171 i
 59.55  28.5683  29.2198 i
 59.6  24.1645  29.2226 i
 59.65  25.1939  29.2254 i
 59.7  32.9227  29.2282 i
 59.75  40.3681  29.2311 i
 59.8  34.4669  29.234 i
 59.85  25.1585  29.2369 i
 59.9  27.9031  29.2398 i
 59.95  38.2508  29.2428 i
 60  30.9981  29.2458 i
 60.05  34.4581  29.2488 i
 60.1  25.5974  29.2518 i
 60.15  24.4541  29.2549 i
 60.2  30.0892  29.258 i
 60.25  31.7191  29.2611 i
 60.3  33.5255  29.2643 i
 60.35  29.3524  29.2674 i
 60.4  36.141  29.2706 i
 60.45  34.1209  29.2739 i
 60.5  34.0724  29.2771 i
 60.55  26.6117  29.2804 i
 60.6  24.4015  29.2837 i
 60.65  25.6752  29.287 i
 60.7  23.5943  29.2903 i
 60.75  37.401  29.2937 i
 60.8  33.5989  29.2971 i
 60.85  31.5647  29.3005 i
 60.9  31.3644  29.3039 i
 60.95  17.3473  29.3074 i
 61  24.0161  29.3109 i
 61.05  41.4025  29.3144 i
 61.1  38.1085  29.3179 i
 61.15  34.5906  29.3215 i
 61.2  34.9258  29.3251 i
 61.25  24.2594  29.3287 i
 61.3  26.5075  29.3323 i
 61.35  23.1835  29.3359 i
 61.4  30.3417  29.3396 i
 61.45  24.8126  29.3433 i
 61.5  30.6241  29.347 i
 61.55  26.8249  29.3507 i
 61.6  30.8481  29.3545 i
 61.65  34.5011  29.3583 i
 61.7  33.1219  29.3621 i
 61.75  32.1926  29.3659 i
 61.8  20.3333  29.3697 i
 61.85  30.1637  29.3736 i
 61.9  35.8625  29.3775 i
 61.95  28.2334  29.3814 i
 62  25.9097  29.3853 i
 62.05  21.2511  29.3892 i
 62.1  33.8374  29.3932 i
 62.15  32.8678  29.3972 i
 62.2  27.8103  29.4012 i
 62.25  37.7037  29.4052 i
 62.3  32.8878  29.4092 i
 62.35  33.1621  29.4133 i
 62.4  24.6608  29.4174 i
 62.45  35.4724  29.4215 i
 62.5  27.0785  29.4256 i
 62.55  28.6063  29.4297 i
 62.6  29.1383  29.4339 i
 62.65  27.089  29.4381 i
 62.7  30.7648  29.4422 i
 62.75  26.3654  29.4465 i
 62.8  29.554  29.4507 i
 62.85  19.1871  29.4549 i
 62.9  41.1347  29.4592 i
 62.95  31.1773  29.4635 i
 63  32.7736  29.4678 i
 63.05  31.148  29.4721 i
 63.1  23.2743  29.4764 i
 63.15  29.7061  29.4808 i
 63.2  21.389  29.4851 i
 63.25  24.0445  29.4895 i
 63.3  31.3655  29.4939 i
 63.35  34.4312  29.4983 i
 63.4  34.8995  29.5027 i
 63.45  28.9771  29.5072 i
 63.5  29.0094  29.5116 i
 63.55  30.3079  29.5161 i
 63.6  28.9654  29.5206 i
 63.65  29.6827  29.5251 i
 63.7  39.2041  29.5297 i
 63.75  25.1204  29.5342 i
 63.8  31.6075  29.5387 i
 63.85  21.3968  29.5433 i
 63.9  26.3006  29.5479 i
 63.95  27.2398  29.5525 i
 64  37.4973  29.5571 i
 64.05  18.9878  29.5617 i
 64.1  27.356  29.5664 i
 64.15  29.9449  29.571 i
 64.2  32.8813  29.5757 i
 64.25  30.4024  29.5804 i
 64.3  30.4355  29.5851 i
 64.35  41.435  29.5898 i
 64.4  31.689  29.5945 i
 64.45  31.3191  29.5992 i
 64.5  38.5573  29.604 i
 64.55  34.1538  29.6087 i
 64.6  57.507  29.6135 i
 64.65  56.0474  29.6183 i
 64.7  77.1734  29.6231 i
 64.75  93.3635  29.6279 i
 64.8  130.998  29.6327 i
 64.85  140.542  29.6375 i
 64.9  138.201  29.6424 i
 64.95  84.544  29.6472 i
 65  86.4943  29.6521 i
 65.05  49.9816  29.657 i
 65.1  45.4336  29.6619 i
 65.15  30.6321  29.6668 i
 65.2  33.2327  29.6717 i
 65.25  34.8144  29.6766 i
 65.3  25.8864  29.6815 i
 65.35  34.5619  29.6865 i
 65.4  34.5678  29.6914 i
 65.45  34.5717  29.6964 i
 65.5  42.9745  29.7013 i
 65.55  43.2153  29.7063 i
 65.6  30.9177  29.7113 i
 65.65  30.5861  29.7163 i
 65.7  30.9474  29.7213 i
 65.75  34.0415  29.7263 i
 65.8  31.2791  29.7314 i
 65.85  26.408  29.7364 i
 65.9  32.5767  29.7414 i
 65.95  31.6389  29.7465 i
 66  34.0363  29.7516 i
 66.05  30.1529  29.7566 i
 66.1  23.5213  29.7617 i
 66.15  26.6193  29.7668 i
 66.2  33.5589  29.7719 i
 66.25  37.0723  29.777 i
 66.3  30.1206  29.7821 i
 66.35  26.665  29.7872 i
 66.4  35.118  29.7923 i
 66.45  29.526  29.7974 i
 66.5  29.6647  29.8026 i
 66.55  22.6774  29.8077 i
 66.6  32.3018  29.8129 i
 66.65  25.5633  29.818 i
 66.7  26.756  29.8232 i
 66.75  33.5586  29.8283 i
 66.8  24.9422  29.8335 i
 66.85  23.1294  29.8387 i
 66.9  19.4453  29.8439 i
 66.95  33.3654  29.8491 i
 67  22.2437  29.8542 i
 67.05  17.5329  29.8594 i
 67.1  26.732  29.8646 i
 67.15  39.3365  29.8699 i
 67.2  24.3805  29.8751 i
 67.25  34.5962  29.8803 i
 67.3  43.4606  29.8855 i
 67.35  31.4021  29.8907 i
 67.4  37.7339  29.896 i
 67.45  36.5406  29.9012 i
 67.5  27.175  29.9064 i
 67.55  27.5913  29.9117 i
 67.6  37.1591  29.9169 i
 67.65  33.6231  29.9222 i
 67.7  33.0331  29.9274 i
 67.75  28.4957  29.9327 i
 67.8  31.5601  29.9379 i
 67.85  27.9058  29.9432 i
 67.9  26.0222  29.9485 i
 67.95  21.0982  29.9537 i
 68  29.2828  29.959 i
 68.05  20.9556  29.9642 i
 68.1  29.4992  29.9695 i
 68.15  26.9162  29.9748 i
 68.2  28.9512  29.9801 i
 68.25  39.1714  29.9853 i
 68.3  37.5046  29.9906 i
 68.35  25.7077  29.9959 i
 68.4  38.8754  30.0012 i
 68.45  32.4066  30.0065 i
 68.5  41.3952  30.0117 i
 68.55  31.3949  30.017 i
 68.6  34.9145  30.0223 i
 68.65  30.6778  30.0276 i
 68.7  27.3342  30.0329 i
 68.75  34.34  30.0381 i
 68.8  31.0936  30.0434 i
 68.85  22.7808  30.0487 i
 68.9  23.778  30.054 i
 68.95  27.1934  30.0593 i
 69  40.1503  30.0645 i
 69.05  39.2177  30.0698 i
 69.1  29.2149  30.0751 i
 69.15  19.8343  30.0804 i
 69.2  22.3496  30.0856 i
 69.25  29.3671  30.0909 i
 69.3  33.5951  30.0962 i
 69.35  34.7911  30.1015 i
 69.4  34.4323  30.1067 i
 69.45  32.2934  30.112 i
 69.5  22.0362  30.1173 i
 69.55  39.0088  30.1225 i
 69.6  34.9458  30.1278 i
 69.65  36.4179  30.133 i
 69.7  31.792  30.1383 i
 69.75  25.412  30.1435 i
 69.8  26.3511  30.1488 i
 69.85  34.9698  30.154 i
 69.9  34.4616  30.1593 i
 69.95  33.5315  30.1645 i
 70  23.7656  30.1697 i
 70.05  37.1546  30.175 i
 70.1  28.4014  30.1802 i
 70.15  27.0862  30.1854 i
 70.2  32.5499  30.1906 i
 70.25  30.0771  30.1958 i
 70.3  27.8764  30.201 i
 70.35  28.3765  30.2062 i
 70.4  25.9228  30.2114 i
 70.45  30.1307  30.2166 i
 70.5  26.4985  30.2218 i
 70.55  26.522  30.227 i
 70.6  29.8555  30.2322 i
 70.65  26.4111  30.2373 i
 70.7  34.4922  30.2425 i
 70.75  33.4925  30.2476 i
 70.8  25.8902  30.2528 i
 70.85  26.6116  30.2579 i
 70.9  20.3063  30.2631 i
 70.95  26.8388  30.2682 i
 71  26.5893  30.2733 i
 71.05  30.1253  30.2784 i
 71.1  36.6164  30.2835 i
 71.15  38.614  30.2886 i
 71.2  24.3532  30.2937 i
 71.25  26.4842  30.2988 i
 71.3  29.491  30.3039 i
 71.35  24.5377  30.309 i
 71.4  25.2413  30.314 i
 71.45  23.6242  30.3191 i
 71.5  25.9276  30.3241 i
 71.55  29.55  30.3292 i
 71.6  31.8424  30.3342 i
 71.65  36.8671  30.3392 i
 71.7  30.4799  30.3442 i
 71.75  34.8286  30.3493 i
 71.8  33.8504  30.3542 i
 71.85  30.2497  30.3592 i
 71.9  18.3247  30.3642 i
 71.95  25.1451  30.3692 i
 72  24.5693  30.3741 i
 72.05  33.7637  30.3791 i
 72.1  34.9124  30.384 i
 72.15  27.5239  30.3889 i
 72.2  32.8609  30.3938 i
 72.25  20.096  30.3987 i
 72.3  28.0578  30.4036 i
 72.35  22.134  30.4085 i
 72.4  30.7525  30.4134 i
 72.45  30.5466  30.4183 i
 72.5  29.9378  30.4231 i
 72.55  28.6909  30.4279 i
 72.6  28.0295  30.4328 i
 72.65  31.8984  30.4376 i
 72.7  35.1522  30.4424 i
 72.75  33.927  30.4472 i
 72.8  35.2966  30.4519 i
 72.85  32.795  30.4567 i
 72.9  37.1849  30.4615 i
 72.95  28.2584  30.4662 i
 73  32.1942  30.4709 i
 73.05  31.6882  30.4756 i
 73.1  26.6807  30.4803 i
 73.15  34.0966  30.485 i
 73.2  32.6408  30.4897 i
 73.25  37.3697  30.4944 i
 73.3  28.5436  30.499 i
 73.35  31.5039  30.5036 i
 73.4  25.3075  30.5083 i
 73.45  29.7824  30.5129 i
 73.5  37.4717  30.5174 i
 73.55  32.8707  30.522 i
 73.6  25.8975  30.5266 i
 73.65  32.2801  30.5311 i
 73.7  30.759  30.5357 i
 73.75  32.9912  30.5402 i
 73.8  39.1482  30.5447 i
 73.85  31.476  30.5492 i
 73.9  27.9186  30.5536 i
 73.95  27.5089  30.5581 i
 74  22.17  30.5625 i
 74.05  25.481  30.5669 i
 74.1  23.8764  30.5713 i
 74.15  26.0438  30.5757 i
 74.2  31.864  30.5801 i
 74.25  29.7933  30.5845 i
 74.3  30.1179  30.5888 i
 74.35  30.5336  30.5931 i
 74.4  27.8262  30.5974 i
 74.45  24.9988  30.6017 i
 74.5  34.8327  30.606 i
 74.55  36.6574  30.6104 i
 74.6  24.4083  30.6148 i
 74.65  42.3221  30.6192 i
 74.7  31.8629  30.6236 i
 74.75  26.5337  30.6281 i
 74.8  17.6964  30.6326 i
 74.85  33.1714  30.6372 i
 74.9  29.4827  30.6418 i
 74.95  33.0591  30.6464 i
 75  25.7492  30.651 i
 75.05  23.2727  30.6557 i
 75.1  39.5966  30.6604 i
 75.15  28.7815  30.6651 i
 75.2  38.6127  30.6699 i
 75.25  27.6489  30.6747 i
 75.3  21.2795  30.6795 i
 75.35  29.3067  30.6843 i
 75.4  30.4609  30.6892 i
 75.45  25.3159  30.6941 i
 75.5  36.3741  30.699 i
 75.55  36.9649  30.704 i
 75.6  29.0073  30.709 i
 75.65  23.0896  30.714 i
 75.7  24.1046  30.719 i
 75.75  24.9946  30.7241 i
 75.8  33.8562  30.7292 i
 75.85  34.5579  30.7343 i
 75.9  38.3091  30.7395 i
 75.95  29.339  30.7447 i
 76  29.7583  30.7498 i
 76.05  26.4374  30.7551 i
 76.1  29.8073  30.7603 i
 76.15  35.0937  30.7656 i
 76.2  33.1754  30.7709 i
 76.25  23.6934  30.7762 i
 76.3  27.7044  30.7815 i
 76.35  35.1919  30.7869 i
 76.4  31.2959  30.7923 i
 76.45  25.7723  30.7977 i
 76.5  24.4918  30.8031 i
 76.55  28.2011  30.8086 i
 76.6  33.6364  30.8141 i
 76.65  35.0458  30.8196 i
 76.7  27.5208  30.8251 i
 76.75  25.8209  30.8306 i
 76.8  33.9092  30.8362 i
 76.85  22.8391  30.8418 i
 76.9  22.2033  30.8474 i
 76.95  23.7185  30.853 i
 77  23.6096  30.8586 i
 77.05  21.1062  30.8643 i
 77.1  27.5137  30.8699 i
 77.15  29.1277  30.8756 i
 77.2  33.6644  30.8814 i
 77.25  24.4314  30.8871 i
 77.3  25.8579  30.8928 i
 77.35  29.1229  30.8986 i
 77.4  26.1967  30.9044 i
 77.45  29.6874  30.9102 i
 77.5  33.5148  30.916 i
 77.55  28.4131  30.9218 i
 77.6  23.0613  30.9277 i
 77.65  16.7403  30.9335 i
 77.7  26.6324  30.9394 i
 77.75  39.1682  30.9453 i
 77.8  27.55  30.9512 i
 77.85  29.5726  30.9571 i
 77.9  29.2624  30.963 i
 77.95  28.284  30.969 i
 78  29.6901  30.9749 i
 78.05  30.7493  30.9809 i
 78.1  32.434  30.9869 i
 78.15  25.7791  30.9929 i
 78.2  28.467  30.9989 i
 78.25  24.0621  31.0049 i
 78.3  24.5743  31.0109 i
 78.35  30.9411  31.017 i
 78.4  28.4336  31.023 i
 78.45  24.7524  31.0291 i
 78.5  31.5448  31.0352 i
 78.55  31.145  31.0413 i
 78.6  28.9138  31.0474 i
 78.65  28.9656  31.0535 i
 78.7  31.5003  31.0596 i
 78.75  23.2805  31.0657 i
 78.8  33.993  31.0718 i
 78.85  34.2957  31.078 i
 78.9  38.6198  31.0841 i
 78.95  23.0598  31.0903 i
 79  32.5388  31.0964 i
 79.05  29.9064  31.1026 i
 79.1  19.7132  31.1088 i
 79.15  25.6103  31.115 i
 79.2  24.848  31.1211 i
 79.25  28.6356  31.1273 i
 79.3  30.734  31.1335 i
 79.35  32.7675  31.1397 i
 79.4  37.1285  31.146 i
 79.45  29.537  31.1522 i
 79.5  25.0901  31.1584 i
 79.55  39.2385  31.1646 i
 79.6  31.0931  31.1708 i
 79.65  28.4564  31.1771 i
 79.7  29.9053  31.1833 i
 79.75  32.2078  31.1895 i
 79.8  23.7629  31.1958 i
 79.85  31.4927  31.202 i
 79.9  25.6387  31.2083 i
 79.95  40.5422  31.2145 i
 80  26.8413  31.2207 i
 80.05  22.7455  31.227 i
 80.1  30.4129  31.2332 i
 80.15  24.9388  31.2395 i
 80.2  24.3861  31.2457 i
 80.25  22.9927  31.252 i
 80.3  30.7887  31.2582 i
 80.35  26.4898  31.2645 i
 80.4  38.7109  31.2707 i
 80.45  21.4535  31.277 i
 80.5  27.0335  31.2832 i
 80.55  39.3368  31.2895 i
 80.6  41.1676  31.2957 i
 80.65  29.0845  31.3019 i
 80.7  24.3848  31.3082 i
 80.75  25.1725  31.3144 i
 80.8  23.3962  31.3206 i
 80.85  36.6726  31.3269 i
 80.9  32.4584  31.3331 i
 80.95  34.427  31.3393 i
 81  28.8769  31.3455 i
 81.05  27.0823  31.3517 i
 81.1  26.4852  31.3579 i
 81.15  25.5895  31.3641 i
 81.2  31.7581  31.3703 i
 81.25  24.8356  31.3765 i
 81.3  31.0266  31.3827 i
 81.35  27.464  31.3888 i
 81.4  38.2997  31.395 i
 81.45  35.3726  31.4012 i
 81.5  21.0823  31.4073 i
 81.55  28.4724  31.4134 i
 81.6  36.0237  31.4196 i
 81.65  30.0884  31.4257 i
 81.7  30.1811  31.4318 i
 81.75  35.0079  31.4379 i
 81.8  41.5676  31.444 i
 81.85  31.5584  31.4501 i
 81.9  59.1588  31.4562 i
 81.95  80.9349  31.4623 i
 82  125.753  31.4683 i
 82.05  201.337  31.4744 i
 82.1  272.922  31.4804 i
 82.15  290.01  31.4864 i
 82.2  228.493  31.4925 i
 82.25  115.901  31.4985 i
 82.3  81.8352  31.5044 i
 82.35  56.6358  31.5104 i
 82.4  42.0618  31.5164 i
 82.45  37.106  31.5223 i
 82.5  32.2949  31.5283 i
 82.55  36.3754  31.5342 i
 82.6  42.1452  31.5401 i
 82.65  28.3212  31.546 i
 82.7  34.9018  31.5519 i
 82.75  32.8197  31.5578 i
 82.8  22.8048  31.5636 i
 82.85  33.462  31.5695 i
 82.9  23.3978  31.5753 i
 82.95  33.4151  31.5811 i
 83  27.9084  31.5869 i
 83.05  23.8893  31.5926 i
 83.1  27.1283  31.5984 i
 83.15  37.0245  31.6041 i
 83.2  31.3796  31.6099 i
 83.25  38.3221  31.6156 i
 83.3  27.8523  31.6212 i
 83.35  21.5503  31.6269 i
 83.4  22.7304  31.6325 i
 83.45  36.6339  31.6382 i
 83.5  30.6654  31.6438 i
 83.55  27.616  31.6494 i
 83.6  24.9472  31.6549 i
 83.65  29.1409  31.6605 i
 83.7  26.4912  31.666 i
 83.75  31.2018  31.6715 i
 83.8  20.3905  31.677 i
 83.85  25.9495  31.6825 i
 83.9  35.5264  31.6879 i
 83.95  26.0225  31.6933 i
 84  31.9261  31.6987 i
 84.05  28.9783  31.7041 i
 84.1  28.1164  31.7095 i
 84.15  37.4911  31.7148 i
 84.2  27.9047  31.7201 i
 84.25  35.8338  31.7254 i
 84.3  27.528  31.7307 i
 84.35  35.6899  31.7359 i
 84.4  26.0067  31.7411 i
 84.45  26.8285  31.7463 i
 84.5  36.6573  31.7514 i
 84.55  31.5955  31.7566 i
 84.6  36.4477  31.7617 i
 84.65  18.9257  31.7668 i
 84.7  39.1499  31.7718 i
 84.75  22.9137  31.7769 i
 84.8  39.3489  31.7819 i
 84.85  33.0331  31.7868 i
 84.9  25.8977  31.7918 i
 84.95  18.9295  31.7967 i
 85  29.2277  31.8016 i
 85.05  27.9025  31.8065 i
 85.1  25.8667  31.8113 i
 85.15  33.0877  31.8161 i
 85.2  29.446  31.8209 i
 85.25  29.6791  31.8256 i
 85.3  21.3994  31.8303 i
 85.35  26.6558  31.835 i
 85.4  30.8983  31.8397 i
 85.45  21.803  31.8443 i
 85.5  27.2952  31.8489 i
 85.55  31.3216  31.8534 i
 85.6  37.3377  31.858 i
 85.65  29.6665  31.8625 i
 85.7  31.5125  31.8669 i
 85.75  23.1331  31.8714 i
 85.8  35.1836  31.8758 i
 85.85  32.0507  31.8801 i
 85.9  33.9229  31.8845 i
 85.95  27.6168  31.8888 i
 86  30.1984  31.893 i
 86.05  38.6335  31.8973 i
 86.1  29.0438  31.9015 i
 86.15  38.3576  31.9056 i
 86.2  27.3519  31.9097 i
 86.25  21.3121  31.9138 i
 86.3  27.2174  31.9179 i
 86.35  28.9234  31.9219 i
 86.4  22.895  31.9259 i
 86.45  28.8922  31.9298 i
 86.5  22.88  31.9337 i
 86.55  34.8545  31.9376 i
 86.6  39.2595  31.9414 i
 86.65  23.9044  31.9452 i
 86.7  29.6679  31.949 i
 86.75  41.6438  31.9527 i
 86.8  33.3404  31.9564 i
 86.85  27.8867  31.96 i
 86.9  32.1615  31.9636 i
 86.95  32.8499  31.9672 i
 87  22.8166  31.9707 i
 87.05  28.6601  31.9742 i
 87.1  24.6814  31.9776 i
 87.15  26.6025  31.981 i
 87.2  32.6764  31.9844 i
 87.25  29.9711  31.9877 i
 87.3  30.0376  31.991 i
 87.35  32.831  31.9942 i
 87.4  30.1787  31.9974 i
 87.45  32.5293  32.0005 i
 87.5  28.9088  32.0037 i
 87.55  25.066  32.0067 i
 87.6  28.1342  32.0097 i
 87.65  34.3306  32.0127 i
 87.7  32.6755  32.0156 i
 87.75  28.2063  32.0185 i
 87.8  28.2439  32.0214 i
 87.85  33.4079  32.0241 i
 87.9  25.1257  32.0269 i
 87.95  33.7044  32.0296 i
 88  38.4745  32.0323 i
 88.05  28.8775  32.0349 i
 88.1  32.5916  32.0374 i
 88.15  23.9138  32.04 i
 88.2  29.2334  32.0424 i
 88.25  30.7421  32.0448 i
 88.3  16.9411  32.0472 i
 88.35  39.8475  32.0495 i
 88.4  29.0364  32.0518 i
 88.45  32.2394  32.0541 i
 88.5  35.0021  32.0562 i
 88.55  21.6807  32.0584 i
 88.6  32.9028  32.0605 i
 88.65  21.6855  32.0625 i
 88.7  35.5216  32.0645 i
 88.75  27.2261  32.0664 i
 88.8  28.9834  32.0683 i
 88.85  40.9778  32.0701 i
 88.9  28.2339  32.0719 i
 88.95  27.1072  32.0736 i
 89  29.1042  32.0753 i
 89.05  27.4345  32.0769 i
 89.1  30.3772  32.0785 i
 89.15  30.9529  32.08 i
 89.2  26.1232  32.0815 i
 89.25  29.8692  32.0829 i
 89.3  31.7141  32.0842 i
 89.35  32.3612  32.0856 i
 89.4  39.5375  32.0868 i
 89.45  29.6782  32.088 i
 89.5  25.0268  32.0891 i
 89.55  26.226  32.0902 i
 89.6  38.163  32.0913 i
 89.65  34.2386  32.0922 i
 89.7  30.3437  32.0931 i
 89.75  30.2211  32.094 i
 89.8  21.6144  32.0948 i
 89.85  26.0658  32.0956 i
 89.9  29.6976  32.0963 i
 89.95  31.9983  32.0969 i
 90  25.1133  32.0975 i
 90.05  39.3035  32.098 i
 90.1  33.1481  32.0984 i
 90.15  33.348  32.0988 i
 90.2  18.1046  32.0992 i
 90.25  23.0433  32.0995 i
 90.3  26.3932  32.0997 i
 90.35  30.5716  32.0999 i
 90.4  25.2718  32.1 i
 90.45  34.2709  32.1 i
 90.5  24.3  32.1 i
 90.55  32.6726  32.0999 i
 90.6  31.0285  32.0997 i
 90.65  30.6299  32.0995 i
 90.7  28.2824  32.0991 i
 90.75  41.6055  32.0987 i
 90.8  33.2273  32.0983 i
 90.85  26.5924  32.0977 i
 90.9  42.1154  32.0971 i
 90.95  27.185  32.0964 i
 91  19.8277  32.0956 i
 91.05  27.5497  32.0948 i
 91.1  32.4  32.0939 i
 91.15  32.2343  32.0929 i
 91.2  35.6505  32.0919 i
 91.25  39.8455  32.0908 i
 91.3  25.3055  32.0896 i
 91.35  25.8826  32.0883 i
 91.4  35.4364  32.087 i
 91.45  30.8476  32.0856 i
 91.5  30.2833  32.0841 i
 91.55  20.6298  32.0826 i
 91.6  29.1618  32.081 i
 91.65  29.4809  32.0794 i
 91.7  31.2338  32.0776 i
 91.75  28.3833  32.0758 i
 91.8  27.0281  32.074 i
 91.85  20.3496  32.0721 i
 91.9  27.543  32.0701 i
 91.95  27.2605  32.068 i
 92  30.6869  32.0659 i
 92.05  35.6652  32.0638 i
 92.1  29.0379  32.0615 i
 92.15  23.6908  32.0592 i
 92.2  28.3805  32.0569 i
 92.25  29.036  32.0544 i
 92.3  35.5916  32.052 i
 92.35  28.752  32.0494 i
 92.4  28.6815  32.0468 i
 92.45  27.9669  32.0442 i
 92.5  36.0393  32.0414 i
 92.55  24.8486  32.0387 i
 92.6  32.0705  32.0358 i
 92.65  23.603  32.0329 i
 92.7  28.9185  32.03 i
 92.75  28.4998  32.027 i
 92.8  23.3513  32.0239 i
 92.85  29.5013  32.0208 i
 92.9  30.1001  32.0176 i
 92.95  35.0862  32.0144 i
 93  27.1896  32.0111 i
 93.05  35.2035  32.0078 i
 93.1  30.6276  32.0044 i
 93.15  36.7706  32.001 i
 93.2  28.5533  31.9975 i
 93.25  28.0802  31.9939 i
 93.3  35.1962  31.9903 i
 93.35  30.5692  31.9867 i
 93.4  31.7742  31.983 i
 93.45  31.4674  31.9792 i
 93.5  29.2062  31.9755 i
 93.55  24.8247  31.9716 i
 93.6  26.4289  31.9677 i
 93.65  23.3329  31.9638 i
 93.7  26.1126  31.9598 i
 93.75  21.7254  31.9557 i
 93.8  26.4467  31.9516 i
 93.85  29.1616  31.9475 i
 93.9  18.6514  31.9433 i
 93.95  22.1553  31.9391 i
 94  22.2347  31.9348 i
 94.05  31.9536  31.9305 i
 94.1  33.7966  31.9262 i
 94.15  32.6424  31.9217 i
 94.2  10.7776  31.9173 i
 94.25  23.3241  31.9128 i
 94.3  29.0883  31.9083 i
 94.35  24.5275  31.9037 i
 94.4  31.7447  31.8991 i
 94.45  30.2444  31.8944 i
 94.5  20.8884  31.8897 i
 94.55  31.2994  31.885 i
 94.6  27.9483  31.8802 i
 94.65  26.7439  31.8754 i
 94.7  20.1682  31.8705 i
 94.75  36.5514  31.8656 i
 94.8  28.615  31.8607 i
 94.85  34.912  31.8557 i
 94.9  35.65  31.8507 i
 94.95  31.3487  31.8457 i
 95  33.084  31.8406 i
 95.05  26.1786  31.8355 i
 95.1  26.9811  31.8303 i
 95.15  37.5457  31.8251 i
 95.2  15.2935  31.8199 i
 95.25  27.0564  31.8146 i
 95.3  22.3637  31.8093 i
 95.35  27.3966  31.804 i
 95.4  26.7912  31.7986 i
 95.45  35.4195  31.7932 i
 95.5  31.049  31.7878 i
 95.55  31.3759  31.7824 i
 95.6  42.2209  31.7769 i
 95.65  26.9932  31.7714 i
 95.7  33.8053  31.7658 i
 95.75  31.1653  31.7602 i
 95.8  34.0004  31.7546 i
 95.85  27.2408  31.749 i
 95.9  27.1328  31.7433 i
 95.95  22.8034  31.7376 i
 96  29.9986  31.7319 i
 96.05  27.5256  31.7262 i
 96.1  36.0953  31.7204 i
 96.15  27.8521  31.7146 i
 96.2  40.111  31.7088 i
 96.25  36.6665  31.7029 i
 96.3  26.6931  31.6971 i
 96.35  33.6237  31.6912 i
 96.4  25.7229  31.6852 i
 96.45  33.9574  31.6793 i
 96.5  39.4341  31.6733 i
 96.55  23.492  31.6673 i
 96.6  28.0522  31.6613 i
 96.65  23.5119  31.6553 i
 96.7  24.5518  31.6492 i
 96.75  35.0106  31.6431 i
 96.8  25.5393  31.637 i
 96.85  26.2309  31.6309 i
 96.9  30.1479  31.6248 i
 96.95  24.8242  31.6186 i
 97  27.28  31.6124 i
 97.05  36.8215  31.6062 i
 97.1  33.479  31.6 i
 97.15  29.3382  31.5938 i
 97.2  23.9933  31.5876 i
 97.25  23.8954  31.5813 i
 97.3  20.8169  31.575 i
 97.35  28.3133  31.5687 i
 97.4  30.7852  31.5624 i
 97.45  33.71  31.5561 i
 97.5  40.3987  31.5498 i
 97.55  29.2908  31.5434 i
 97.6  30.0829  31.537 i
 97.65  33.8858  31.5307 i
 97.7  31.9837  31.5243 i
 97.75  31.3083  31.5179 i
 97.8  33.029  31.5115 i
 97.85  28.0556  31.505 i
 97.9  26.6641  31.4986 i
 97.95  31.5085  31.4922 i
 98  26.0596  31.4857 i
 98.05  33.0411  31.4792 i
 98.1  31.3709  31.4728 i
 98.15  26.9546  31.4663 i
 98.2  21.0466  31.4598 i
 98.25  31.1284  31.4533 i
 98.3  39.8646  31.4468 i
 98.35  27.6265  31.4403 i
 98.4  42.5923  31.4338 i
 98.45  63.1325  31.4272 i
 98.5  53.5052  31.4207 i
 98.55  91.1127  31.4142 i
 98.6  125.566  31.4076 i
 98.65  162.348  31.4011 i
 98.7  167.645  31.3946 i
 98.75  119.999  31.388 i
 98.8  80.1332  31.3815 i
 98.85  62.4565  31.3749 i
 98.9  57.2333  31.3684 i
 98.95  42.4041  31.3618 i
 99  36.4898  31.3552 i
 99.05  35.5474  31.3487 i
 99.1  28.6489  31.3421 i
 99.15  31.8868  31.3356 i
 99.2  28.4925  31.329 i
 99.25  28.4476  31.3225 i
 99.3  26.6716  31.3159 i
 99.35  31.8549  31.3094 i
 99.4  25.2152  31.3028 i
 99.45  21.7185  31.2963 i
 99.5  29.1969  31.2897 i
 99.55  35.8804  31.2832 i
 99.6  32.5827  31.2767 i
 99.65  35.79  31.2702 i
 99.7  41.6088  31.2636 i
 99.75  23.8862  31.2571 i
 99.8  31.8469  31.2506 i
 99.85  26.1777  31.2441 i
 99.9  25.569  31.2376 i
 99.95  40.8276  31.2311 i
 100  33.3382  31.2247 i
 100.05  27.3328  31.2182 i
 100.1  33.3231  31.2117 i
 100.15  37.2203  31.2053 i
 100.2  30.9277  31.1988 i
 100.25  36.6431  31.1924 i
 100.3  33.0989  31.186 i
 100.35  25.4304  31.1796 i
 100.4  33.3918  31.1732 i
 100.45  27.5131  31.1668 i
 100.5  36.989  31.1604 i
 100.55  27.988  31.1541 i
 100.6  28.5961  31.1477 i
 100.65  27.8422  31.1414 i
 100.7  26.5764  31.1351 i
 100.75  23.5716  31.1288 i
 100.8  31.1095  31.1225 i
 100.85  35.8481  31.1162 i
 100.9  26.2116  31.1099 i
 100.95  29.2889  31.1037 i
 101  36.4682  31.0975 i
 101.05  24.7089  31.0913 i
 101.1  32.3988  31.0851 i
 101.15  30.9538  31.0789 i
 101.2  28.4113  31.0728 i
 101.25  22.5347  31.0666 i
 101.3  35.3141  31.0605 i
 101.35  35.4485  31.0544 i
 101.4  29.911  31.0484 i
 101.45  24.1322  31.0423 i
 101.5  37.9833  31.0363 i
 101.55  30.44  31.0303 i
 101.6  35.3052  31.0243 i
 101.65  24.6459  31.0183 i
 101.7  29.9688  31.0124 i
 101.75  36.3174  31.0065 i
 101.8  20.5382  31.0006 i
 101.85  30.3793  30.9947 i
 101.9  28.5719  30.9889 i
 101.95  34.0666  30.9831 i
 102  28.6424  30.9773 i
 102.05  28.3518  30.9715 i
 102.1  32.919  30.9658 i
 102.15  28.0351  30.9601 i
 102.2  25.2501  30.9544 i
 102.25  26.5138  30.9487 i
 102.3  28.8091  30.9431 i
 102.35  30.2142  30.9375 i
 102.4  28.4446  30.932 i
 102.45  29.3133  30.9264 i
 102.5  30.105  30.9209 i
 102.55  23.5209  30.9154 i
 102.6  31.2134  30.91 i
 102.65  28.6144  30.9046 i
 102.7  32.9143  30.8992 i
 102.75  28.511  30.8939 i
 102.8  24.3569  30.8886 i
 102.85  24.2163  30.8833 i
 102.9  27.4712  30.878 i
 102.95  35.0067  30.8728 i
 103  24.133  30.8676 i
 103.05  26.7605  30.8625 i
 103.1  34.7819  30.8574 i
 103.15  36.999  30.8523 i
 103.2  29.6338  30.8473 i
 103.25  28.6998  30.8423 i
 103.3  31.6295  30.8373 i
 103.35  31.0552  30.8324 i
 103.4  28.6465  30.8275 i
 103.45  34.5375  30.8227 i
 103.5  36.5434  30.8179 i
 103.55  29.0084  30.8131 i
 103.6  26.4439  30.8084 i
 103.65  33.9435  30.8037 i
 103.7  27.0234  30.7991 i
 103.75  32.0914  30.7945 i
 103.8  31.6822  30.7899 i
 103.85  20.1524  30.7854 i
 103.9  39.2962  30.7809 i
 103.95  27.6145  30.7765 i
 104  22.4968  30.7721 i
 104.05  25.7698  30.7678 i
 104.1  30.484  30.7635 i
 104.15  23.0918  30.7592 i
 104.2  25.1521  30.755 i
 104.25  38.47  30.7508 i
 104.3  32.7419  30.7467 i
 104.35  27.1274  30.7426 i
 104.4  27.0946  30.7386 i
 104.45  29.336  30.7347 i
 104.5  32.2853  30.7307 i
 104.55  27.3731  30.7269 i
 104.6  35.0044  30.723 i
 104.65  33.6283  30.7192 i
 104.7  26.8915  30.7155 i
 104.75  22.3162  30.7118 i
 104.8  33.0134  30.7082 i
 104.85  34.4845  30.7046 i
 104.9  33.4021  30.7011 i
 104.95  31.7736  30.6976 i
 105  38.5513  30.6942 i
 105.05  38.8448  30.6909 i
 105.1  31.3453  30.6875 i
 105.15  46.901  30.6843 i
 105.2  30.2521  30.6811 i
 105.25  27.0555  30.6779 i
 105.3  27.2014  30.6748 i
 105.35  37.2661  30.6718 i
 105.4  20.6294  30.6688 i
 105.45  30.4425  30.6659 i
 105.5  35.8572  30.663 i
 105.55  33.897  30.6602 i
 105.6  38.6287  30.6575 i
 105.65  28.5333  30.6548 i
 105.7  36.0289  30.6521 i
 105.75  32.9534  30.6496 i
 105.8  30.4054  30.647 i
 105.85  26.0733  30.6446 i
 105.9  32.8631  30.6422 i
 105.95  29.5234  30.6399 i
 106  31.7938  30.6376 i
 106.05  30.7298  30.6354 i
 106.1  32.7249  30.6332 i
 106.15  25.8185  30.6311 i
 106.2  26.3408  30.6291 i
 106.25  29.7778  30.6272 i
 106.3  29.9377  30.6253 i
 106.35  26.8295  30.6234 i
 106.4  29.6797  30.6217 i
 106.45  33.1362  30.62 i
 106.5  35.7893  30.6183 i
 106.55  28.4438  30.6168 i
 106.6  28.8709  30.6153 i
 106.65  26.5158  30.6138 i
 106.7  26.4388  30.6125 i
 106.75  29.8706  30.6112 i
 106.8  33.8466  30.6099 i
 106.85  24.4944  30.6088 i
 106.9  21.9048  30.6077 i
 106.95  26.5506  30.6067 i
 107  24.9629  30.6057 i
 107.05  33.6854  30.6049 i
 107.1  21.8956  30.604 i
 107.15  25.8335  30.6033 i
 107.2  36.6344  30.6027 i
 107.25  32.1564  30.6021 i
 107.3  28.3505  30.6015 i
 107.35  40.6491  30.6011 i
 107.4  29.0669  30.6007 i
 107.45  19.022  30.6004 i
 107.5  37.1313  30.6002 i
 107.55  24.0285  30.6001 i
 107.6  23.9493  30.6 i
 107.65  18.8693  30.6 i
 107.7  30.3858  30.6001 i
 107.75  27.0123  30.6002 i
 107.8  35.0013  30.6003 i
 107.85  44.9055  30.6005 i
 107.9  24.2828  30.6007 i
 107.95  40.438  30.601 i
 108  32.9745  30.6013 i
 108.05  28.5184  30.6017 i
 108.1  42.2013  30.6021 i
 108.15  40.3378  30.6026 i
 108.2  25.4342  30.6031 i
 108.25  37.1387  30.6036 i
 108.3  24.7094  30.6042 i
 108.35  21.3942  30.6049 i
 108.4  26.0256  30.6055 i
 108.45  28.6867  30.6063 i
 108.5  25.7006  30.607 i
 108.55  21.3213  30.6078 i
 108.6  29.1942  30.6087 i
 108.65  35.6426  30.6096 i
 108.7  34.5323  30.6105 i
 108.75  34.6467  30.6115 i
 108.8  28.4721  30.6125 i
 108.85  32.6278  30.6136 i
 108.9  34.7581  30.6147 i
 108.95  35.2337  30.6159 i
 109  32.1858  30.6171 i
 109.05  29.3582  30.6183 i
 109.1  35.5235  30.6196 i
 109.15  27.1686  30.6209 i
 109.2  23.6572  30.6223 i
 109.25  27.6425  30.6237 i
 109.3  28.3587  30.6252 i
 109.35  21.7229  30.6266 i
 109.4  20.7581  30.6282 i
 109.45  23.2442  30.6298 i
 109.5  24.1788  30.6314 i
 109.55  30.5744  30.633 i
 109.6  41.6796  30.6347 i
 109.65  31.1915  30.6364 i
 109.7  38.2635  30.6382 i
 109.75  34.1513  30.64 i
 109.8  28.7562  30.6419 i
 109.85  31.878  30.6438 i
 109.9  21.5876  30.6457 i
 109.95  32.6157  30.6477 i
 110  20.734  30.6497 i
 110.05  28.0107  30.6518 i
 110.1  30.2035  30.6539 i
 110.15  29.5798  30.656 i
 110.2  35.3038  30.6581 i
 110.25  32.2178  30.6604 i
 110.3  29.1102  30.6626 i
 110.35  28.6974  30.6649 i
 110.4  28.6501  30.6672 i
 110.45  31.0126  30.6696 i
 110.5  27.7622  30.672 i
 110.55  27.5605  30.6744 i
 110.6  26.1067  30.6769 i
 110.65  26.2638  30.6794 i
 110.7  31.9206  30.6819 i
 110.75  23.8921  30.6845 i
 110.8  20.317  30.6871 i
 110.85  28.5491  30.6898 i
 110.9  30.6601  30.6925 i
 110.95  30.3562  30.6952 i
 111  39.755  30.698 i
 111.05  32.5764  30.7008 i
 111.1  36.5822  30.7036 i
 111.15  32.7535  30.7065 i
 111.2  31.1302  30.7094 i
 111.25  30.5688  30.7124 i
 111.3  28.2545  30.7154 i
 111.35  27.5743  30.7184 i
 111.4  30.2108  30.7214 i
 111.45  25.0764  30.7245 i
 111.5  20.4026  30.7276 i
 111.55  32.1485  30.7308 i
 111.6  28.6173  30.734 i
 111.65  24.1248  30.7372 i
 111.7  26.343  30.7405 i
 111.75  34.0476  30.7438 i
 111.8  38.8817  30.7471 i
 111.85  29.5332  30.7505 i
 111.9  26.7756  30.7539 i
 111.95  17.8362  30.7573 i
 112  28.0956  30.7608 i
 112.05  33.3948  30.7643 i
 112.1  34.5133  30.7678 i
 112.15  33.7953  30.7714 i
 112.2  30.5019  30.775 i
 112.25  30.0772  30.7786 i
 112.3  33.8506  30.7822 i
 112.35  30.244  30.7859 i
 112.4  24.341  30.7897 i
 112.45  31.9063  30.7934 i
 112.5  29.8003  30.7972 i
 112.55  32.3489  30.801 i
 112.6  28.4296  30.8049 i
 112.65  27.1779  30.8088 i
 112.7  29.0831  30.8127 i
 112.75  21.9597  30.8166 i
 112.8  26.0692  30.8206 i
 112.85  37.1654  30.8246 i
 112.9  26.9639  30.8287 i
 112.95  28.2065  30.8327 i
 113  31.6166  30.8368 i
 113.05  27.0373  30.841 i
 113.1  22.3836  30.8451 i
 113.15  33.2183  30.8493 i
 113.2  28.6408  30.8536 i
 113.25  35.6167  30.8578 i
 113.3  32.3564  30.8621 i
 113.35  28.1382  30.8664 i
 113.4  38.7049  30.8707 i
 113.45  26.4176  30.8751 i
 113.5  36.1205  30.8795 i
 113.55  40.4675  30.8839 i
 113.6  26.8196  30.8884 i
 113.65  27.807  30.8929 i
 113.7  29.6108  30.8974 i
 113.75  34.842  30.9019 i
 113.8  34.1136  30.9065 i
 113.85  29.0934  30.9111 i
 113.9  20.4178  30.9157 i
 113.95  32.896  30.9204 i
 114  31.5819  30.925 i
 114.05  27.5008  30.9297 i
 114.1  33.706  30.9345 i
 114.15  26.4173  30.9392 i
 114.2  41.4622  30.944 i
 114.25  26.3322  30.9488 i
 114.3  22.5062  30.9537 i
 114.35  25.4366  30.9585 i
 114.4  37.9699  30.9634 i
 114.45  25.2794  30.9684 i
 114.5  24.3301  30.9733 i
 114.55  26.6634  30.9783 i
 114.6  26.9404  30.9833 i
 114.65  32.252  30.9883 i
 114.7  25.1638  30.9933 i
 114.75  23.7745  30.9984 i
 114.8  17.7955  31.0035 i
 114.85  38.771  31.0086 i
 114.9  43.9933  31.0138 i
 114.95  31.6949  31.019 i
 115  30.1918  31.0241 i
 115.05  27.9263  31.0294 i
 115.1  34.84  31.0346 i
 115.15  32.8342  31.0399 i
 115.2  34.8933  31.0452 i
 115.25  37.6745  31.0505 i
 115.3  34.4306  31.0558 i
 115.35  32.2844  31.0612 i
 115.4  34.4845  31.0666 i
 115.45  29.6453  31.072 i
 115.5  41.6869  31.0774 i
 115.55  33.447  31.0829 i
 115.6  36.6056  31.0884 i
 115.65  33.3979  31.0939 i
 115.7  46.6648  31.0994 i
 115.75  73.2649  31.1049 i
 115.8  75.0004  31.1105 i
 115.85  68.3783  31.1161 i
 115.9  79.6012  31.1217 i
 115.95  104.855  31.1274 i
 116  118.826  31.133 i
 116.05  114.242  31.1387 i
 116.1  92.6712  31.1444 i
 116.15  90.8858  31.1501 i
 116.2  84.6537  31.1558 i
 116.25  58.6954  31.1616 i
 116.3  44.8518  31.1674 i
 116.35  44.1382  31.1732 i
 116.4  37.9758  31.179 i
 116.45  30.7737  31.1849 i
 116.5  44.2251  31.1907 i
 116.55  32.8099  31.1966 i
 116.6  48.3133  31.2025 i
 116.65  37.7372  31.2084 i
 116.7  32.9497  31.2144 i
 116.75  40.534  31.2203 i
 116.8  27.1784  31.2263 i
 116.85  40.9785  31.2323 i
 116.9  35.6762  31.2383 i
 116.95  21.3776  31.2444 i
 117  28.4952  31.2504 i
 117.05  38.1886  31.2565 i
 117.1  25.5728  31.2626 i
 117.15  30.2954  31.2687 i
 117.2  33.9992  31.2748 i
 117.25  38.7959  31.281 i
 117.3  28.696  31.2871 i
 117.35  26.4865  31.2933 i
 117.4  23.5597  31.2995 i
 117.45  36.232  31.3057 i
 117.5  27.6985  31.312 i
 117.55  36.1241  31.3182 i
 117.6  31.1633  31.3245 i
 117.65  24.4867  31.3308 i
 117.7  33.6397  31.3371 i
 117.75  28.0725  31.3434 i
 117.8  32.1908  31.3497 i
 117.85  38.6934  31.3561 i
 117.9  28.046  31.3624 i
 117.95  25.936  31.3688 i
 118  37.2425  31.3752 i
 118.05  35.1619  31.3816 i
 118.1  36.9821  31.3881 i
 118.15  29  31.3945 i
 118.2  12.7811  31.401 i
 118.25  24.2062  31.4074 i
 118.3  24.293  31.4139 i
 118.35  24.0327  31.4204 i
 118.4  33.1203  31.4269 i
 118.45  30.4562  31.4335 i
 118.5  27.5864  31.44 i
 118.55  25.1526  31.4466 i
 118.6  18.5628  31.4531 i
 118.65  19.108  31.4597 i
 118.7  29.0048  31.4663 i
 118.75  27.4097  31.4729 i
 118.8  28.7172  31.4796 i
 118.85  33.7729  31.4862 i
 118.9  38.1214  31.4929 i
 118.95  29.5586  31.4995 i
 119  29.1213  31.5062 i
 119.05  33.2163  31.5129 i
 119.1  41.17  31.5196 i
 119.15  32.4594  31.5263 i
 119.2  25.4239  31.533 i
 119.25  29.4904  31.5398 i
 119.3  24.5329  31.5465 i
 119.35  29.0601  31.5533 i
 119.4  36.0027  31.5601 i
 119.45  26.9506  31.5668 i
 119.5  25.2263  31.5736 i
 119.55  36.16  31.5804 i
 119.6  30.069  31.5873 i
 119.65  30.9213  31.5941 i
 119.7  17.1068  31.6009 i
 119.75  21.9221  31.6078 i
 119.8  24.5859  31.6146 i
 119.85  22.6878  31.6215 i
 119.9  34.001  31.6284 i
 119.95  22.8291  31.6353 i
 120  23.8941  31.6422 i
 120.05  25.2256  31.6491 i
 120.1  34.0582  31.656 i
 120.15  19.7318  31.6629 i
 120.2  27.7268  31.6699 i
 120.25  28.0838  31.6768 i
 120.3  32.9658  31.6838 i
 120.35  31.8399  31.6907 i
 120.4  34.5745  31.6977 i
 120.45  30.4047  31.7047 i
 120.5  28.0583  31.7117 i
 120.55  27.0504  31.7187 i
 120.6  29.868  31.7257 i
 120.65  26.7714  31.7327 i
 120.7  23.7959  31.7397 i
 120.75  25.9127  31.7467 i
 120.8  34.2955  31.7538 i
 120.85  17.703  31.7608 i
 120.9  28.3744  31.7679 i
 120.95  35.8506  31.7749 i
 121  33.4317  31.782 i
 121.05  29.4589  31.789 i
 121.1  25.0605  31.7961 i
 121.15  33.1832  31.8032 i
 121.2  31.6445  31.8103 i
 121.25  34.3045  31.8174 i
 121.3  18.0128  31.8245 i
 121.35  33.0851  31.8316 i
 121.4  37.3424  31.8387 i
 121.45  40.2439  31.8458 i
 121.5  33.8189  31.8529 i
 121.55  38.8073  31.8601 i
 121.6  30.5445  31.8672 i
 121.65  27.8157  31.8743 i
 121.7  36.4264  31.8815 i
 121.75  34.5238  31.8886 i
 121.8  24.2025  31.8958 i
 121.85  33.696  31.9029 i
 121.9  25.6565  31.9101 i
 121.95  18.1093  31.9172 i
 122  34.09  31.9244 i
 122.05  28.2182  31.9316 i
 122.1  27.9882  31.9387 i
 122.15  30.4245  31.9459 i
 122.2  29.9253  31.9531 i
 122.25  27.392  31.9603 i
 122.3  25.439  31.9675 i
 122.35  36.7989  31.9746 i
 122.4  32.9072  31.9818 i
 122.45  50.9807  31.989 i
 122.5  26.9048  31.9962 i
 122.55  26.1213  32.0034 i
 122.6  29.5446  32.0106 i
 122.65  28.6655  32.0178 i
 122.7  30.5386  32.025 i
 122.75  29.6451  32.0322 i
 122.8  38.6575  32.0394 i
 122.85  35.7507  32.0466 i
 122.9  24.426  32.0539 i
 122.95  25.0442  32.0611 i
 123  35.2396  32.0683 i
 123.05  27.5029  32.0755 i
 123.1  33.005  32.0827 i
 123.15  27.3044  32.0899 i
 123.2  26.2069  32.0971 i
 123.25  30.759  32.1043 i
 123.3  21.2015  32.1115 i
 123.35  27.7073  32.1187 i
 123.4  32.3929  32.126 i
 123.45  34.1854  32.1332 i
 123.5  24.6019  32.1404 i
 123.55  30.9274  32.1476 i
 123.6  28.9095  32.1548 i
 123.65  37.3715  32.162 i
 123.7  34.2188  32.1692 i
 123.75  32.9475  32.1764 i
 123.8  25.2962  32.1836 i
 123.85  36.439  32.1908 i
 123.9  39.8006  32.198 i
 123.95  21.7855  32.2052 i
 124  34.985  32.2124 i
 124.05  34.9073  32.2196 i
 124.1  35.1481  32.2268 i
 124.15  29.3091  32.234 i
 124.2  34.7649  32.2412 i
 124.25  33.6452  32.2483 i
 124.3  37.3742  32.2555 i
 124.35  27.099  32.2627 i
 124.4  30.7175  32.2699 i
 124.45  37.9119  32.277 i
 124.5  28.7401  32.2842 i
 124.55  22.7125  32.2914 i
 124.6  23.1346  32.2985 i
 124.65  32.9639  32.3057 i
 124.7  27.3049  32.3128 i
 124.75  22.3022  32.32 i
 124.8  27.7311  32.3271 i
 124.85  35.0492  32.3342 i
 124.9  31.1729  32.3414 i
 124.95  18.0045  32.3485 i
 125  22.7108  32.3556 i
 125.05  30.174  32.3627 i
 125.1  32.0807  32.3698 i
 125.15  28.447  32.3769 i
 125.2  25.3935  32.384 i
 125.25  37.2941  32.3911 i
 125.3  31.3685  32.3982 i
 125.35  29.0255  32.4053 i
 125.4  25.9534  32.4124 i
 125.45  27.546  32.4194 i
 125.5  29.9226  32.4265 i
 125.55  25.538  32.4336 i
 125.6  37.219  32.4406 i
 125.65  36.1512  32.4476 i
 125.7  31.737  32.4547 i
 125.75  26.7959  32.4617 i
 125.8  39.3174  32.4687 i
 125.85  25.0092  32.4757 i
 125.9  31.7898  32.4827 i
 125.95  29.4233  32.4897 i
 126  27.0945  32.4967 i
 126.05  41.9846  32.5037 i
 126.1  37.857  32.5107 i
 126.15  27.6433  32.5176 i
 126.2  32.9618  32.5246 i
 126.25  27.9949  32.5315 i
 126.3  29.5218  32.5385 i
 126.35  29.0005  32.5454 i
 126.4  31.8544  32.5523 i
 126.45  27.4598  32.5592 i
 126.5  29.9569  32.5661 i
 126.55  28.3469  32.573 i
 126.6  33.7523  32.5799 i
 126.65  28.539  32.5867 i
 126.7  21.907  32.5936 i
 126.75  29.6607  32.6004 i
 126.8  29.7127  32.6073 i
 126.85  32.6464  32.6141 i
 126.9  30.0451  32.6209 i
 126.95  28.2581  32.6277 i
 127  34.4638  32.6345 i
 127.05  32.6775  32.6413 i
 127.1  33.6222  32.6481 i
 127.15  30.0772  32.6548 i
 127.2  23.6675  32.6616 i
 127.25  43.2425  32.6683 i
 127.3  26.33  32.675 i
 127.35  29.5049  32.6818 i
 127.4  29.4776  32.6885 i
 127.45  33.0914  32.6951 i
 127.5  33.4123  32.7018 i
 127.55  33.1641  32.7085 i
 127.6  32.9134  32.7151 i
 127.65  35.3503  32.7218 i
 127.7  31.1683  32.7284 i
 127.75  33.7064  32.735 i
 127.8  25.0524  32.7416 i
 127.85  23.4112  32.7482 i
 127.9  28.4937  32.7548 i
 127.95  23.3208  32.7613 i
 128  35.1636  32.7678 i
 128.05  47.5383  32.7744 i
 128.1  32.3725  32.7809 i
 128.15  26.303  32.7874 i
 128.2  28.7113  32.7939 i
 128.25  31.0633  32.8003 i
 128.3  21.5306  32.8068 i
 128.35  33.1584  32.8132 i
 128.4  47.1228  32.8197 i
 128.45  30.2619  32.8261 i
 128.5  47.63  32.8325 i
 128.55  38.8125  32.8388 i
 128.6  27.8225  32.8452 i
 128.65  26.5979  32.8515 i
 128.7  22.3036  32.8579 i
 128.75  37.3298  32.8642 i
 128.8  26.0879  32.8705 i
 128.85  32.4807  32.8768 i
 128.9  31.8976  32.883 i
 128.95  29.0895  32.8893 i
 129  37.6278  32.8955 i
 129.05  26.1957  32.9017 i
 129.1  28.152  32.9079 i
 129.15  29.1738  32.9141 i
 129.2  34.7054  32.9203 i
 129.25  27.7309  32.9264 i
 129.3  43.58  32.9325 i
 129.35  40.3284  32.9386 i
 129.4  39.9977  32.9447 i
 129.45  23.7732  32.9508 i
 129.5  38.2417  32.9568 i
 129.55  36.3142  32.9629 i
 129.6  24.9126  32.9689 i
 129.65  28.7602  32.9749 i
 129.7  34.0529  32.9809 i
 129.75  31.5018  32.9868 i
 129.8  27.9486  32.9928 i
 129.85  30.554  32.9987 i
 129.9  31.5458  33.0046 i
 129.95  27.1725  33.0105 i
 130  27.6914  33.0163 i

