40 24.5352 30.9476 -6.4124
40.05 36.4874 30.9404 5.547
40.1 38.6125 30.9332 7.6793
40.15 28.0716 30.9256 -2.854
40.2 41.0463 30.9179 10.1284
40.25 42.4861 30.9107 11.5754
40.3 38.2264 30.9035 7.3229
40.35 48.7182 30.899 17.8192
40.4 31.1715 30.8908 0.2807
40.45 37.1906 30.8849 6.3057
40.5 39.9501 30.8789 9.0712
40.55 39.9877 30.8723 9.1154
40.6 38.2762 30.8658 7.4104
40.65 41.9794 30.8575 11.1219
40.7 50.4556 30.8514 19.6042
40.75 37.6241 30.8445 6.7796
40.8 26.8761 30.8375 -3.9614
40.85 32.6827 30.8316 1.8511
40.9 37.2231 30.8256 6.3975
40.95 45.0364 30.8204 14.216
41 36.8861 30.8152 6.0709
41.05 32.9962 30.8097 2.1865
41.1 38.5916 30.8042 7.7874
41.15 29.7197 30.7979 -1.0782
41.2 32.1859 30.7917 1.3942
41.25 36.9086 30.7854 6.1232
41.3 43.6549 30.7791 12.8758
41.35 40.5931 30.774 9.8191
41.4 31.9836 30.7688 1.2148
41.45 37.7144 30.7649 6.9495
41.5 30.6537 30.761 -0.1073
41.55 39.173 30.7572 8.4158
41.6 43.0433 30.7534 12.2899
41.65 39.63 30.7488 8.8812
41.7 40.7633 30.7443 10.019
41.75 25.8908 30.7396 -4.8488
41.8 38.8361 30.7349 8.1012
41.85 40.4462 30.7315 9.7147
41.9 36.0976 30.7282 5.3694
41.95 37.4309 30.7267 6.7042
42 44.0595 30.7251 13.3344
42.05 31.3983 30.7244 0.6739
42.1 43.4125 30.7237 12.6888
42.15 28.9685 30.7226 -1.7541
42.2 34.6107 30.7214 3.8893
42.25 43.4921 30.7203 12.7718
42.3 35.9761 30.7192 5.2569
42.35 30.5934 30.72 -0.1266
42.4 35.0934 30.7208 4.3726
42.45 35.8927 30.7246 5.1681
42.5 47.1783 30.7285 16.4498
42.55 51.1438 30.7321 20.4117
42.6 26.5552 30.7405 -4.1853
42.65 35.1824 30.7473 4.4351
42.7 46.3211 30.7541 15.567
42.75 32.1689 30.7622 1.4067
42.8 23.0303 30.7703 -7.74
42.85 33.9488 30.7824 3.1664
42.9 28.3589 30.7945 -2.4356
42.95 32.0186 30.813 1.2056
43 31.3461 30.8315 0.5146
43.05 42.2715 30.8568 11.4147
43.1 42.0807 30.8821 11.1986
43.15 33.6358 30.9139 2.7219
43.2 34.5276 30.9457 3.5819
43.25 42.669 30.9896 11.6794
43.3 28.4821 31.0335 -2.5514
43.35 33.4631 31.1948 2.2683
43.4 23.2355 31.3562 -8.1207
43.45 41.486 31.6124 9.8736
43.5 31.5241 31.8686 -0.3445
43.55 43.7992 32.0382 11.761
43.6 26.4082 32.2079 -5.7997
43.65 38.9257 32.4334 6.4923
43.7 28.9552 32.6589 -3.7037
43.75 44.8247 32.9447 11.88
43.8 41.6183 33.2985 8.3198
43.85 37.3364 33.782 3.5544
43.9 42.3268 34.2655 8.0613
43.95 38.6668 35.0479 3.6189
44 28.3006 35.8303 -7.5297
44.05 40.2734 37.2101 3.0633
44.1 45.0528 38.5898 6.463
44.15 45.5092 40.8311 4.6781
44.2 40.7729 44.2397 -3.4668
44.25 62.1156 49.8469 12.2687
44.3 90.3015 60.9956 29.3059
44.35 86.2068 91.2931 -5.0863
44.4 132.834 186.927 -54.093
44.45 388.156 472.852 -84.696
44.5 1221.71 1090.91 130.8
44.55 2047.15 1905.11 142.04
44.6 2128.81 2216.52 -87.71
44.65 1038.57 1132.65 -94.08
44.7 314.425 272.911 41.514
44.75 112.672 102.627 10.045
44.8 67.4062 64.6941 2.7121
44.85 55.291 51.0017 4.2893
44.9 53.567 43.7784 9.7886
44.95 34.5585 39.8922 -5.3337
45 42.4602 37.4874 4.9728
45.05 39.2446 35.8526 3.392
45.1 42.593 34.727 7.866
45.15 35.4679 33.9939 1.474
45.2 39.2192 33.2609 5.9583
45.25 28.9319 32.8275 -3.8956
45.3 27.1791 32.3942 -5.2151
45.35 40.3439 32.1174 8.2265
45.4 36.06 31.8405 4.2195
45.45 35.052 31.6488 3.4032
45.5 31.6683 31.4571 0.2112
45.55 42.7867 31.3154 11.4713
45.6 31.6265 31.1736 0.4529
45.65 31.0057 31.066 -0.0603
45.7 37.0649 30.9585 6.1064
45.75 31.5779 30.8518 0.7261
45.8 33.1763 30.745 2.4313
45.85 33.7227 30.6504 3.0723
45.9 39.245 30.5557 8.6893
45.95 34.6316 30.5053 4.1263
46 40.7745 30.455 10.3195
46.05 31.1905 30.4118 0.7787
46.1 34.1073 30.3685 3.7388
46.15 30.8024 30.3322 0.4702
46.2 33.3687 30.296 3.0727
46.25 35.9098 30.267 5.6428
46.3 33.6718 30.238 3.4338
46.35 35.2325 30.2134 5.0191
46.4 39.2035 30.1889 9.0146
46.45 28.3279 30.1656 -1.8377
46.5 26.9769 30.1423 -3.1654
46.55 30.7296 30.1198 0.6098
46.6 26.733 30.0972 -3.3642
46.65 38.7006 30.0775 8.6231
46.7 28.8 30.0577 -1.2577
46.75 35.3817 30.0414 5.3403
46.8 28.3975 30.0251 -1.6276
46.85 34.2383 30.0105 4.2278
46.9 28.6907 29.9958 -1.3051
46.95 33.478 29.9806 3.4974
47 34.6106 29.9655 4.6451
47.05 39.4882 29.9503 9.5379
47.1 38.9196 29.935 8.9846
47.15 31.7805 29.9215 1.859
47.2 45.2878 29.9081 15.3797
47.25 22.8709 29.8968 -7.0259
47.3 29.4135 29.8855 -0.472
47.35 43.656 29.8747 13.7813
47.4 30.1246 29.8639 0.2607
47.45 21.8887 29.8522 -7.9635
47.5 31.2862 29.8405 1.4457
47.55 30.4005 29.8287 0.5718
47.6 36.2561 29.8168 6.4393
47.65 34.2039 29.8065 4.3974
47.7 43.0799 29.7961 13.2838
47.75 27.5883 29.7872 -2.1989
47.8 34.8738 29.7784 5.0954
47.85 24.2293 29.7694 -5.5401
47.9 32.6708 29.7605 2.9103
47.95 39.6348 29.7505 9.8843
48 30.9969 29.7406 1.2563
48.05 32.9948 29.7307 3.2641
48.1 34.17 29.7209 4.4491
48.15 30.1831 29.7124 0.4707
48.2 43.8083 29.7039 14.1044
48.25 23.1212 29.6964 -6.5752
48.3 43.0392 29.6889 13.3503
48.35 35.6703 29.6809 5.9894
48.4 35.1031 29.6729 5.4302
48.45 34.6821 29.664 5.0181
48.5 35.5354 29.6552 5.8802
48.55 37.9791 29.6467 8.3324
48.6 34.8178 29.6383 5.1795
48.65 35.5609 29.631 5.9299
48.7 43.5553 29.6238 13.9315
48.75 36.0446 29.6171 6.4275
48.8 24.4959 29.6105 -5.1146
48.85 40.6029 29.603 10.9999
48.9 31.1297 29.5956 1.5341
48.95 29.3945 29.5876 -0.1931
49 31.6467 29.5796 2.0671
49.05 31.2944 29.5722 1.7222
49.1 40.9809 29.5648 11.4161
49.15 40.4277 29.5599 10.8678
49.2 40.8869 29.5523 11.3346
49.25 32.5545 29.5466 3.0079
49.3 37.3047 29.5408 7.7639
49.35 27.8866 29.5338 -1.6472
49.4 26.9594 29.5267 -2.5673
49.45 34.2276 29.5195 4.7081
49.5 22.9708 29.5122 -6.5414
49.55 35.9974 29.5059 6.4915
49.6 39.6962 29.4995 10.1967
49.65 34.1383 29.4939 4.6444
49.7 40.6611 29.4884 11.1727
49.75 34.0503 29.4824 4.5679
49.8 41.7306 29.4765 12.2541
49.85 38.4141 29.4699 8.9442
49.9 37.2007 29.4632 7.7375
49.95 39.7824 29.4568 10.3256
50 37.4719 29.4503 8.0216
50.05 32.3429 29.4448 2.8981
50.1 32.2046 29.4393 2.7653
50.15 27.8737 29.4342 -1.5605
50.2 27.4769 29.4291 -1.9522
50.25 24.6144 29.4234 -4.809
50.3 29.5989 29.4177 0.1812
50.35 34.7391 29.4115 5.3276
50.4 38.154 29.4053 8.7487
50.45 25.3819 29.3997 -4.0178
50.5 29.161 29.394 -0.233
50.55 21.7673 29.3893 -7.622
50.6 26.7856 29.3845 -2.5989
50.65 35.8377 29.3797 6.458
50.7 34.312 29.3749 4.9371
50.75 37.034 29.3694 7.6646
50.8 25.8528 29.3639 -3.5111
50.85 26.4516 29.3583 -2.9067
50.9 26.6676 29.3527 -2.6851
50.95 35.5244 29.3479 6.1765
51 32.4467 29.3432 3.1035
51.05 33.6119 29.3389 4.273
51.1 33.6954 29.3347 4.3607
51.15 35.3563 29.3301 6.0262
51.2 37.2714 29.3254 7.946
51.25 35.397 29.3202 6.0768
51.3 28.8227 29.315 -0.4923
51.35 25.9283 29.3102 -3.3819
51.4 32.0738 29.3054 2.7684
51.45 19.9206 29.3014 -9.3808
51.5 28.489 29.2974 -0.8084
51.55 31.6386 29.2935 2.3451
51.6 33.0086 29.2897 3.7189
51.65 31.7539 29.2851 2.4688
51.7 35.1684 29.2806 5.8878
51.75 33.7806 29.276 4.5046
51.8 30.5657 29.2713 1.2944
51.85 31.0596 29.2673 1.7923
51.9 27.1714 29.2634 -2.092
51.95 27.3948 29.26 -1.8652
52 26.1106 29.2566 -3.146
52.05 32.46 29.2529 3.2071
52.1 39.4973 29.2492 10.2481
52.15 30.683 29.2449 1.4381
52.2 22.5767 29.2407 -6.664
52.25 36.2706 29.2368 7.0338
52.3 21.7382 29.2329 -7.4947
52.35 20.9048 29.2298 -8.325
52.4 21.4717 29.2266 -7.7549
52.45 43.1407 29.2236 13.9171
52.5 33.8487 29.2206 4.6281
52.55 24.932 29.217 -4.285
52.6 35.1448 29.2134 5.9314
52.65 23.0995 29.2097 -6.1102
52.7 26.9036 29.206 -2.3024
52.75 26.9403 29.203 -2.2627
52.8 34.0156 29.2 4.8156
52.85 43.6577 29.1974 14.4603
52.9 37.3954 29.195 8.2004
52.95 34.7875 29.1921 5.5954
53 42.7785 29.1893 13.5892
53.05 26.4611 29.186 -2.7249
53.1 24.3747 29.1827 -4.808
53.15 26.5557 29.1798 -2.6241
53.2 35.6002 29.1769 6.4233
53.25 33.0768 29.1747 3.9021
53.3 43.027 29.1725 13.8545
53.35 29.0047 29.1704 -0.1657
53.4 23.1312 29.1682 -6.037
53.45 30.3967 29.1655 1.2312
53.5 35.0906 29.1628 5.9278
53.55 34.4325 29.1601 5.2724
53.6 30.3316 29.1575 1.1741
53.65 31.5984 29.1555 2.4429
53.7 39.9395 29.1535 10.786
53.75 23.8201 29.152 -5.3319
53.8 25.35 29.1504 -3.8004
53.85 33.1258 29.1484 3.9774
53.9 29.8932 29.1464 0.7468
53.95 36.5518 29.144 7.4078
54 35.8119 29.1417 6.6702
54.05 17.3188 29.14 -11.8212
54.1 36.8444 29.1382 7.7062
54.15 43.1527 29.1371 14.0156
54.2 31.3718 29.1359 2.2359
54.25 25.2611 29.1346 -3.8735
54.3 25.2066 29.1333 -3.9267
54.35 21.341 29.1315 -7.7905
54.4 38.7524 29.1297 9.6227
54.45 33.3383 29.1282 4.2101
54.5 27.9764 29.1266 -1.1502
54.55 22.7129 29.1258 -6.4129
54.6 28.2528 29.125 -0.8722
54.65 33.4566 29.1244 4.3322
54.7 38.5722 29.1237 9.4485
54.75 31.9218 29.1225 2.7993
54.8 27.2066 29.1214 -1.9148
54.85 19.997 29.1201 -9.1231
54.9 27.0571 29.1189 -2.0618
54.95 24.4139 29.1184 -4.7045
55 34.4663 29.1179 5.3484
55.05 25.755 29.1178 -3.3628
55.1 27.048 29.1177 -2.0697
55.15 27.4988 29.1172 -1.6184
55.2 29.5028 29.1167 0.3861
55.25 30.6418 29.1159 1.5259
55.3 30.4462 29.1152 1.331
55.35 26.2053 29.1149 -2.9096
55.4 37.9142 29.1147 8.7995
55.45 31.6893 29.1151 2.5742
55.5 31.8722 29.1155 2.7567
55.55 35.4997 29.1156 6.3841
55.6 32.245 29.1158 3.1292
55.65 30.7244 29.1154 1.609
55.7 34.9404 29.1151 5.8253
55.75 29.2784 29.1151 0.1633
55.8 38.4364 29.1151 9.3213
55.85 32.6818 29.1157 3.5661
55.9 27.3658 29.1164 -1.7506
55.95 35.9463 29.117 6.8293
56 27.1636 29.1176 -1.954
56.05 31.6079 29.1177 2.4902
56.1 25.5732 29.1178 -3.5446
56.15 26.8559 29.1179 -2.262
56.2 28.7111 29.1181 -0.407
56.25 30.4102 29.119 1.2912
56.3 25.6945 29.1198 -3.4253
56.35 46.0554 29.1202 16.9352
56.4 21.5673 29.1219 -7.5546
56.45 29.2658 29.1224 0.1434
56.5 38.7647 29.1229 9.6418
56.55 34.3973 29.1233 5.274
56.6 36.1798 29.1237 7.0561
56.65 29.721 29.1247 0.5963
56.7 43.5931 29.1258 14.4673
56.75 42.5369 29.1268 13.4101
56.8 36.0205 29.1285 6.892
56.85 31.702 29.1295 2.5725
56.9 45.3606 29.1304 16.2302
56.95 38.7644 29.1311 9.6333
57 29.3356 29.1318 0.2038
57.05 28.3233 29.133 -0.8097
57.1 32.4044 29.1342 3.2702
57.15 25.0914 29.1359 -4.0445
57.2 30.8465 29.1376 1.7089
57.25 29.3317 29.1389 0.1928
57.3 34.1869 29.1403 5.0466
57.35 25.8735 29.1412 -3.2677
57.4 28.6907 29.1422 -0.4515
57.45 23.7205 29.1436 -5.4231
57.5 22.1375 29.1449 -7.0074
57.55 25.2014 29.1469 -3.9455
57.6 38.8987 29.1489 9.7498
57.65 34.1924 29.1506 5.0418
57.7 30.1855 29.1523 1.0332
57.75 32.3538 29.1536 3.2002
57.8 25.8793 29.1548 -3.2755
57.85 24.9716 29.1564 -4.1848
57.9 29.007 29.158 -0.151
57.95 35.3117 29.1602 6.1515
58 24.9939 29.1624 -4.1685
58.05 35.1236 29.1645 5.9591
58.1 40.4648 29.1666 11.2982
58.15 20.5547 29.1681 -8.6134
58.2 29.9051 29.1697 0.7354
58.25 27.7473 29.1715 -1.4242
58.3 30.3629 29.1732 1.1897
58.35 26.9001 29.1757 -2.2756
58.4 26.8081 29.1781 -2.37
58.45 29.6876 29.1805 0.5071
58.5 37.2998 29.1829 8.1169
58.55 39.7795 29.1848 10.5947
58.6 33.3192 29.1866 4.1326
58.65 23.7113 29.1886 -5.4773
58.7 37.46 29.1906 8.2694
58.75 23.2162 29.1933 -5.9771
58.8 33.4817 29.1959 4.2858
58.85 19.9588 29.1986 -9.2398
58.9 27.999 29.2013 -1.2023
58.95 25.757 29.2035 -3.4465
59 35.5659 29.2056 6.3603
59.05 29.5895 29.2078 0.3817
59.1 31.2974 29.21 2.0874
59.15 28.1202 29.2129 -1.0927
59.2 37.1628 29.2158 7.947
59.25 30.003 29.2188 0.7842
59.3 32.3963 29.2217 3.1746
59.35 29.1489 29.2241 -0.0752
59.4 33.2066 29.2265 3.9801
59.45 34.0707 29.229 4.8417
59.5 29.4898 29.2314 0.2584
59.55 28.5683 29.2345 -0.6662
59.6 24.1645 29.2377 -5.0732
59.65 25.1939 29.2409 -4.047
59.7 32.9227 29.2441 3.6786
59.75 40.3681 29.2468 11.1213
59.8 34.4669 29.2494 5.2175
59.85 25.1585 29.2521 -4.0936
59.9 27.9031 29.2548 -1.3517
59.95 38.2508 29.2525 8.9983
60 30.9981 29.2503 1.7478
60.05 34.4581 29.2534 5.2047
60.1 25.5974 29.2566 -3.6592
60.15 24.4541 29.2597 -4.8056
60.2 30.0892 29.2629 0.8263
60.25 31.7191 29.2661 2.453
60.3 33.5255 29.2693 4.2562
60.35 29.3524 29.2727 0.0797
60.4 36.141 29.276 6.865
60.45 34.1209 29.2794 4.8415
60.5 34.0724 29.2827 4.7897
60.55 26.6117 29.2861 -2.6744
60.6 24.4015 29.2895 -4.888
60.65 25.6752 29.293 -3.6178
60.7 23.5943 29.2964 -5.7021
60.75 37.401 29.3 8.101
60.8 33.5989 29.3036 4.2953
60.85 31.5647 29.3072 2.2575
60.9 31.3644 29.3108 2.0536
60.95 17.3473 29.3144 -11.9671
61 24.0161 29.318 -5.3019
61.05 41.4025 29.3217 12.0808
61.1 38.1085 29.3254 8.7831
61.15 34.5906 29.3293 5.2613
61.2 34.9258 29.3331 5.5927
61.25 24.2594 29.3369 -5.0775
61.3 26.5075 29.3408 -2.8333
61.35 23.1835 29.3446 -6.1611
61.4 30.3417 29.3485 0.9932
61.45 24.8126 29.3525 -4.5399
61.5 30.6241 29.3565 1.2676
61.55 26.8249 29.3606 -2.5357
61.6 30.8481 29.3647 1.4834
61.65 34.5011 29.3688 5.1323
61.7 33.1219 29.3729 3.749
61.75 32.1926 29.3771 2.8155
61.8 20.3333 29.3813 -9.048
61.85 30.1637 29.3856 0.7781
61.9 35.8625 29.3899 6.4726
61.95 28.2334 29.3943 -1.1609
62 25.9097 29.3987 -3.489
62.05 21.2511 29.4032 -8.1521
62.1 33.8374 29.4076 4.4298
62.15 32.8678 29.4122 3.4556
62.2 27.8103 29.4167 -1.6064
62.25 37.7037 29.4214 8.2823
62.3 32.8878 29.4262 3.4616
62.35 33.1621 29.431 3.7311
62.4 24.6608 29.4359 -4.7751
62.45 35.4724 29.4409 6.0315
62.5 27.0785 29.4458 -2.3673
62.55 28.6063 29.4509 -0.8446
62.6 29.1383 29.456 -0.3177
62.65 27.089 29.4614 -2.3724
62.7 30.7648 29.4668 1.298
62.75 26.3654 29.4724 -3.107
62.8 29.554 29.478 0.076
62.85 19.1871 29.4838 -10.2967
62.9 41.1347 29.4896 11.6451
62.95 31.1773 29.4958 1.6815
63 32.7736 29.5019 3.2717
63.05 31.148 29.5086 1.6394
63.1 23.2743 29.5153 -6.241
63.15 29.7061 29.5225 0.1836
63.2 21.389 29.5297 -8.1407
63.25 24.0445 29.5376 -5.4931
63.3 31.3655 29.5455 1.82
63.35 34.4312 29.5546 4.8766
63.4 34.8995 29.5637 5.3358
63.45 28.9771 29.5754 -0.5983
63.5 29.0094 29.5872 -0.5778
63.55 30.3079 29.6082 0.6997
63.6 28.9654 29.6292 -0.6638
63.65 29.6827 29.6672 0.0155
63.7 39.2041 29.7051 9.499
63.75 25.1204 29.7383 -4.6179
63.8 31.6075 29.7715 1.836
63.85 21.3968 29.8062 -8.4094
63.9 26.3006 29.8409 -3.5403
63.95 27.2398 29.8864 -2.6466
64 37.4973 29.9319 7.5654
64.05 18.9878 29.997 -11.0092
64.1 27.356 30.0622 -2.7062
64.15 29.9449 30.1631 -0.2182
64.2 32.8813 30.2639 2.6174
64.25 30.4024 30.4356 -0.0332
64.3 30.4355 30.6073 -0.1718
64.35 41.435 30.9427 10.4923
64.4 31.689 31.2781 0.4109
64.45 31.3191 32.0971 -0.778
64.5 38.5573 32.916 5.6413
64.55 34.1538 34.7894 -0.6356
64.6 57.507 38.5714 18.9356
64.65 56.0474 46.7016 9.3458
64.7 77.1734 63.6631 13.5103
64.75 93.3635 93.7273 -0.3638
64.8 130.998 131.374 -0.376
64.85 140.542 154.352 -13.81
64.9 138.201 140.731 -2.53
64.95 84.544 100.975 -16.431
65 86.4943 65.8209 20.6734
65.05 49.9816 47.2592 2.7224
65.1 45.4336 38.1288 7.3048
65.15 30.6321 35.3454 -4.7133
65.2 33.2327 32.5619 0.6708
65.25 34.8144 31.8129 3.0015
65.3 25.8864 31.0638 -5.1774
65.35 34.5619 30.7798 3.7821
65.4 34.5678 30.4958 4.072
65.45 34.5717 30.3624 4.2093
65.5 42.9745 30.2289 12.7456
65.55 43.2153 30.1575 13.0578
65.6 30.9177 30.086 0.8317
65.65 30.5861 30.0442 0.5419
65.7 30.9474 30.0025 0.9449
65.75 34.0415 29.9769 4.0646
65.8 31.2791 29.9512 1.3279
65.85 26.408 29.9349 -3.5269
65.9 32.5767 29.9186 2.6581
65.95 31.6389 29.9054 1.7335
66 34.0363 29.8922 4.1441
66.05 30.1529 29.8767 0.2762
66.1 23.5213 29.8613 -6.34
66.15 26.6193 29.8541 -3.2348
66.2 33.5589 29.847 3.7119
66.25 37.0723 29.8458 7.2265
66.3 30.1206 29.8447 0.2759
66.35 26.665 29.8452 -3.1802
66.4 35.118 29.8458 5.2722
66.45 29.526 29.8474 -0.3214
66.5 29.6647 29.849 -0.1843
66.55 22.6774 29.8514 -7.174
66.6 32.3018 29.8539 2.4479
66.65 25.5633 29.8568 -4.2935
66.7 26.756 29.8597 -3.1037
66.75 33.5586 29.8629 3.6957
66.8 24.9422 29.866 -4.9238
66.85 23.1294 29.8696 -6.7402
66.9 19.4453 29.8732 -10.4279
66.95 33.3654 29.8771 3.4883
67 22.2437 29.881 -7.6373
67.05 17.5329 29.885 -12.3521
67.1 26.732 29.889 -3.157
67.15 39.3365 29.8931 9.4434
67.2 24.3805 29.8972 -5.5167
67.25 34.5962 29.9017 4.6945
67.3 43.4606 29.9061 13.5545
67.35 31.4021 29.9106 1.4915
67.4 37.7339 29.9151 7.8188
67.45 36.5406 29.9196 6.621
67.5 27.175 29.9241 -2.7491
67.55 27.5913 29.9287 -2.3374
67.6 37.1591 29.9333 7.2258
67.65 33.6231 29.9381 3.685
67.7 33.0331 29.9429 3.0902
67.75 28.4957 29.9477 -1.452
67.8 31.5601 29.9525 1.6076
67.85 27.9058 29.9572 -2.0514
67.9 26.0222 29.9619 -3.9397
67.95 21.0982 29.9669 -8.8687
68 29.2828 29.9718 -0.689
68.05 20.9556 29.9768 -9.0212
68.1 29.4992 29.9818 -0.4826
68.15 26.9162 29.9867 -3.0705
68.2 28.9512 29.9916 -1.0404
68.25 39.1714 29.9965 9.1749
68.3 37.5046 30.0015 7.5031
68.35 25.7077 30.0066 -4.2989
68.4 38.8754 30.0117 8.8637
68.45 32.4066 30.0168 2.3898
68.5 41.3952 30.0218 11.3734
68.55 31.3949 30.0268 1.3681
68.6 34.9145 30.0318 4.8827
68.65 30.6778 30.0369 0.6409
68.7 27.3342 30.042 -2.7078
68.75 34.34 30.0472 4.2928
68.8 31.0936 30.0524 1.0412
68.85 22.7808 30.0574 -7.2766
68.9 23.778 30.0624 -6.2844
68.95 27.1934 30.0675 -2.8741
69 40.1503 30.0726 10.0777
69.05 39.2177 30.0779 9.1398
69.1 29.2149 30.0831 -0.8682
69.15 19.8343 30.0882 -10.2539
69.2 22.3496 30.0934 -7.7438
69.25 29.3671 30.0984 -0.7313
69.3 33.5951 30.1035 3.4916
69.35 34.7911 30.1087 4.6824
69.4 34.4323 30.1139 4.3184
69.45 32.2934 30.1191 2.1743
69.5 22.0362 30.1244 -8.0882
69.55 39.0088 30.1294 8.8794
69.6 34.9458 30.1345 4.8113
69.65 36.4179 30.1397 6.2782
69.7 31.792 30.1448 1.6472
69.75 25.412 30.1501 -4.7381
69.8 26.3511 30.1553 -3.8042
69.85 34.9698 30.1605 4.8093
69.9 34.4616 30.1656 4.296
69.95 33.5315 30.1707 3.3608
70 23.7656 30.1758 -6.4102
70.05 37.1546 30.181 6.9736
70.1 28.4014 30.1862 -1.7848
70.15 27.0862 30.1914 -3.1052
70.2 32.5499 30.1966 2.3533
70.25 30.0771 30.2017 -0.1246
70.3 27.8764 30.2067 -2.3303
70.35 28.3765 30.2119 -1.8354
70.4 25.9228 30.217 -4.2942
70.45 30.1307 30.2223 -0.0916
70.5 26.4985 30.2275 -3.729
70.55 26.522 30.2326 -3.7106
70.6 29.8555 30.2377 -0.3822
70.65 26.4111 30.2427 -3.8316
70.7 34.4922 30.2478 4.2444
70.75 33.4925 30.253 3.2395
70.8 25.8902 30.2582 -4.368
70.85 26.6116 30.2633 -3.6517
70.9 20.3063 30.2684 -9.9621
70.95 26.8388 30.2734 -3.4346
71 26.5893 30.2784 -3.6891
71.05 30.1253 30.2835 -0.1582
71.1 36.6164 30.2887 6.3277
71.15 38.614 30.2938 8.3202
71.2 24.3532 30.299 -5.9458
71.25 26.4842 30.3039 -3.8197
71.3 29.491 30.3089 -0.8179
71.35 24.5377 30.3139 -5.7762
71.4 25.2413 30.3189 -5.0776
71.45 23.6242 30.3241 -6.6999
71.5 25.9276 30.3292 -4.4016
71.55 29.55 30.3342 -0.7842
71.6 31.8424 30.3392 1.5032
71.65 36.8671 30.3441 6.523
71.7 30.4799 30.349 0.1309
71.75 34.8286 30.3541 4.4745
71.8 33.8504 30.3591 3.4913
71.85 30.2497 30.3641 -0.1144
71.9 18.3247 30.3691 -12.0444
71.95 25.1451 30.374 -5.2289
72 24.5693 30.3788 -5.8095
72.05 33.7637 30.3838 3.3799
72.1 34.9124 30.3887 4.5237
72.15 27.5239 30.3938 -2.8699
72.2 32.8609 30.3988 2.4621
72.25 20.096 30.4036 -10.3076
72.3 28.0578 30.4083 -2.3505
72.35 22.134 30.4132 -8.2792
72.4 30.7525 30.418 0.3345
72.45 30.5466 30.423 0.1236
72.5 29.9378 30.428 -0.4902
72.55 28.6909 30.4328 -1.7419
72.6 28.0295 30.4375 -2.408
72.65 31.8984 30.4423 1.4561
72.7 35.1522 30.447 4.7052
72.75 33.927 30.4519 3.4751
72.8 35.2966 30.4568 4.8398
72.85 32.795 30.4615 2.3335
72.9 37.1849 30.4663 6.7186
72.95 28.2584 30.471 -2.2126
73 32.1942 30.4756 1.7186
73.05 31.6882 30.4803 1.2079
73.1 26.6807 30.4851 -3.8044
73.15 34.0966 30.4899 3.6067
73.2 32.6408 30.4947 2.1461
73.25 37.3697 30.4992 6.8705
73.3 28.5436 30.5038 -1.9602
73.35 31.5039 30.5084 0.9955
73.4 25.3075 30.513 -5.2055
73.45 29.7824 30.5178 -0.7354
73.5 37.4717 30.5225 6.9492
73.55 32.8707 30.527 2.3437
73.6 25.8975 30.5315 -4.634
73.65 32.2801 30.536 1.7441
73.7 30.759 30.5405 0.2185
73.75 32.9912 30.5451 2.4461
73.8 39.1482 30.5498 8.5984
73.85 31.476 30.5543 0.9217
73.9 27.9186 30.5587 -2.6401
73.95 27.5089 30.5631 -3.0542
74 22.17 30.5674 -8.3974
74.05 25.481 30.572 -5.091
74.1 23.8764 30.5765 -6.7001
74.15 26.0438 30.581 -4.5372
74.2 31.864 30.5854 1.2786
74.25 29.7933 30.5897 -0.7964
74.3 30.1179 30.5939 -0.476
74.35 30.5336 30.5983 -0.0647
74.4 27.8262 30.6027 -2.7765
74.45 24.9988 30.6072 -5.6084
74.5 34.8327 30.6116 4.2211
74.55 36.6574 30.6159 6.0415
74.6 24.4083 30.6201 -6.2118
74.65 42.3221 30.6246 11.6975
74.7 31.8629 30.6291 1.2338
74.75 26.5337 30.6338 -4.1001
74.8 17.6964 30.6384 -12.942
74.85 33.1714 30.6429 2.5285
74.9 29.4827 30.6474 -1.1647
74.95 33.0591 30.652 2.4071
75 25.7492 30.6567 -4.9075
75.05 23.2727 30.6615 -7.3888
75.1 39.5966 30.6664 8.9302
75.15 28.7815 30.6711 -1.8896
75.2 38.6127 30.6759 7.9368
75.25 27.6489 30.6806 -3.0317
75.3 21.2795 30.6854 -9.4059
75.35 29.3067 30.6905 -1.3838
75.4 30.4609 30.6955 -0.2346
75.45 25.3159 30.7005 -5.3846
75.5 36.3741 30.7055 5.6686
75.55 36.9649 30.7104 6.2545
75.6 29.0073 30.7153 -1.708
75.65 23.0896 30.7205 -7.6309
75.7 24.1046 30.7257 -6.6211
75.75 24.9946 30.7309 -5.7363
75.8 33.8562 30.7361 3.1201
75.85 34.5579 30.7412 3.8167
75.9 38.3091 30.7462 7.5629
75.95 29.339 30.7516 -1.4126
76 29.7583 30.7569 -0.9986
76.05 26.4374 30.7623 -4.3249
76.1 29.8073 30.7677 -0.9604
76.15 35.0937 30.7729 4.3208
76.2 33.1754 30.7781 2.3973
76.25 23.6934 30.7836 -7.0902
76.3 27.7044 30.7891 -3.0847
76.35 35.1919 30.7947 4.3972
76.4 31.2959 30.8003 0.4956
76.45 25.7723 30.8057 -5.0334
76.5 24.4918 30.811 -6.3192
76.55 28.2011 30.8167 -2.6156
76.6 33.6364 30.8223 2.8141
76.65 35.0458 30.828 4.2178
76.7 27.5208 30.8338 -3.313
76.75 25.8209 30.8393 -5.0184
76.8 33.9092 30.8449 3.0643
76.85 22.8391 30.8506 -8.0115
76.9 22.2033 30.8563 -8.653
76.95 23.7185 30.8622 -7.1437
77 23.6096 30.8682 -7.2586
77.05 21.1062 30.8739 -9.7677
77.1 27.5137 30.8796 -3.3659
77.15 29.1277 30.8854 -1.7577
77.2 33.6644 30.8912 2.7732
77.25 24.4314 30.8973 -6.4659
77.3 25.8579 30.9034 -5.0455
77.35 29.1229 30.9093 -1.7864
77.4 26.1967 30.9151 -4.7184
77.45 29.6874 30.921 -1.2336
77.5 33.5148 30.9269 2.5879
77.55 28.4131 30.9332 -2.5201
77.6 23.0613 30.9395 -7.8782
77.65 16.7403 30.9455 -14.2052
77.7 26.6324 30.9515 -4.3191
77.75 39.1682 30.9575 8.2107
77.8 27.55 30.9635 -3.4135
77.85 29.5726 30.9699 -1.3973
77.9 29.2624 30.9764 -1.714
77.95 28.284 30.9825 -2.6985
78 29.6901 30.9887 -1.2986
78.05 30.7493 30.9948 -0.2455
78.1 32.434 31.001 1.433
78.15 25.7791 31.0076 -5.2285
78.2 28.467 31.0142 -2.5472
78.25 24.0621 31.0205 -6.9584
78.3 24.5743 31.0268 -6.4525
78.35 30.9411 31.0331 -0.092
78.4 28.4336 31.0393 -2.6057
78.45 24.7524 31.0461 -6.2937
78.5 31.5448 31.0529 0.4919
78.55 31.145 31.0594 0.0856
78.6 28.9138 31.0659 -2.1521
78.65 28.9656 31.0723 -2.1067
78.7 31.5003 31.0787 0.4216
78.75 23.2805 31.0857 -7.8052
78.8 33.993 31.0927 2.9003
78.85 34.2957 31.0994 3.1963
78.9 38.6198 31.1061 7.5137
78.95 23.0598 31.1127 -8.0529
79 32.5388 31.1194 1.4194
79.05 29.9064 31.1266 -1.2202
79.1 19.7132 31.1339 -11.4207
79.15 25.6103 31.1408 -5.5305
79.2 24.848 31.1478 -6.2998
79.25 28.6356 31.1547 -2.5191
79.3 30.734 31.1616 -0.4276
79.35 32.7675 31.1692 1.5983
79.4 37.1285 31.1768 5.9517
79.45 29.537 31.1846 -1.6476
79.5 25.0901 31.1923 -6.1022
79.55 39.2385 31.1996 8.0389
79.6 31.0931 31.2069 -0.1138
79.65 28.4564 31.215 -2.7586
79.7 29.9053 31.2231 -1.3178
79.75 32.2078 31.231 0.9768
79.8 23.7629 31.239 -7.4761
79.85 31.4927 31.2469 0.2458
79.9 25.6387 31.2548 -5.6161
79.95 40.5422 31.2638 9.2784
80 26.8413 31.2728 -4.4315
80.05 22.7455 31.2816 -8.5361
80.1 30.4129 31.2905 -0.8776
80.15 24.9388 31.2996 -6.3608
80.2 24.3861 31.3087 -6.9226
80.25 22.9927 31.3192 -8.3265
80.3 30.7887 31.3297 -0.541
80.35 26.4898 31.3403 -4.8505
80.4 38.7109 31.3509 7.36
80.45 21.4535 31.3623 -9.9088
80.5 27.0335 31.3737 -4.3402
80.55 39.3368 31.3873 7.9495
80.6 41.1676 31.401 9.7666
80.65 29.0845 31.4157 -2.3312
80.7 24.3848 31.4305 -7.0457
80.75 25.1725 31.4488 -6.2763
80.8 23.3962 31.4672 -8.071
80.85 36.6726 31.5001 5.1725
80.9 32.4584 31.5331 0.9253
80.95 34.427 31.6127 2.8143
81 28.8769 31.6924 -2.8155
81.05 27.0823 31.7546 -4.6723
81.1 26.4852 31.8168 -5.3316
81.15 25.5895 31.8798 -6.2903
81.2 31.7581 31.9428 -0.1847
81.25 24.8356 32.0249 -7.1893
81.3 31.0266 32.107 -1.0804
81.35 27.464 32.2264 -4.7624
81.4 38.2997 32.3459 5.9538
81.45 35.3726 32.5316 2.841
81.5 21.0823 32.7173 -11.635
81.55 28.4724 33.0295 -4.5571
81.6 36.0237 33.3417 2.682
81.65 30.0884 33.9488 -3.8604
81.7 30.1811 34.5559 -4.3748
81.75 35.0079 36.0134 -1.0055
81.8 41.5676 37.4709 4.0967
81.85 31.5584 42.6966 -11.1382
81.9 59.1588 47.9223 11.2365
81.95 80.9349 65.0895 15.8454
82 125.753 106.689 19.064
82.05 201.337 187.678 13.659
82.1 272.922 283.328 -10.406
82.15 290.01 308.756 -18.746
82.2 228.493 226.752 1.741
82.25 115.901 125.833 -9.932
82.3 81.8352 70.4884 11.3468
82.35 56.6358 49.7277 6.9081
82.4 42.0618 40.8122 1.2496
82.45 37.106 38.0649 -0.9589
82.5 32.2949 35.3176 -3.0227
82.55 36.3754 34.4522 1.9232
82.6 42.1452 33.5869 8.5583
82.65 28.3212 33.2113 -4.8901
82.7 34.9018 32.8357 2.0661
82.75 32.8197 32.6438 0.1759
82.8 22.8048 32.4518 -9.647
82.85 33.462 32.34 1.122
82.9 23.3978 32.2282 -8.8304
82.95 33.4151 32.1588 1.2563
83 27.9084 32.0895 -4.1811
83.05 23.8893 32.0455 -8.1562
83.1 27.1283 32.0015 -4.8732
83.15 37.0245 31.9693 5.0552
83.2 31.3796 31.937 -0.5574
83.25 38.3221 31.9034 6.4187
83.3 27.8523 31.8698 -4.0175
83.35 21.5503 31.8357 -10.2854
83.4 22.7304 31.8016 -9.0712
83.45 36.6339 31.7902 4.8437
83.5 30.6654 31.7788 -1.1134
83.55 27.616 31.7745 -4.1585
83.6 24.9472 31.7702 -6.823
83.65 29.1409 31.7682 -2.6273
83.7 26.4912 31.7662 -5.275
83.75 31.2018 31.7649 -0.5631
83.8 20.3905 31.7637 -11.3732
83.85 25.9495 31.7645 -5.815
83.9 35.5264 31.7653 3.7611
83.95 26.0225 31.7665 -5.744
84 31.9261 31.7677 0.1584
84.05 28.9783 31.7691 -2.7908
84.1 28.1164 31.7706 -3.6542
84.15 37.4911 31.7734 5.7177
84.2 27.9047 31.7762 -3.8715
84.25 35.8338 31.7787 4.0551
84.3 27.528 31.7811 -4.2531
84.35 35.6899 31.784 3.9059
84.4 26.0067 31.7868 -5.7801
84.45 26.8285 31.7905 -4.962
84.5 36.6573 31.7941 4.8632
84.55 31.5955 31.7972 -0.2017
84.6 36.4477 31.8003 4.6474
84.65 18.9257 31.8039 -12.8782
84.7 39.1499 31.8076 7.3423
84.75 22.9137 31.8116 -8.8979
84.8 39.3489 31.8155 7.5334
84.85 33.0331 31.8189 1.2142
84.9 25.8977 31.8223 -5.9246
84.95 18.9295 31.8265 -12.897
85 29.2277 31.8306 -2.6029
85.05 27.9025 31.8345 -3.932
85.1 25.8667 31.8385 -5.9718
85.15 33.0877 31.8422 1.2455
85.2 29.446 31.8458 -2.3998
85.25 29.6791 31.8501 -2.171
85.3 21.3994 31.8544 -10.455
85.35 26.6558 31.8583 -5.2025
85.4 30.8983 31.8621 -0.9638
85.45 21.803 31.866 -10.063
85.5 27.2952 31.8698 -4.5746
85.55 31.3216 31.8741 -0.5525
85.6 37.3377 31.8784 5.4593
85.65 29.6665 31.8821 -2.2156
85.7 31.5125 31.8858 -0.3733
85.75 23.1331 31.8898 -8.7567
85.8 35.1836 31.8938 3.2898
85.85 32.0507 31.8979 0.1528
85.9 33.9229 31.902 2.0209
85.95 27.6168 31.9056 -4.2888
86 30.1984 31.9092 -1.7108
86.05 38.6335 31.9132 6.7203
86.1 29.0438 31.9173 -2.8735
86.15 38.3576 31.9211 6.4365
86.2 27.3519 31.9249 -4.573
86.25 21.3121 31.9284 -10.6163
86.3 27.2174 31.932 -4.7146
86.35 28.9234 31.936 -3.0126
86.4 22.895 31.9399 -9.0449
86.45 28.8922 31.9434 -3.0512
86.5 22.88 31.9469 -9.0669
86.55 34.8545 31.9505 2.904
86.6 39.2595 31.9541 7.3054
86.65 23.9044 31.9578 -8.0534
86.7 29.6679 31.9615 -2.2936
86.75 41.6438 31.9648 9.679
86.8 33.3404 31.968 1.3724
86.85 27.8867 31.9716 -4.0849
86.9 32.1615 31.9751 0.1864
86.95 32.8499 31.9785 0.8714
87 22.8166 31.9819 -9.1653
87.05 28.6601 31.985 -3.3249
87.1 24.6814 31.9881 -7.3067
87.15 26.6025 31.9915 -5.389
87.2 32.6764 31.9949 0.6815
87.25 29.9711 31.998 -2.0269
87.3 30.0376 32.001 -1.9634
87.35 32.831 32.004 0.827
87.4 30.1787 32.007 -1.8283
87.45 32.5293 32.0102 0.5191
87.5 28.9088 32.0133 -3.1045
87.55 25.066 32.0161 -6.9501
87.6 28.1342 32.0188 -3.8846
87.65 34.3306 32.0217 2.3089
87.7 32.6755 32.0247 0.6508
87.75 28.2063 32.0274 -3.8211
87.8 28.2439 32.0302 -3.7863
87.85 33.4079 32.0327 1.3752
87.9 25.1257 32.0352 -6.9095
87.95 33.7044 32.038 1.6664
88 38.4745 32.0408 6.4337
88.05 28.8775 32.0431 -3.1656
88.1 32.5916 32.0455 0.5461
88.15 23.9138 32.0479 -8.1341
88.2 29.2334 32.0503 -2.8169
88.25 30.7421 32.0528 -1.3107
88.3 16.9411 32.0552 -15.1141
88.35 39.8475 32.0572 7.7903
88.4 29.0364 32.0593 -3.0229
88.45 32.2394 32.0615 0.1779
88.5 35.0021 32.0638 2.9383
88.55 21.6807 32.0658 -10.3851
88.6 32.9028 32.0679 0.8349
88.65 21.6855 32.0697 -10.3842
88.7 35.5216 32.0715 3.4501
88.75 27.2261 32.0735 -4.8474
88.8 28.9834 32.0756 -3.0922
88.85 40.9778 32.0772 8.9006
88.9 28.2339 32.0788 -3.8449
88.95 27.1072 32.0805 -4.9733
89 29.1042 32.0822 -2.978
89.05 27.4345 32.0838 -4.6493
89.1 30.3772 32.0854 -1.7082
89.15 30.9529 32.0867 -1.1338
89.2 26.1232 32.088 -5.9648
89.25 29.8692 32.0895 -2.2203
89.3 31.7141 32.091 -0.3769
89.35 32.3612 32.0921 0.2691
89.4 39.5375 32.0933 7.4442
89.45 29.6782 32.0944 -2.4162
89.5 25.0268 32.0955 -7.0687
89.55 26.226 32.0966 -5.8706
89.6 38.163 32.0978 6.0652
89.65 34.2386 32.0985 2.1401
89.7 30.3437 32.0993 -1.7556
89.75 30.2211 32.1002 -1.8791
89.8 21.6144 32.1011 -10.4867
89.85 26.0658 32.1018 -6.036
89.9 29.6976 32.1025 -2.4049
89.95 31.9983 32.103 -0.1047
90 25.1133 32.1035 -6.9902
90.05 39.3035 32.1041 7.1994
90.1 33.1481 32.1047 1.0434
90.15 33.348 32.1049 1.2431
90.2 18.1046 32.1051 -14.0005
90.25 23.0433 32.1054 -9.0621
90.3 26.3932 32.1057 -5.7125
90.35 30.5716 32.1059 -1.5343
90.4 25.2718 32.106 -6.8342
90.45 34.2709 32.1059 2.165
90.5 24.3 32.1058 -7.8058
90.55 32.6726 32.1058 0.5668
90.6 31.0285 32.1058 -1.0773
90.65 30.6299 32.1054 -1.4755
90.7 28.2824 32.105 -3.8226
90.75 41.6055 32.1046 9.5009
90.8 33.2273 32.1042 1.1231
90.85 26.5924 32.1036 -5.5112
90.9 42.1154 32.1031 10.0123
90.95 27.185 32.1023 -4.9173
91 19.8277 32.1014 -12.2737
91.05 27.5497 32.1007 -4.551
91.1 32.4 32.0999 0.3001
91.15 32.2343 32.0988 0.1355
91.2 35.6505 32.0977 3.5528
91.25 39.8455 32.0966 7.7489
91.3 25.3055 32.0955 -6.79
91.35 25.8826 32.0943 -6.2117
91.4 35.4364 32.0931 3.3433
91.45 30.8476 32.0915 -1.2439
91.5 30.2833 32.09 -1.8067
91.55 20.6298 32.0885 -11.4587
91.6 29.1618 32.0871 -2.9253
91.65 29.4809 32.0854 -2.6045
91.7 31.2338 32.0836 -0.8498
91.75 28.3833 32.0818 -3.6985
91.8 27.0281 32.08 -5.0519
91.85 20.3496 32.0782 -11.7286
91.9 27.543 32.0763 -4.5333
91.95 27.2605 32.0741 -4.8136
92 30.6869 32.0719 -1.385
92.05 35.6652 32.0699 3.5953
92.1 29.0379 32.0679 -3.03
92.15 23.6908 32.0655 -8.3747
92.2 28.3805 32.0631 -3.6826
92.25 29.036 32.0607 -3.0247
92.3 35.5916 32.0583 3.5333
92.35 28.752 32.0558 -3.3038
92.4 28.6815 32.0534 -3.3719
92.45 27.9669 32.0506 -4.0837
92.5 36.0393 32.0478 3.9915
92.55 24.8486 32.0452 -7.1966
92.6 32.0705 32.0425 0.028
92.65 23.603 32.0396 -8.4366
92.7 28.9185 32.0366 -3.1181
92.75 28.4998 32.0337 -3.5339
92.8 23.3513 32.0307 -8.6794
92.85 29.5013 32.0277 -2.5264
92.9 30.1001 32.0246 -1.9245
92.95 35.0862 32.0213 3.0649
93 27.1896 32.018 -4.8284
93.05 35.2035 32.0149 3.1886
93.1 30.6276 32.0117 -1.3841
93.15 36.7706 32.0082 4.7624
93.2 28.5533 32.0047 -3.4514
93.25 28.0802 32.0012 -3.921
93.3 35.1962 31.9978 3.1984
93.35 30.5692 31.9942 -1.425
93.4 31.7742 31.9907 -0.2165
93.45 31.4674 31.9869 -0.5195
93.5 29.2062 31.9831 -2.7769
93.55 24.8247 31.9798 -7.1551
93.6 26.4289 31.9765 -5.5476
93.65 23.3329 31.9725 -8.6396
93.7 26.1126 31.9685 -5.8559
93.75 21.7254 31.9646 -10.2392
93.8 26.4467 31.9608 -5.5141
93.85 29.1616 31.9567 -2.7951
93.9 18.6514 31.9527 -13.3013
93.95 22.1553 31.9487 -9.7934
94 22.2347 31.9443 -9.7096
94.05 31.9536 31.9402 0.0134
94.1 33.7966 31.9362 1.8604
94.15 32.6424 31.9317 0.7107
94.2 10.7776 31.9273 -21.1497
94.25 23.3241 31.9231 -8.599
94.3 29.0883 31.9189 -2.8306
94.35 24.5275 31.9144 -7.3869
94.4 31.7447 31.9099 -0.1652
94.45 30.2444 31.9054 -1.661
94.5 20.8884 31.9009 -11.0125
94.55 31.2994 31.8964 -0.597
94.6 27.9483 31.892 -3.9437
94.65 26.7439 31.8872 -5.1433
94.7 20.1682 31.8824 -11.7142
94.75 36.5514 31.8779 4.6735
94.8 28.615 31.8734 -3.2584
94.85 34.912 31.8686 3.0434
94.9 35.65 31.8637 3.7863
94.95 31.3487 31.859 -0.5103
95 33.084 31.8543 1.2297
95.05 26.1786 31.8495 -5.6709
95.1 26.9811 31.8447 -4.8636
95.15 37.5457 31.8397 5.706
95.2 15.2935 31.8348 -16.5413
95.25 27.0564 31.83 -4.7736
95.3 22.3637 31.8253 -9.4616
95.35 27.3966 31.8202 -4.4236
95.4 26.7912 31.8151 -5.0239
95.45 35.4195 31.8103 3.6092
95.5 31.049 31.8055 -0.7565
95.55 31.3759 31.8005 -0.4246
95.6 42.2209 31.7954 10.4255
95.65 26.9932 31.7905 -4.7973
95.7 33.8053 31.7855 2.0198
95.75 31.1653 31.7806 -0.6153
95.8 34.0004 31.7758 2.2246
95.85 27.2408 31.7707 -4.5299
95.9 27.1328 31.7656 -4.6328
95.95 22.8034 31.7609 -8.9575
96 29.9986 31.7562 -1.7576
96.05 27.5256 31.7511 -4.2255
96.1 36.0953 31.7461 4.3492
96.15 27.8521 31.7415 -3.8894
96.2 40.111 31.7369 8.3741
96.25 36.6665 31.7321 4.9344
96.3 26.6931 31.7273 -5.0342
96.35 33.6237 31.7228 1.9009
96.4 25.7229 31.7182 -5.9953
96.45 33.9574 31.7139 2.2435
96.5 39.4341 31.7097 7.7244
96.55 23.492 31.7053 -8.2133
96.6 28.0522 31.7009 -3.6487
96.65 23.5119 31.6972 -8.1853
96.7 24.5518 31.6936 -7.1418
96.75 35.0106 31.6898 3.3208
96.8 25.5393 31.686 -6.1467
96.85 26.2309 31.6831 -5.4522
96.9 30.1479 31.6802 -1.5323
96.95 24.8242 31.6777 -6.8535
97 27.28 31.6751 -4.3951
97.05 36.8215 31.6734 5.1481
97.1 33.479 31.6718 1.8072
97.15 29.3382 31.6715 -2.3333
97.2 23.9933 31.6713 -7.678
97.25 23.8954 31.6726 -7.7772
97.3 20.8169 31.6739 -10.857
97.35 28.3133 31.6809 -3.3676
97.4 30.7852 31.6878 -0.9026
97.45 33.71 31.7082 2.0018
97.5 40.3987 31.7287 8.67
97.55 29.2908 31.7555 -2.4647
97.6 30.0829 31.7823 -1.6994
97.65 33.8858 31.8082 2.0776
97.7 31.9837 31.834 0.1497
97.75 31.3083 31.8711 -0.5628
97.8 33.029 31.9081 1.1209
97.85 28.0556 31.9654 -3.9098
97.9 26.6641 32.0228 -5.3587
97.95 31.5085 32.1168 -0.6083
98 26.0596 32.2108 -6.1512
98.05 33.0411 32.3784 0.6627
98.1 31.3709 32.546 -1.1751
98.15 26.9546 32.8774 -5.9228
98.2 21.0466 33.2088 -12.1622
98.25 31.1284 34.003 -2.8746
98.3 39.8646 34.7972 5.0674
98.35 27.6265 37.3254 -9.6989
98.4 42.5923 39.8536 2.7387
98.45 63.1325 47.1438 15.9887
98.5 53.5052 61.126 -7.6208
98.55 91.1127 88.0869 3.0258
98.6 125.566 126.402 -0.836
98.65 162.348 158.084 4.264
98.7 167.645 157.986 9.659
98.75 119.999 125.832 -5.833
98.8 80.1332 87.7213 -7.5881
98.85 62.4565 61.6639 0.7926
98.9 57.2333 47.8688 9.3645
98.95 42.4041 41.0526 1.3515
99 36.4898 37.5499 -1.0601
99.05 35.5474 35.9902 -0.4428
99.1 28.6489 34.4306 -5.7817
99.15 31.8868 33.7975 -1.9107
99.2 28.4925 33.1644 -4.6719
99.25 28.4476 32.8476 -4.4
99.3 26.6716 32.5309 -5.8593
99.35 31.8549 32.3496 -0.4947
99.4 25.2152 32.1683 -6.9531
99.45 21.7185 32.0526 -10.3341
99.5 29.1969 31.9369 -2.74
99.55 35.8804 31.8585 4.0219
99.6 32.5827 31.7801 0.8026
99.65 35.79 31.7205 4.0695
99.7 41.6088 31.6609 9.9479
99.75 23.8862 31.6064 -7.7202
99.8 31.8469 31.5519 0.295
99.85 26.1777 31.4873 -5.3096
99.9 25.569 31.4227 -5.8537
99.95 40.8276 31.3857 9.4419
100 33.3382 31.3486 1.9896
100.05 27.3328 31.3293 -3.9965
100.1 33.3231 31.3099 2.0132
100.15 37.2203 31.2957 5.9246
100.2 30.9277 31.2814 -0.3537
100.25 36.6431 31.2694 5.3737
100.3 33.0989 31.2575 1.8414
100.35 25.4304 31.2464 -5.816
100.4 33.3918 31.2353 2.1565
100.45 27.5131 31.2256 -3.7125
100.5 36.989 31.2159 5.7731
100.55 27.988 31.2063 -3.2183
100.6 28.5961 31.1967 -2.6006
100.65 27.8422 31.1882 -3.346
100.7 26.5764 31.1797 -4.6033
100.75 23.5716 31.171 -7.5994
100.8 31.1095 31.1623 -0.0528
100.85 35.8481 31.1545 4.6936
100.9 26.2116 31.1467 -4.9351
100.95 29.2889 31.1388 -1.8499
101 36.4682 31.1309 5.3373
101.05 24.7089 31.1234 -6.4145
101.1 32.3988 31.116 1.2828
101.15 30.9538 31.1086 -0.1548
101.2 28.4113 31.1013 -2.69
101.25 22.5347 31.0941 -8.5594
101.3 35.3141 31.0869 4.2272
101.35 35.4485 31.08 4.3685
101.4 29.911 31.0732 -1.1622
101.45 24.1322 31.0662 -6.934
101.5 37.9833 31.0591 6.9242
101.55 30.44 31.0527 -0.6127
101.6 35.3052 31.0462 4.259
101.65 24.6459 31.0393 -6.3934
101.7 29.9688 31.0325 -1.0637
101.75 36.3174 31.0263 5.2911
101.8 20.5382 31.02 -10.4818
101.85 30.3793 31.0134 -0.6341
101.9 28.5719 31.0069 -2.435
101.95 34.0666 31 3.0666
102 28.6424 30.9931 -2.3507
102.05 28.3518 30.9869 -2.6351
102.1 32.919 30.9806 1.9384
102.15 28.0351 30.9745 -2.9394
102.2 25.2501 30.9684 -5.7183
102.25 26.5138 30.9625 -4.4487
102.3 28.8091 30.9566 -2.1475
102.35 30.2142 30.9506 -0.7364
102.4 28.4446 30.9446 -2.5
102.45 29.3133 30.9389 -1.6256
102.5 30.105 30.9332 -0.8282
102.55 23.5209 30.9273 -7.4064
102.6 31.2134 30.9214 0.292
102.65 28.6144 30.916 -2.3016
102.7 32.9143 30.9105 2.0038
102.75 28.511 30.9048 -2.3938
102.8 24.3569 30.899 -6.5421
102.85 24.2163 30.8937 -6.6774
102.9 27.4712 30.8884 -3.4172
102.95 35.0067 30.8829 4.1238
103 24.133 30.8773 -6.7443
103.05 26.7605 30.8721 -4.1116
103.1 34.7819 30.8669 3.915
103.15 36.999 30.8616 6.1374
103.2 29.6338 30.8564 -1.2226
103.25 28.6998 30.8513 -2.1515
103.3 31.6295 30.8462 0.7833
103.35 31.0552 30.8411 0.2141
103.4 28.6465 30.8361 -2.1896
103.45 34.5375 30.8311 3.7064
103.5 36.5434 30.8261 5.7173
103.55 29.0084 30.8213 -1.8129
103.6 26.4439 30.8165 -4.3726
103.65 33.9435 30.8116 3.1319
103.7 27.0234 30.8067 -3.7833
103.75 32.0914 30.8021 1.2893
103.8 31.6822 30.7975 0.8847
103.85 20.1524 30.7928 -10.6404
103.9 39.2962 30.7881 8.5081
103.95 27.6145 30.7837 -3.1692
104 22.4968 30.7794 -8.2826
104.05 25.7698 30.7748 -5.005
104.1 30.484 30.7703 -0.2863
104.15 23.0918 30.7661 -7.6743
104.2 25.1521 30.7619 -5.6098
104.25 38.47 30.7576 7.7124
104.3 32.7419 30.7532 1.9887
104.35 27.1274 30.7492 -3.6218
104.4 27.0946 30.7452 -3.6506
104.45 29.336 30.7411 -1.4051
104.5 32.2853 30.737 1.5483
104.55 27.3731 30.7331 -3.36
104.6 35.0044 30.7293 4.2751
104.65 33.6283 30.7254 2.9029
104.7 26.8915 30.7216 -3.8301
104.75 22.3162 30.7179 -8.4017
104.8 33.0134 30.7142 2.2992
104.85 34.4845 30.7106 3.7739
104.9 33.4021 30.707 2.6951
104.95 31.7736 30.7035 1.0701
105 38.5513 30.7 7.8513
105.05 38.8448 30.6966 8.1482
105.1 31.3453 30.6933 0.652
105.15 46.901 30.69 16.211
105.2 30.2521 30.6866 -0.4345
105.25 27.0555 30.6835 -3.628
105.3 27.2014 30.6804 -3.479
105.35 37.2661 30.6773 6.5888
105.4 20.6294 30.6742 -10.0448
105.45 30.4425 30.6714 -0.2289
105.5 35.8572 30.6685 5.1887
105.55 33.897 30.6656 3.2314
105.6 38.6287 30.6627 7.966
105.65 28.5333 30.6601 -2.1268
105.7 36.0289 30.6575 5.3714
105.75 32.9534 30.6548 2.2986
105.8 30.4054 30.6522 -0.2468
105.85 26.0733 30.6498 -4.5765
105.9 32.8631 30.6475 2.2156
105.95 29.5234 30.645 -1.1216
106 31.7938 30.6426 1.1512
106.05 30.7298 30.6405 0.0893
106.1 32.7249 30.6384 2.0865
106.15 25.8185 30.6363 -4.8178
106.2 26.3408 30.6341 -4.2933
106.25 29.7778 30.6322 -0.8544
106.3 29.9377 30.6304 -0.6927
106.35 26.8295 30.6285 -3.799
106.4 29.6797 30.6266 -0.9469
106.45 33.1362 30.625 2.5112
106.5 35.7893 30.6234 5.1659
106.55 28.4438 30.6218 -2.178
106.6 28.8709 30.6202 -1.7493
106.65 26.5158 30.6188 -4.103
106.7 26.4388 30.6175 -4.1787
106.75 29.8706 30.6162 -0.7456
106.8 33.8466 30.6149 3.2317
106.85 24.4944 30.6138 -6.1194
106.9 21.9048 30.6127 -8.7079
106.95 26.5506 30.6117 -4.0611
107 24.9629 30.6107 -5.6478
107.05 33.6854 30.6098 3.0756
107.1 21.8956 30.609 -8.7134
107.15 25.8335 30.6083 -4.7748
107.2 36.6344 30.6076 6.0268
107.25 32.1564 30.6071 1.5493
107.3 28.3505 30.6065 -2.256
107.35 40.6491 30.6061 10.043
107.4 29.0669 30.6057 -1.5388
107.45 19.022 30.6055 -11.5835
107.5 37.1313 30.6052 6.5261
107.55 24.0285 30.6051 -6.5766
107.6 23.9493 30.605 -6.6557
107.65 18.8693 30.6051 -11.7358
107.7 30.3858 30.6051 -0.2193
107.75 27.0123 30.6053 -3.593
107.8 35.0013 30.6054 4.3959
107.85 44.9055 30.6056 14.2999
107.9 24.2828 30.6058 -6.323
107.95 40.438 30.6062 9.8318
108 32.9745 30.6065 2.368
108.05 28.5184 30.6069 -2.0885
108.1 42.2013 30.6073 11.594
108.15 40.3378 30.6078 9.73
108.2 25.4342 30.6084 -5.1742
108.25 37.1387 30.6089 6.5298
108.3 24.7094 30.6095 -5.9001
108.35 21.3942 30.6102 -9.216
108.4 26.0256 30.611 -4.5854
108.45 28.6867 30.6117 -1.925
108.5 25.7006 30.6124 -4.9118
108.55 21.3213 30.6134 -9.2921
108.6 29.1942 30.6143 -1.4201
108.65 35.6426 30.6152 5.0274
108.7 34.5323 30.6161 3.9162
108.75 34.6467 30.6172 4.0295
108.8 28.4721 30.6183 -2.1462
108.85 32.6278 30.6194 2.0084
108.9 34.7581 30.6205 4.1376
108.95 35.2337 30.6217 4.612
109 32.1858 30.623 1.5628
109.05 29.3582 30.6243 -1.2661
109.1 35.5235 30.6255 4.898
109.15 27.1686 30.627 -3.4584
109.2 23.6572 30.6284 -6.9712
109.25 27.6425 30.6299 -2.9874
109.3 28.3587 30.6313 -2.2726
109.35 21.7229 30.6329 -8.91
109.4 20.7581 30.6345 -9.8764
109.45 23.2442 30.6362 -7.392
109.5 24.1788 30.6378 -6.459
109.55 30.5744 30.6396 -0.0652
109.6 41.6796 30.6413 11.0383
109.65 31.1915 30.6431 0.5484
109.7 38.2635 30.6449 7.6186
109.75 34.1513 30.6469 3.5044
109.8 28.7562 30.6488 -1.8926
109.85 31.878 30.6508 1.2272
109.9 21.5876 30.6527 -9.0651
109.95 32.6157 30.6549 1.9608
110 20.734 30.657 -9.923
110.05 28.0107 30.6591 -2.6484
110.1 30.2035 30.6613 -0.4578
110.15 29.5798 30.6635 -1.0837
110.2 35.3038 30.6658 4.638
110.25 32.2178 30.6681 1.5497
110.3 29.1102 30.6704 -1.5602
110.35 28.6974 30.6729 -1.9755
110.4 28.6501 30.6753 -2.0252
110.45 31.0126 30.6778 0.3348
110.5 27.7622 30.6803 -2.9181
110.55 27.5605 30.6829 -3.1224
110.6 26.1067 30.6855 -4.5788
110.65 26.2638 30.6882 -4.4244
110.7 31.9206 30.6908 1.2298
110.75 23.8921 30.6936 -6.8015
110.8 20.317 30.6964 -10.3794
110.85 28.5491 30.6992 -2.1501
110.9 30.6601 30.702 -0.0419
110.95 30.3562 30.705 -0.3488
111 39.755 30.7079 9.0471
111.05 32.5764 30.7109 1.8655
111.1 36.5822 30.7139 5.8683
111.15 32.7535 30.717 2.0365
111.2 31.1302 30.7201 0.4101
111.25 30.5688 30.7233 -0.1545
111.3 28.2545 30.7265 -2.472
111.35 27.5743 30.7297 -3.1554
111.4 30.2108 30.733 -0.5222
111.45 25.0764 30.7364 -5.66
111.5 20.4026 30.7398 -10.3372
111.55 32.1485 30.7432 1.4053
111.6 28.6173 30.7466 -2.1293
111.65 24.1248 30.7502 -6.6254
111.7 26.343 30.7537 -4.4107
111.75 34.0476 30.7574 3.2902
111.8 38.8817 30.761 8.1207
111.85 29.5332 30.7647 -1.2315
111.9 26.7756 30.7685 -3.9929
111.95 17.8362 30.7723 -12.9361
112 28.0956 30.7761 -2.6805
112.05 33.3948 30.78 2.6148
112.1 34.5133 30.784 3.7293
112.15 33.7953 30.788 3.0073
112.2 30.5019 30.792 -0.2901
112.25 30.0772 30.7962 -0.719
112.3 33.8506 30.8004 3.0502
112.35 30.244 30.8046 -0.5606
112.4 24.341 30.8088 -6.4678
112.45 31.9063 30.8132 1.0931
112.5 29.8003 30.8176 -1.0173
112.55 32.3489 30.8221 1.5268
112.6 28.4296 30.8266 -2.397
112.65 27.1779 30.8312 -3.6533
112.7 29.0831 30.8359 -1.7528
112.75 21.9597 30.8407 -8.881
112.8 26.0692 30.8454 -4.7762
112.85 37.1654 30.8504 6.315
112.9 26.9639 30.8554 -3.8915
112.95 28.2065 30.8604 -2.6539
113 31.6166 30.8655 0.7511
113.05 27.0373 30.8708 -3.8335
113.1 22.3836 30.8762 -8.4926
113.15 33.2183 30.8817 2.3366
113.2 28.6408 30.8871 -2.2463
113.25 35.6167 30.8929 4.7238
113.3 32.3564 30.8987 1.4577
113.35 28.1382 30.9047 -2.7665
113.4 38.7049 30.9107 7.7942
113.45 26.4176 30.917 -4.4994
113.5 36.1205 30.9233 5.1972
113.55 40.4675 30.93 9.5375
113.6 26.8196 30.9367 -4.1171
113.65 27.807 30.9438 -3.1368
113.7 29.6108 30.9509 -1.3401
113.75 34.842 30.9585 3.8835
113.8 34.1136 30.9661 3.1475
113.85 29.0934 30.9743 -1.8809
113.9 20.4178 30.9826 -10.5648
113.95 32.896 30.9916 1.9044
114 31.5819 31.0006 0.5813
114.05 27.5008 31.0105 -3.5097
114.1 33.706 31.0204 2.6856
114.15 26.4173 31.0317 -4.6144
114.2 41.4622 31.0429 10.4193
114.25 26.3322 31.0557 -4.7235
114.3 22.5062 31.0686 -8.5624
114.35 25.4366 31.0838 -5.6472
114.4 37.9699 31.0991 6.8708
114.45 25.2794 31.1178 -5.8384
114.5 24.3301 31.1366 -6.8065
114.55 26.6634 31.1611 -4.4977
114.6 26.9404 31.1856 -4.2452
114.65 32.252 31.2193 1.0327
114.7 25.1638 31.2529 -6.0891
114.75 23.7745 31.2997 -7.5252
114.8 17.7955 31.3465 -13.551
114.85 38.771 31.4043 7.3667
114.9 43.9933 31.4699 12.5234
114.95 31.6949 31.5501 0.1448
115 30.1918 31.6303 -1.4385
115.05 27.9263 31.7416 -3.8153
115.1 34.84 31.8529 2.9871
115.15 32.8342 32.0221 0.8121
115.2 34.8933 32.1913 2.702
115.25 37.6745 32.4724 5.2021
115.3 34.4306 32.7534 1.6772
115.35 32.2844 33.2638 -0.9794
115.4 34.4845 33.7743 0.7102
115.45 29.6453 34.7893 -5.144
115.5 41.6869 35.8043 5.8826
115.55 33.447 37.9716 -4.5246
115.6 36.6056 40.1389 -3.5333
115.65 33.3979 44.8065 -11.4086
115.7 46.6648 49.474 -2.8092
115.75 73.2649 57.1969 16.068
115.8 75.0004 67.3328 7.6676
115.85 68.3783 79.4241 -11.0458
115.9 79.6012 91.9001 -12.2989
115.95 104.855 102.169 2.686
116 118.826 107.59 11.236
116.05 114.242 106.352 7.89
116.1 92.6712 98.916 -6.2448
116.15 90.8858 87.5181 3.3677
116.2 84.6537 74.9995 9.6542
116.25 58.6954 63.7116 -5.0162
116.3 44.8518 54.3766 -9.5248
116.35 44.1382 47.5317 -3.3935
116.4 37.9758 42.6994 -4.7236
116.45 30.7737 39.9142 -9.1405
116.5 44.2251 37.1291 7.096
116.55 32.8099 35.8321 -3.0222
116.6 48.3133 34.5352 13.7781
116.65 37.7372 33.8992 3.838
116.7 32.9497 33.2631 -0.3134
116.75 40.534 32.9253 7.6087
116.8 27.1784 32.5875 -5.4091
116.85 40.9785 32.393 8.5855
116.9 35.6762 32.1985 3.4777
116.95 21.3776 32.0772 -10.6996
117 28.4952 31.9559 -3.4607
117.05 38.1886 31.8735 6.3151
117.1 25.5728 31.7911 -6.2183
117.15 30.2954 31.7313 -1.4359
117.2 33.9992 31.6715 2.3277
117.25 38.7959 31.6286 7.1673
117.3 28.696 31.5858 -2.8898
117.35 26.4865 31.5581 -5.0716
117.4 23.5597 31.5304 -7.9707
117.45 36.232 31.5135 4.7185
117.5 27.6985 31.4967 -3.7982
117.55 36.1241 31.4869 4.6372
117.6 31.1633 31.4771 -0.3138
117.65 24.4867 31.4715 -6.9848
117.7 33.6397 31.4658 2.1739
117.75 28.0725 31.463 -3.3905
117.8 32.1908 31.4602 0.7306
117.85 38.6934 31.4593 7.2341
117.9 28.046 31.4584 -3.4124
117.95 25.936 31.4589 -5.5229
118 37.2425 31.4594 5.7831
118.05 35.1619 31.461 3.7009
118.1 36.9821 31.4626 5.5195
118.15 29 31.465 -2.465
118.2 12.7811 31.4673 -18.6862
118.25 24.2062 31.4705 -7.2643
118.3 24.293 31.4736 -7.1806
118.35 24.0327 31.4772 -7.4445
118.4 33.1203 31.4807 1.6396
118.45 30.4562 31.4848 -1.0286
118.5 27.5864 31.4889 -3.9025
118.55 25.1526 31.4933 -6.3407
118.6 18.5628 31.4977 -12.9349
118.65 19.108 31.5024 -12.3944
118.7 29.0048 31.5071 -2.5023
118.75 27.4097 31.5121 -4.1024
118.8 28.7172 31.5171 -2.7999
118.85 33.7729 31.5223 2.2506
118.9 38.1214 31.5274 6.594
118.95 29.5586 31.5329 -1.9743
119 29.1213 31.5383 -2.417
119.05 33.2163 31.5438 1.6725
119.1 41.17 31.5493 9.6207
119.15 32.4594 31.555 0.9044
119.2 25.4239 31.5608 -6.1369
119.25 29.4904 31.5666 -2.0762
119.3 24.5329 31.5724 -7.0395
119.35 29.0601 31.5783 -2.5182
119.4 36.0027 31.5843 4.4184
119.45 26.9506 31.5904 -4.6398
119.5 25.2263 31.5964 -6.3701
119.55 36.16 31.6025 4.5575
119.6 30.069 31.6086 -1.5396
119.65 30.9213 31.6149 -0.6936
119.7 17.1068 31.6212 -14.5144
119.75 21.9221 31.6274 -9.7053
119.8 24.5859 31.6336 -7.0477
119.85 22.6878 31.6401 -8.9523
119.9 34.001 31.6465 2.3545
119.95 22.8291 31.6529 -8.8238
120 23.8941 31.6592 -7.7651
120.05 25.2256 31.6657 -6.4401
120.1 34.0582 31.6723 2.3859
120.15 19.7318 31.6788 -11.947
120.2 27.7268 31.6853 -3.9585
120.25 28.0838 31.6919 -3.6081
120.3 32.9658 31.6984 1.2674
120.35 31.8399 31.7051 0.1348
120.4 34.5745 31.7118 2.8627
120.45 30.4047 31.7184 -1.3137
120.5 28.0583 31.725 -3.6667
120.55 27.0504 31.7318 -4.6814
120.6 29.868 31.7385 -1.8705
120.65 26.7714 31.7452 -4.9738
120.7 23.7959 31.7519 -7.956
120.75 25.9127 31.7587 -5.846
120.8 34.2955 31.7656 2.5299
120.85 17.703 31.7724 -14.0694
120.9 28.3744 31.7792 -3.4048
120.95 35.8506 31.786 4.0646
121 33.4317 31.7928 1.6389
121.05 29.4589 31.7997 -2.3408
121.1 25.0605 31.8066 -6.7461
121.15 33.1832 31.8134 1.3698
121.2 31.6445 31.8203 -0.1758
121.25 34.3045 31.8272 2.4773
121.3 18.0128 31.8342 -13.8214
121.35 33.0851 31.8411 1.244
121.4 37.3424 31.848 5.4944
121.45 40.2439 31.855 8.3889
121.5 33.8189 31.862 1.9569
121.55 38.8073 31.8689 6.9384
121.6 30.5445 31.8759 -1.3314
121.65 27.8157 31.8829 -4.0672
121.7 36.4264 31.8899 4.5365
121.75 34.5238 31.8969 2.6269
121.8 24.2025 31.904 -7.7015
121.85 33.696 31.911 1.785
121.9 25.6565 31.9179 -6.2614
121.95 18.1093 31.925 -13.8157
122 34.09 31.9321 2.1579
122.05 28.2182 31.9391 -3.7209
122.1 27.9882 31.9462 -3.958
122.15 30.4245 31.9532 -1.5287
122.2 29.9253 31.9603 -2.035
122.25 27.392 31.9674 -4.5754
122.3 25.439 31.9745 -6.5355
122.35 36.7989 31.9816 4.8173
122.4 32.9072 31.9886 0.9186
122.45 50.9807 31.9958 18.9849
122.5 26.9048 32.0029 -5.0981
122.55 26.1213 32.01 -5.8887
122.6 29.5446 32.017 -2.4724
122.65 28.6655 32.0242 -3.3587
122.7 30.5386 32.0313 -1.4927
122.75 29.6451 32.0385 -2.3934
122.8 38.6575 32.0456 6.6119
122.85 35.7507 32.0523 3.6984
122.9 24.426 32.0591 -7.6331
122.95 25.0442 32.0662 -7.022
123 35.2396 32.0733 3.1663
123.05 27.5029 32.0805 -4.5776
123.1 33.005 32.0876 0.9174
123.15 27.3044 32.0948 -4.7904
123.2 26.2069 32.1019 -5.895
123.25 30.759 32.1091 -1.3501
123.3 21.2015 32.1162 -10.9147
123.35 27.7073 32.1234 -4.4161
123.4 32.3929 32.1305 0.2624
123.45 34.1854 32.1377 2.0477
123.5 24.6019 32.1448 -7.5429
123.55 30.9274 32.152 -1.2246
123.6 28.9095 32.1591 -3.2496
123.65 37.3715 32.1663 5.2052
123.7 34.2188 32.1734 2.0454
123.75 32.9475 32.1806 0.7669
123.8 25.2962 32.1877 -6.8915
123.85 36.439 32.1949 4.2441
123.9 39.8006 32.202 7.5986
123.95 21.7855 32.2092 -10.4237
124 34.985 32.2163 2.7687
124.05 34.9073 32.2235 2.6838
124.1 35.1481 32.2306 2.9175
124.15 29.3091 32.2378 -2.9287
124.2 34.7649 32.2449 2.52
124.25 33.6452 32.252 1.3932
124.3 37.3742 32.2592 5.115
124.35 27.099 32.2663 -5.1673
124.4 30.7175 32.2734 -1.5559
124.45 37.9119 32.2806 5.6313
124.5 28.7401 32.2877 -3.5476
124.55 22.7125 32.2948 -9.5823
124.6 23.1346 32.3019 -9.1673
124.65 32.9639 32.309 0.6549
124.7 27.3049 32.3162 -5.0113
124.75 22.3022 32.3233 -10.0211
124.8 27.7311 32.3304 -4.5993
124.85 35.0492 32.3375 2.7117
124.9 31.1729 32.3446 -1.1717
124.95 18.0045 32.3517 -14.3472
125 22.7108 32.3587 -9.6479
125.05 30.174 32.3658 -2.1918
125.1 32.0807 32.3729 -0.2922
125.15 28.447 32.38 -3.933
125.2 25.3935 32.3871 -6.9936
125.25 37.2941 32.3941 4.9
125.3 31.3685 32.4012 -1.0327
125.35 29.0255 32.4082 -3.3827
125.4 25.9534 32.4153 -6.4619
125.45 27.546 32.4223 -4.8763
125.5 29.9226 32.4293 -2.5067
125.55 25.538 32.4364 -6.8984
125.6 37.219 32.4434 4.7756
125.65 36.1512 32.4504 3.7008
125.7 31.737 32.4574 -0.7204
125.75 26.7959 32.4644 -5.6685
125.8 39.3174 32.4714 6.846
125.85 25.0092 32.4784 -7.4692
125.9 31.7898 32.4854 -0.6956
125.95 29.4233 32.4923 -3.069
126 27.0945 32.4993 -5.4048
126.05 41.9846 32.5063 9.4783
126.1 37.857 32.5132 5.3438
126.15 27.6433 32.5201 -4.8768
126.2 32.9618 32.5271 0.4347
126.25 27.9949 32.534 -4.5391
126.3 29.5218 32.5409 -3.0191
126.35 29.0005 32.5478 -3.5473
126.4 31.8544 32.5547 -0.7003
126.45 27.4598 32.5616 -5.1018
126.5 29.9569 32.5685 -2.6116
126.55 28.3469 32.5753 -4.2284
126.6 33.7523 32.5822 1.1701
126.65 28.539 32.5891 -4.0501
126.7 21.907 32.5959 -10.6889
126.75 29.6607 32.6027 -2.942
126.8 29.7127 32.6095 -2.8968
126.85 32.6464 32.6163 0.0301
126.9 30.0451 32.6232 -2.5781
126.95 28.2581 32.6299 -4.3718
127 34.4638 32.6367 1.8271
127.05 32.6775 32.6435 0.034
127.1 33.6222 32.6502 0.972
127.15 30.0772 32.657 -2.5798
127.2 23.6675 32.6637 -8.9962
127.25 43.2425 32.6704 10.5721
127.3 26.33 32.6771 -6.3471
127.35 29.5049 32.6838 -3.1789
127.4 29.4776 32.6905 -3.2129
127.45 33.0914 32.6972 0.3942
127.5 33.4123 32.7039 0.7084
127.55 33.1641 32.7105 0.4536
127.6 32.9134 32.7171 0.1963
127.65 35.3503 32.7237 2.6266
127.7 31.1683 32.7304 -1.5621
127.75 33.7064 32.737 0.9694
127.8 25.0524 32.7435 -7.6911
127.85 23.4112 32.7501 -9.3389
127.9 28.4937 32.7567 -4.263
127.95 23.3208 32.7632 -9.4424
128 35.1636 32.7697 2.3939
128.05 47.5383 32.7762 14.7621
128.1 32.3725 32.7828 -0.4103
128.15 26.303 32.7892 -6.4862
128.2 28.7113 32.7957 -4.0844
128.25 31.0633 32.8022 -1.7389
128.3 21.5306 32.8086 -11.278
128.35 33.1584 32.815 0.3434
128.4 47.1228 32.8214 14.3014
128.45 30.2619 32.8278 -2.5659
128.5 47.63 32.8342 14.7958
128.55 38.8125 32.8406 5.9719
128.6 27.8225 32.8469 -5.0244
128.65 26.5979 32.8533 -6.2554
128.7 22.3036 32.8596 -10.556
128.75 37.3298 32.8659 4.4639
128.8 26.0879 32.8722 -6.7843
128.85 32.4807 32.8785 -0.3978
128.9 31.8976 32.8847 -0.9871
128.95 29.0895 32.8909 -3.8014
129 37.6278 32.8972 4.7306
129.05 26.1957 32.9034 -6.7077
129.1 28.152 32.9096 -4.7576
129.15 29.1738 32.9157 -3.7419
129.2 34.7054 32.9219 1.7835
129.25 27.7309 32.928 -5.1971
129.3 43.58 32.9341 10.6459
129.35 40.3284 32.9402 7.3882
129.4 39.9977 32.9463 7.0514
129.45 23.7732 32.9524 -9.1792
129.5 38.2417 32.9584 5.2833
129.55 36.3142 32.9644 3.3498
129.6 24.9126 32.9704 -8.0578
129.65 28.7602 32.9764 -4.2162
129.7 34.0529 32.9824 1.0705
129.75 31.5018 32.9883 -1.4865
129.8 27.9486 32.9943 -5.0457
129.85 30.554 33.0002 -2.4462
129.9 31.5458 33.0061 -1.4603
129.95 27.1725 33.0188 -5.8463
130 27.6914 33.0315 -5.3401
