*TYPE		=  Raw
*CLASS		=  ASCII CLASS
*SAMPLE		=   
*COMMENT	=   
*FNAME		=  PB_Ge220_2.5SS_500umDS_RS1_Rod_2.5SS_Hypix1D_EFRW1_BM_Unirradiated_TEST1_intensity_Theta_2-Theta.asc
*DATE		=  05-Apr-22 10:50

*GROUP_COUNT	=  1
*GONIO		=  SmartLab(In-plane), 0.000000
*ATTACHMENT	=  Chi phi Z cradle
*ASC		=  0, 0, 0.000000, 0.000000
*I_MONOCHRO	=  Ge(220)x2, 0.000000
*FILTER		=  None
*C_MONOCHRO	=  No_unit, 0.000000
*SLIT_NAME	=  0, Incident slit
*SLIT_NAME	=  1, Receiving slit # 1
*SLIT_NAME	=  2, Receiving slit # 2
*COUNTER	=  HyPix 3000(H), 0
*POS_FORMAT	=  0
*SCAN_AXIS	=  2theta/theta
*MEAS_MODE	=  Continuous Scanning
*TARGET		=  29
*XRAY_CHAR	=  K-ALPHA1
*WAVE_LENGTH1	=  1.54059
*WAVE_LENGTH2	=  1.54441
*THICKNESS	=  0, 0.000000
*MU		=  0, 0.000000
*SCAN_MODE	=  2theta/theta
*SPEED_DIM	=  sec./step
*XUNIT		=  deg.
*YUNIT		=  
*SCALE_MODE	=  1
*REP_COUNT	=  0
*SE_COUNT	=  0
*STD_MATERIAL	=  Unknown, Unknown, 0.000000, 0.000000, 0.000000, 0.000000, 0.000000, 0.000000
*LATT_CONS	=  0, Unknown, Unknown, 0.000000, 0.000000, 0.000000, 0.000000, 0.000000, 0.000000
*SEC_COUNT	=  1
*TSPEC_SIZE	=  0
*EXTRA_SIZE	=  0
*MEMO		=   

*BEGIN
*GROUP		=  0
*START		=  43
*STOP		=  45
*STEP		=  0.01
*OFFSET		=  0.000000
*SPEED		=  1.19227
*SLIT_SPEC	=  0, 1.000mm, 1, 0.000000
*SLIT_SPEC	=  1, 20.000mm, 20, 0.000000
*SLIT_SPEC	=  2, 38.500mm, 38.5, 0.000000
*KV		=  40
*MA		=  30
*LOW		=  0.000000
*HIGH		=  0.000000
*CTEMPER	=  0, 0.000000
*CTEMPER	=  1, 0.000000
*CTEMPER	=  2, 0.000000
*PAREX		=  0, 0.000000
*PAREX		=  1, 0.000000
*PAREX		=  2, 0.000000
*PAREX		=  3, 0.000000
*PAREX		=  4, 0.000000
*PAREX		=  5, 0.000000
*PAREX		=  6, 0.000000
*PAREX		=  7, 0.000000
*PAREX		=  8, 0.000000
*PAREX		=  9, 0.000000
*PAREX		=  10, 0.000000
*PAREX		=  11, 0.000000
*PAREX		=  12, 0.000000
*PAREX		=  13, 0.000000
*PAREX		=  14, 0.000000
*PAREX		=  15, 0.000000
*FULL_SCALE	=  12.1781
*INDEX		=  0, 0, 0
*COUNT		=  201
0.000000, 0.000000, 0.000000, 0.000000
0.000000, 0.000000, 0.000000, 0.000000
0.000000, 0.000000, 0.000000, 0.000000
0.000000, 0.960869, 0.000000, 0.000000
0.000000, 0.000000, 0.000000, 0.000000
0.978904, 0.000000, 0.967319, 0.687088
0.269503, 0.000000, 0.000000, 0.990126
1.00902, 0.000000, 0.000000, 0.000000
0.000000, 0.000000, 0.000000, 0.000000
0.000000, 0.000000, 0.000000, 0.223528
0.754383, 0.000000, 0.000000, 0.000000
1.72672, 0.323048, 0.000000, 0.000000
0.000000, 0.000000, 0.000000, 0.000000
0.000000, 0.000000, 0.613486, 0.338404
0.000000, 0.000000, 0.000000, 0.113863
0.863801, 0.297294, 0.676634, 0.000000
0.000000, 0.000000, 0.000000, 0.965259
0.142173, 0.138429, 1.00133, 0.000000
2.96502, 0.000000, 0.000000, 0.000000
0.000000, 0.000000, 0.000000, 0.000000
0.0948125, 0.865358, 0.000000, 1.018
0.000000, 0.000000, 0.000000, 0.000000
0.000000, 1.95647, 0.0516735, 0.000000
0.0370718, 0.123081, 0.471148, 1.64402
0.0853491, 0.0547845, 0.000000, 0.000000
0.000000, 0.984731, 1.13933, 0.832457
0.000000, 0.000000, 0.000000, 0.601343
1.33522, 0.000000, 1.00806, 0.000000
0.000000, 0.000000, 0.299872, 0.673253
0.982996, 0.000000, 0.000000, 0.789241
0.222444, 0.000000, 0.000000, 0.000000
0.000000, 0.000000, 0.975443, 0.000000
0.637505, 0.374931, 0.000000, 0.982872
1.0182, 0.000000, 0.000000, 0.000000
0.000000, 1.01778, 0.000000, 0.656026
1.28896, 0.000000, 0.95829, 0.0449762
3.09291, 1.77006, 0.320433, 1.08063
1.5858, 2.6436, 5.79808, 6.26879
4.96942, 6.16819, 6.20971, 11.0226
4.66326, 12.0997, 11.7494, 9.34306
10.5051, 1.51862, 4.84306, 8.76925
0.263714, 3.04677, 0.837461, 1.2777
0.676315, 1.01736, 0.000000, 0.306344
0.000000, 3.1605, 0.355941, 0.000000
0.000000, 0.969653, 0.340366, 0.633799
0.95506, 0.000000, 0.000000, 0.942211
0.000000, 0.000000, 0.000000, 0.000000
0.000000, 0.000000, 0.000000, 0.000000
0.000000, 0.000000, 0.000000, 0.000000
0.000000, 0.000000, 0.000000, 0.000000
0.000000
*END

*EOF
