40 35.7513 5.97923908202373
40.05 27.8124 5.27374629651446
40.1 33.3057 5.77110907885131
40.15 43.604 6.60333249200735
40.2 39.6789 6.29911898601701
40.25 29.0166 5.38670585794324
40.3 47.0008 6.85571294614936
40.35 40.2043 6.34068608275161
40.4 48.8365 6.98831167021048
40.45 37.7487 6.1439970703118
40.5 45.11 6.71639784408279
40.55 39.733 6.30341177458684
40.6 38.8857 6.23583995946015
40.65 44.6445 6.68165398685086
40.7 37.9716 6.16211002822897
40.75 39.786 6.30761444604852
40.8 39.8725 6.31446751515914
40.85 33.9419 5.82596773077229
40.9 34.939 5.91092209388688
40.95 35.7616 5.98010033360645
41 37.8212 6.1498943080349
41.05 28.0221 5.29359046394789
41.1 45.6919 6.75957838921926
41.15 33.5047 5.7883244553152
41.2 40.2128 6.34135632179741
41.25 36.743 6.06160044872639
41.3 42.4488 6.51527436106876
41.35 35.8084 5.98401203207346
41.4 24.4025 4.93988866271296
41.45 32.2736 5.68098582994184
41.5 32.7526 5.72298872967613
41.55 32.3617 5.68873448141149
41.6 36.7348 6.06092402196233
41.65 29.3242 5.41518236073357
41.7 36.2158 6.01795646378403
41.75 25.3882 5.03867045955577
41.8 37.5206 6.12540610898575
41.85 42.4013 6.51162806063123
41.9 37.2089 6.09990983539921
41.95 42.0264 6.48277718265868
42 41.3039 6.42681102880737
42.05 43.4 6.58786763680024
42.1 32.3544 5.68809282624677
42.15 32.337 5.68656310964716
42.2 30.9037 5.55910964094072
42.25 33.4249 5.78142715944774
42.3 37.7864 6.1470643399919
42.35 38.0956 6.17216331605054
42.4 45.82 6.76904720030818
42.45 49.9409 7.06688757516348
42.5 32.4241 5.69421636399602
42.55 34.3285 5.85905282447598
42.6 40.5093 6.3646916657447
42.65 40.1913 6.33966087421086
42.7 30.2416 5.49923631061623
42.75 36.9278 6.07682482880657
42.8 29.978 5.47521689068114
42.85 35.7435 5.9785867895348
42.9 32.3486 5.68758296642783
42.95 38.7319 6.22349580219992
43 28.8372 5.37002793288825
43.05 33.1034 5.75355542251919
43.1 32.7966 5.72683158474212
43.15 37.8975 6.15609454118437
43.2 38.3961 6.19645866604466
43.25 34.8793 5.90586996131815
43.3 41.2576 6.42320792128046
43.35 35.4592 5.95476279964198
43.4 32.6799 5.71663362478303
43.45 36.9683 6.08015624799232
43.5 31.5727 5.61895897831618
43.55 31.2618 5.59122526822163
43.6 39.6785 6.29908723546515
43.65 36.5252 6.04360819378623
43.7 41.8051 6.46568635181138
43.75 45.521 6.74692522561203
43.8 32.4713 5.69835941302407
43.85 39.4062 6.27743578222828
43.9 35.4304 5.95234407607625
43.95 41.9707 6.47847975994369
44 33.0128 5.74567663552344
44.05 43.1857 6.5715827621662
44.1 58.3227 7.63693001146403
44.15 49.6885 7.04900702226916
44.2 68.9944 8.30628677568984
44.25 82.1281 9.06245551713221
44.3 92.7992 9.63323414020442
44.35 145.7984 12.0747008244511
44.4 195.8862 13.9959351241709
44.45 384.1321 19.599288252383
44.5 671.664 25.9164812426379
44.55 1029.3267 32.0831217309039
44.6 1296.6406 36.0088961230416
44.65 1127.7477 33.5819549758498
44.7 733.8881 27.090369137389
44.75 341.7922 18.4876228866775
44.8 162.7043 12.7555595722022
44.85 106.8943 10.3389699680384
44.9 74.0375 8.60450463420178
44.95 60.9656 7.80804713100529
45 38.5067 6.20537670089415
45.05 45.68 6.75869809948632
45.1 43.7203 6.61213278753535
45.15 34.9017 5.9077660752606
45.2 30.1415 5.49012750307313
45.25 37.598 6.13172080251539
45.3 42.0903 6.48770375402576
45.35 49.812 7.05776168484031
45.4 48.0788 6.93388779834228
45.45 36.9736 6.08059207643466
45.5 30.7851 5.54843221099438
45.55 35.4401 5.95315882536322
45.6 38.0777 6.17071308683202
45.65 39.4954 6.2845365779825
45.7 34.9515 5.9119793639694
45.75 29.3189 5.41469297375207
45.8 48.2149 6.94369498178023
45.85 31.5273 5.61491763074045
45.9 32.6702 5.71578516041322
45.95 27.9923 5.29077499049052
46 32.8117 5.72814978854429
46.05 34.9856 5.91486263576763
46.1 33.3089 5.77138631526256
46.15 24.9094 4.99093177673268
46.2 56.7959 7.53630546090059
46.25 41.2407 6.42189224450239
46.3 35.3517 5.94572955994468
46.35 38.0534 6.16874379432312
46.4 26.8436 5.18108096829223
46.45 26.642 5.16158890265391
46.5 32.4524 5.69670079958567
46.55 30.3361 5.50782171098521
46.6 27.6405 5.25742332326397
46.65 39.8099 6.30950869719664
46.7 37.9357 6.15919637615168
46.75 34.3337 5.8594965654056
46.8 40.174 6.33829630105756
46.85 35.1681 5.93026980836454
46.9 31.6383 5.62479332953665
46.95 31.8841 5.64660074735234
47 30.9062 5.55933449254495
47.05 28.3384 5.32338238341001
47.1 40.3644 6.35329835597227
47.15 40.6099 6.37258974044305
47.2 27.8974 5.28179893596869
47.25 32.0591 5.66207559115913
47.3 41.7535 6.46169482411542
47.35 33.1747 5.75974825838769
47.4 23.1993 4.81656516617392
47.45 26.8902 5.18557614928177
47.5 32.1362 5.66887995992154
47.55 30.161 5.49190313097382
47.6 30.3247 5.50678672185513
47.65 29.6852 5.44841261286258
47.7 36.3329 6.0276778281524
47.75 29.6536 5.44551191349353
47.8 34.6283 5.88458154841956
47.85 29.809 5.45976189957035
47.9 26.8299 5.17975868163759
47.95 34.2372 5.85125627536515
48 37.2592 6.1040314547027
48.05 27.1022 5.20597733379622
48.1 28.6279 5.3505046490962
48.15 36.4289 6.03563584057223
48.2 31.1261 5.57907698459163
48.25 30.542 5.52648170177012
48.3 42.3912 6.51085247874654
48.35 25.0275 5.00274924416565
48.4 33.2329 5.76479834859815
48.45 25.8128 5.08062988220949
48.5 30.8788 5.55686962236833
48.55 26.5751 5.1551042666468
48.6 33.7954 5.81338111601158
48.65 31.1263 5.5790949086747
48.7 31.1952 5.58526633205615
48.75 41.5056 6.44248399299525
48.8 31.5156 5.61387566659612
48.85 28.8639 5.37251337829884
48.9 32.5916 5.70890532414052
48.95 29.1725 5.4011572833977
49 32.4013 5.6922139805176
49.05 47.7006 6.90656209702049
49.1 33.9135 5.82352985739749
49.15 37.0792 6.08926925008248
49.2 33.1603 5.75849806807296
49.25 27.6216 5.25562555743843
49.3 35.9273 5.99393860495751
49.35 39.9487 6.32049839806957
49.4 42.3413 6.50701928689319
49.45 42.3284 6.50602797411754
49.5 21.3045 4.61567979825291
49.55 30.835 5.5529271560142
49.6 30.7486 5.54514201801902
49.65 26.193 5.11790972956734
49.7 35.4175 5.9512603707114
49.75 38.847 6.23273615677738
49.8 26.7643 5.17342246486791
49.85 37.6654 6.1372143518049
49.9 31.0963 5.57640565238936
49.95 31.2172 5.58723545235029
50 35.8137 5.98445486239139
50.05 30.6031 5.53200686912083
50.1 38.1013 6.17262504936109
50.15 34.8311 5.90178786470676
50.2 26.0939 5.10821886766806
50.25 34.1449 5.84336375728912
50.3 39.4498 6.2809075777311
50.35 33.679 5.80336109508964
50.4 52.9223 7.27477147407394
50.45 28.6434 5.35195291459108
50.5 31.9059 5.64853078242475
50.55 30.0668 5.48332016209158
50.6 25.8589 5.08516469743115
50.65 22.7012 4.76457763080842
50.7 29.6551 5.44564963985014
50.75 32.697 5.71812906465043
50.8 34.9488 5.91175100964173
50.85 39.0847 6.2517757477376
50.9 24.8127 4.98123478667689
50.95 41.8669 6.47046366190245
51 20.653 4.54455718414897
51.05 26.8232 5.17911189297934
51.1 28.228 5.31300291737168
51.15 35.2963 5.94106892739009
51.2 33.4654 5.78492869446115
51.25 30.3096 5.50541551565366
51.3 31.0741 5.57441476748905
51.35 36.5384 6.04470015798964
51.4 27.1092 5.20664959450893
51.45 28.1092 5.3018110113432
51.5 39.9288 6.31892395902973
51.55 39.8125 6.30971473206198
51.6 32.0827 5.6641592491737
51.65 29.9113 5.46912241589087
51.7 37.7805 6.14658441738174
51.75 35.0768 5.92256701101811
51.8 33.2024 5.76215237563187
51.85 31.3326 5.59755303681886
51.9 30.9546 5.56368582865711
51.95 32.5172 5.70238546575028
52 34.3183 5.85818231194626
52.05 38.1175 6.17393715549486
52.1 24.1692 4.91621805863003
52.15 31.9594 5.65326454360664
52.2 14.9076 3.86103613036708
52.25 31.3282 5.59715999413989
52.3 26.4091 5.13897849771723
52.35 30.2476 5.49978181385407
52.4 30.834 5.55283711268393
52.45 30.9634 5.56447661510047
52.5 41.2778 6.42478015188069
52.55 26.7338 5.17047386609777
52.6 35.2165 5.93434916397746
52.65 31.0891 5.57576003787824
52.7 32.1526 5.67032626927234
52.75 30.3683 5.51074405139633
52.8 30.8225 5.55180150942016
52.85 42.2785 6.50219193810826
52.9 28.3489 5.32436850715651
52.95 41.2484 6.42249172829362
53 33.9183 5.82394196399655
53.05 30.3135 5.50576970095917
53.1 37.2271 6.10140147834905
53.15 31.7736 5.63680760714786
53.2 27.4638 5.24059156966081
53.25 34.0459 5.83488645990648
53.3 35.7707 5.98086114200957
53.35 25.9088 5.09006876181452
53.4 24.5552 4.95532037309395
53.45 38.9919 6.24434944569889
53.5 32.8547 5.73190195310422
53.55 28.174 5.30791861278976
53.6 32.181 5.67282998158767
53.65 28.938 5.37940517157799
53.7 38.2635 6.18574975245524
53.75 35.2006 5.93300935445074
53.8 32.1217 5.66760090338055
53.85 32.3515 5.6878379020503
53.9 28.8942 5.37533254785227
53.95 32.4603 5.6973941411842
54 28.8415 5.37042828832115
54.05 27.0827 5.20410414961115
54.1 25.0138 5.00137980961254
54.15 30.5457 5.52681644348715
54.2 33.3785 5.77741291583006
54.25 31.3304 5.59735651892927
54.3 32.7687 5.72439516455669
54.35 24.9539 4.99538787282829
54.4 37.2173 6.10059833131145
54.45 40.1425 6.33581091889586
54.5 30.2349 5.49862710137722
54.55 30.5061 5.52323274903385
54.6 39.6575 6.29742010667861
54.65 30.0118 5.47830265684546
54.7 27.0099 5.19710496334257
54.75 40.8148 6.38864617896468
54.8 29.2384 5.40725438647009
54.85 29.7901 5.45803078041889
54.9 35.5928 5.96597016418956
54.95 39.0015 6.245118093359
55 36.6172 6.05121475408037
55.05 32.2139 5.67572902806327
55.1 32.0769 5.66364723477725
55.15 24.8464 4.98461633428291
55.2 33.7918 5.8130714772829
55.25 27.9587 5.28759869884242
55.3 31.6822 5.62869434238528
55.35 26.0164 5.10062741238762
55.4 36.7375 6.06114675618401
55.45 26.8933 5.18587504670138
55.5 31.3372 5.59796391556787
55.55 26.9693 5.19319747361873
55.6 29.7985 5.45880023448376
55.65 38.8932 6.23644129291698
55.7 39.7432 6.30422080831565
55.75 41.0438 6.4065435298607
55.8 33.9668 5.82810432301962
55.85 32.3765 5.69003514927632
55.9 37.3069 6.10793745874988
55.95 38.5272 6.20702827446436
56 26.3266 5.13094533200267
56.05 42.5789 6.52525095302855
56.1 30.6293 5.53437440005643
56.15 44.5172 6.67212110201846
56.2 27.4684 5.24103043303509
56.25 29.9458 5.47227557785607
56.3 30.8451 5.55383651181775
56.35 26.6108 5.158565692128
56.4 25.9593 5.09502698717092
56.45 37.712 6.14100968896809
56.5 23.8558 4.88423996134506
56.55 36.0814 6.0067795031947
56.6 26.9164 5.18810177232483
56.65 33.2366 5.76511925288627
56.7 35.7735 5.98109521743301
56.75 29.7467 5.45405353842443
56.8 29.0501 5.3898144680499
56.85 35.1989 5.93286608647119
56.9 30.8904 5.55791327748104
56.95 38.1222 6.17431777607858
57 34.4175 5.86664299237647
57.05 31.8791 5.64615798574571
57.1 27.8594 5.27820045091128
57.15 23.6243 4.86048351504251
57.2 37.6394 6.13509576127382
57.25 28.8851 5.37448602193735
57.3 30.8474 5.5540435720293
57.35 31.7365 5.63351577613838
57.4 34.1827 5.84659730099483
57.45 27.6401 5.25738528167758
57.5 34.383 5.86370190238215
57.55 37.6876 6.13902272352856
57.6 28.4172 5.3307785547704
57.65 27.0055 5.19668163350421
57.7 36.9548 6.07904597778303
57.75 32.324 5.68541994930893
57.8 41.5495 6.44589016350729
57.85 25.8451 5.08380762814645
57.9 25.3139 5.03129208056936
57.95 32.312 5.68436452033119
58 32.8586 5.73224214422245
58.05 33.0643 5.75015651960884
58.1 26.064 5.10529137268384
58.15 22.9023 4.78563475413659
58.2 33.5287 5.79039722298911
58.25 31.5388 5.6159415951379
58.3 23.654 4.86353780698783
58.35 36.8512 6.07051892345292
58.4 26.7129 5.16845237958134
58.45 25.1529 5.01526669280907
58.5 39.3168 6.27031099707184
58.55 28.3056 5.32030074337908
58.6 29.4649 5.42815806696894
58.65 30.0441 5.48124985746864
58.7 30.8874 5.55764338546474
58.75 30.071 5.48370312836134
58.8 20.9554 4.57770684950445
58.85 23.5247 4.85022679882085
58.9 23.6052 4.85851829264849
58.95 32.4062 5.69264437673741
59 23.5666 4.85454426285311
59.05 36.0488 6.00406528945181
59.1 21.8841 4.67804446323461
59.15 39.3927 6.2763604103015
59.2 22.5506 4.74874720321055
59.25 28.3344 5.32300666916734
59.3 33.953 5.82692028433546
59.35 28.0074 5.29220181021094
59.4 49.9019 7.06412768854018
59.45 26.2561 5.12407064744428
59.5 21.7721 4.66605829367787
59.55 34.8459 5.90304158887603
59.6 20.9195 4.57378399140143
59.65 21.149 4.59880419239611
59.7 32.2364 5.67771080630213
59.75 21.6358 4.6514298876797
59.8 30.0564 5.48237174952593
59.85 26.3289 5.13116945734596
59.9 26.0153 5.100519581376
59.95 21.7891 4.6678796042743
60 39.4171 6.27830391108936
60.05 35.8491 5.9874117947574
60.1 31.0056 5.56826723496637
60.15 35.0116 5.91706008081716
60.2 33.2971 5.77036393999547
60.25 30.3303 5.50729516187393
60.3 26.2863 5.12701667639184
60.35 35.0762 5.92251635709012
60.4 36.8164 6.0676519346449
60.45 20.8321 4.56421953897925
60.5 27.257 5.22082368980221
60.55 34.5821 5.88065472545362
60.6 24.6815 4.96804790637127
60.65 25.7916 5.07854309817294
60.7 32.0896 5.66476830947215
60.75 22.3185 4.72424597158107
60.8 29.6256 5.4429403818157
60.85 40.6115 6.3727152768659
60.9 34.9611 5.91279121904368
60.95 36.1427 6.01187990565347
61 29.9413 5.47186439890464
61.05 30.2179 5.49708104360851
61.1 36.1775 6.01477347869394
61.15 20.8506 4.56624572269167
61.2 30.7426 5.5446009775276
61.25 37.6203 6.13353894582891
61.3 31.0834 5.57524887336879
61.35 30.1803 5.49365998219766
61.4 26.3021 5.12855730200999
61.45 35.2643 5.93837519865493
61.5 39.1231 6.25484612120874
61.55 32.3637 5.68891026471679
61.6 24.2289 4.92228605426381
61.65 29.747 5.45408104083539
61.7 33.2635 5.76745177699823
61.75 38.9357 6.23984775455299
61.8 35.0353 5.9190624257563
61.85 20.6225 4.54120028186382
61.9 34.5546 5.87831608541086
61.95 26.2416 5.12265556132754
62 25.4 5.03984126734166
62.05 32.46 5.69736781329765
62.1 25.4868 5.04844530524002
62.15 29.5012 5.43150071343087
62.2 31.8108 5.64010638197543
62.25 30.4076 5.51430866020392
62.3 33.3116 5.77162022312626
62.35 31.5653 5.61830045476388
62.4 37.6418 6.13529135412492
62.45 29.0334 5.38826502688945
62.5 29.8384 5.46245366113068
62.55 31.9846 5.65549290513214
62.6 22.4879 4.74214086673941
62.65 31.924 5.65013274180351
62.7 30.302 5.50472524291631
62.75 27.4764 5.24179358616876
62.8 32.6766 5.71634498609033
62.85 39.0642 6.25013599852035
62.9 27.4699 5.24117353271193
62.95 39.5411 6.28817143532204
63 33.4402 5.78275021075612
63.05 34.6703 5.88814911495964
63.1 25.1677 5.0167419706419
63.15 26.1824 5.11687404574316
63.2 31.685 5.628943062423
63.25 27.209 5.21622468841211
63.3 35.7416 5.97842788699504
63.35 24.9382 4.99381617603211
63.4 32.5497 5.70523443865368
63.45 33.7823 5.81225429588211
63.5 30.7997 5.54974774201495
63.55 35.7514 5.97924744428594
63.6 29.573 5.43810628803814
63.65 28.6674 5.35419461730707
63.7 25.0406 5.00405835297711
63.75 26.2163 5.12018554351305
63.8 26.6402 5.16141453479567
63.85 23.129 4.80926189763045
63.9 22.1917 4.7108067249676
63.95 36.1319 6.01098161700733
64 29.6122 5.44170929028738
64.05 30.0266 5.47965327370263
64.1 35.2628 5.93824890013883
64.15 26.3847 5.13660393645451
64.2 27.3255 5.22737984079979
64.25 31.7609 5.63568097038858
64.3 39.9187 6.31812472178256
64.35 34.124 5.8415751300484
64.4 41.3012 6.42660096785229
64.45 38.8297 6.23134816873524
64.5 53.3835 7.30640130296714
64.55 59.7337 7.72875798560157
64.6 86.9432 9.32433375636029
64.65 85.298 9.23569163625551
64.7 115.5176 10.7479114250165
64.75 153.3651 12.3840663757911
64.8 140.5004 11.8532864640993
64.85 172.9448 13.1508478814105
64.9 202.5759 14.2329160750705
64.95 192.9275 13.8898344122599
65 152.0127 12.329343048192
65.05 120.4264 10.9738962998563
65.1 105.3911 10.266016754321
65.15 71.8336 8.47547048841538
65.2 57.7928 7.60215758847447
65.25 61.6551 7.85207615857106
65.3 42.8541 6.54630430090139
65.35 33.1069 5.75385957423363
65.4 34.8873 5.90654721474399
65.45 31.7185 5.63191796815259
65.5 33.6885 5.80417952858111
65.55 41.4134 6.43532438964812
65.6 40.1252 6.33444551638105
65.65 29.6639 5.44645756432564
65.7 28.2186 5.31211822157602
65.75 30.7077 5.5414528780817
65.8 36.8256 6.06841000592412
65.85 38.1372 6.17553236571553
65.9 28.3354 5.32310060021413
65.95 29.6052 5.44106607201199
66 41.2195 6.42024142848227
66.05 31.1085 5.5774994397131
66.1 31.3383 5.59806216471379
66.15 21.679 4.65607130529591
66.2 34.3138 5.85779822117492
66.25 24.8319 4.98316164698678
66.3 20.704 4.55016483217916
66.35 31.594 5.62085402763673
66.4 47.4917 6.89142220445098
66.45 29.663 5.44637494118795
66.5 41.3971 6.43405781758293
66.55 33.4343 5.78224005036111
66.6 22.3277 4.72521957161781
66.65 42.9936 6.55695051071762
66.7 34.2689 5.85396446863149
66.75 39.7931 6.30817723276701
66.8 33.5971 5.79630054431273
66.85 38.897 6.23674594640506
66.9 30.5015 5.52281631054302
66.95 34.9516 5.9119878213677
67 33.7762 5.81172951882656
67.05 34.4401 5.86856882041951
67.1 33.3125 5.7716981903076
67.15 40.5114 6.36485663624877
67.2 29.6025 5.44081795321255
67.25 28.874 5.3734532658245
67.3 23.9591 4.89480336683712
67.35 28.2035 5.31069675278113
67.4 31.6863 5.62905853584771
67.45 39.5832 6.29151809979118
67.5 35.7262 5.97713978421117
67.55 29.6174 5.44218706036461
67.6 20.1669 4.49075717446401
67.65 31.0503 5.57227960533209
67.7 39.0318 6.2475435172554
67.75 44.3349 6.65844576459101
67.8 29.4721 5.42882123485384
67.85 38.1786 6.17888339427117
67.9 39.7186 6.30226943251397
67.95 30.7108 5.54173258106163
68 36.9792 6.08105254047357
68.05 28.4284 5.33182895449582
68.1 31.3315 5.59745477873649
68.15 32.661 5.71498031492673
68.2 25.5896 5.05861641162878
68.25 30.2593 5.50084538957422
68.3 31.7688 5.63638181815249
68.35 22.6064 4.75461880701282
68.4 21.0183 4.58457195384695
68.45 27.6115 5.25466459443417
68.5 31.1249 5.57896943888385
68.55 36.6847 6.05678957864643
68.6 29.6738 5.44736633612978
68.65 30.7252 5.54303166146469
68.7 28.9883 5.38407837981581
68.75 28.4575 5.33455715125445
68.8 26.0603 5.10492899069125
68.85 29.247 5.40804955598597
68.9 42.8133 6.54318729672321
68.95 30.1978 5.49525249647366
69 21.4788 4.63452262913884
69.05 29.6737 5.44735715737457
69.1 30.3992 5.51354695273378
69.15 29.0153 5.38658518915277
69.2 28.1641 5.3069859619185
69.25 26.0047 5.09948036568433
69.3 29.4569 5.42742111872665
69.35 27.5069 5.24470208877492
69.4 31.502 5.61266425149412
69.45 20.088 4.48196385527594
69.5 28.2258 5.31279587411374
69.55 25.6754 5.0670898946042
69.6 38.5221 6.20661743625302
69.65 35.6819 5.97343284887342
69.7 21.3928 4.6252351291583
69.75 22.3103 4.72337802848766
69.8 22.3937 4.7321982207004
69.85 34.3311 5.85927469914152
69.9 26.985 5.19470884650911
69.95 25.5893 5.05858675916505
70 19.6229 4.42977426061419
70.05 35.7085 5.97565895947886
70.1 24.8075 4.98071280039313
70.15 31.4424 5.60735231637892
70.2 27.4019 5.23468241634581
70.25 36.2483 6.02065611042518
70.3 29.5109 5.43239357926136
70.35 24.0459 4.90366189699086
70.4 21.0488 4.58789712177594
70.45 37.8123 6.14917067579035
70.5 37.3351 6.1102454942498
70.55 24.4884 4.94857555262118
70.6 42.1743 6.49417431241263
70.65 35.4281 5.95215087174376
70.7 18.672 4.32111096825805
70.75 19.8216 4.4521455501814
70.8 25.9222 5.09138488036408
70.85 34.4737 5.87143083072602
70.9 30.1948 5.49497952680445
70.95 22.4865 4.74199325178769
71 37.199 6.09909829401035
71.05 25.1277 5.01275373422633
71.1 24.8409 4.98406460632284
71.15 37.9055 6.15674426949829
71.2 27.8209 5.274552113687
71.25 24.549 4.95469474337219
71.3 31.7864 5.6379428872595
71.35 23.5279 4.85055666908449
71.4 22.7875 4.77362545661052
71.45 38.4347 6.1995725659113
71.5 23.6305 4.86112126983066
71.55 28.6916 5.35645405095573
71.6 41.5033 6.44230548794451
71.65 33.1882 5.76092006540622
71.7 29.2291 5.40639436223441
71.75 31.9454 5.65202618536043
71.8 26.1397 5.11269987384356
71.85 29.7498 5.4543377233171
71.9 36.2833 6.02356206907507
71.95 31.1674 5.58277708671948
72 30.6196 5.53349798951802
72.05 24.542 4.95398829227523
72.1 22.4718 4.7404430172717
72.15 30.6308 5.53450991506926
72.2 33.7547 5.80987951682305
72.25 32.6359 5.71278390979389
72.3 30.2798 5.50270842403993
72.35 30.1689 5.4926223245368
72.4 27.8917 5.2812593195184
72.45 29.9075 5.46877499994286
72.5 30.5877 5.53061479403511
72.55 28.4425 5.33315103855122
72.6 26.9036 5.18686803379457
72.65 21.4155 4.62768840783387
72.7 30.5353 5.52587549624492
72.75 24.1507 4.91433617083732
72.8 23.5087 4.84857711086459
72.85 36.9897 6.0819158165828
72.9 35.5267 5.96042783699291
72.95 24.1694 4.91623839942694
73 33.5215 5.78977547060333
73.05 26.974 5.19364996895247
73.1 20.79 4.5596052460712
73.15 39.217 6.26234780254179
73.2 18.363 4.28520711284764
73.25 29.4406 5.42591927695206
73.3 31.3509 5.59918744104892
73.35 33.2161 5.76334104491483
73.4 40.6567 6.37626065966566
73.45 45.0463 6.71165404352757
73.5 24.749 4.97483668073636
73.55 28.8994 5.37581621709671
73.6 26.9629 5.19258124635523
73.65 20.657 4.54499724972414
73.7 23.4077 4.83815047306303
73.75 23.7433 4.87270971842157
73.8 28.314 5.32109011387704
73.85 43.8754 6.62385084373131
73.9 18.3241 4.28066583605869
73.95 36.8931 6.07396904832417
74 27.8348 5.27586959656889
74.05 26.5733 5.15492967944278
74.1 26.8319 5.1799517372269
74.15 25.7566 5.07509605820422
74.2 17.145 4.14065212255268
74.25 35.1148 5.92577421102087
74.3 24.6456 4.96443350242502
74.35 37.8426 6.15163392929066
74.4 32.8779 5.73392535703073
74.45 32.3832 5.69062386738045
74.5 22.6557 4.75980041598385
74.55 21.1454 4.59841276964128
74.6 25.6752 5.06707015937218
74.65 25.0611 5.00610627134503
74.7 30.7618 5.54633212132126
74.75 32.7171 5.71988636250756
74.8 36.1734 6.01443264157144
74.85 38.971 6.24267570838018
74.9 28.8931 5.37523022762746
74.95 22.8074 4.77570937139186
75 34.1997 5.84805095737033
75.05 24.4123 4.94088048833404
75.1 29.6884 5.4487062684641
75.15 37.5334 6.12645084857456
75.2 33.0236 5.74661639575846
75.25 39.282 6.26753540077757
75.3 22.7225 4.76681235208604
75.35 36.0635 6.00528933524439
75.4 27.5428 5.24812347415722
75.45 39.0751 6.25100791872799
75.5 36.5654 6.04693310695595
75.55 35.9157 5.99297088262574
75.6 29.6682 5.44685230201811
75.65 23.5313 4.85090713166105
75.7 22.3487 4.72744116832775
75.75 26.8522 5.18191084446655
75.8 40.586 6.37071424567136
75.85 34.9622 5.91288423698621
75.9 24.131 4.91233142204392
75.95 29.9982 5.47706125581958
76 22.3329 4.72576977856518
76.05 34.2174 5.84956408632301
76.1 29.5554 5.43648783682995
76.15 27.1554 5.21108434013498
76.2 31.8356 5.64230449373304
76.25 31.5729 5.61897677517891
76.3 27.7778 5.27046487513198
76.35 20.296 4.50510821179692
76.4 30.3608 5.510063520505
76.45 24.4446 4.94414805603554
76.5 26.2308 5.1216013120898
76.55 31.5716 5.61886109456356
76.6 42.4408 6.51466039022757
76.65 21.6585 4.65386935785696
76.7 35.4218 5.95162162775827
76.75 20.9355 4.5755327558657
76.8 28.4623 5.33500702904879
76.85 29.3846 5.42075640478338
76.9 25.5126 5.0509999010097
76.95 19.0907 4.36929056026262
77 32.8176 5.7286647658944
77.05 37.1412 6.09435804658702
77.1 24.5723 4.95704549101579
77.15 23.7305 4.87139610378791
77.2 25.323 5.03219633957182
77.25 22.021 4.69265383338682
77.3 22.5742 4.75123141932699
77.35 33.0678 5.75046085109707
77.4 40.0624 6.3294865510561
77.45 43.2275 6.57476235311969
77.5 29.5215 5.43336912053654
77.55 18.8333 4.33973501495195
77.6 23.8352 4.88213068239677
77.65 26.9583 5.19213828783479
77.7 30.5306 5.52545020790162
77.75 33.5778 5.79463545013834
77.8 30.1371 5.4897267691571
77.85 27.2908 5.22405972400776
77.9 23.8775 4.8864608869815
77.95 27.3337 5.22816411372099
78 33.5457 5.7918649846142
78.05 27.3906 5.23360296545315
78.1 31.1364 5.58
78.15 31.8519 5.64374875415269
78.2 25.9059 5.08978388539238
78.25 28.6971 5.35696742569898
78.3 27.398 5.23430988765472
78.35 29.4587 5.42758694080528
78.4 25.1465 5.01462860040502
78.45 35.9635 5.99695756196423
78.5 35.417 5.95121836265483
78.55 25.3494 5.03481876535789
78.6 29.9619 5.47374643183259
78.65 24.0065 4.8996428441265
78.7 21.4521 4.6316411778116
78.75 27.4424 5.23854941753917
78.8 34.223 5.85004273488664
78.85 31.334 5.59767809006556
78.9 23.7581 4.87422814402445
78.95 31.5803 5.61963521947822
79 23.5001 4.84769017161782
79.05 37.7203 6.14168543642541
79.1 26.6516 5.16251876509907
79.15 34.0173 5.83243516894959
79.2 23.8466 4.88329806585672
79.25 29.1274 5.39698063735641
79.3 31.6022 5.62158340683477
79.35 26.0335 5.10230340140607
79.4 33.4471 5.7833467819248
79.45 25.3779 5.03764826084553
79.5 34.5618 5.8789284737952
79.55 27.273 5.22235579025405
79.6 22.4624 4.73945144505142
79.65 31.2974 5.59440792220231
79.7 30.3612 5.51009981760766
79.75 26.309 5.1292299616999
79.8 28.2208 5.31232529124488
79.85 15.1065 3.88670811870405
79.9 27.0086 5.19697989220663
79.95 29.7142 5.45107328881203
80 26.5768 5.15526914913276
80.05 25.4044 5.04027777012339
80.1 27.7714 5.26985768308785
80.15 32.6968 5.71811157638604
80.2 29.6922 5.44905496393641
80.25 22.3528 4.72787478683605
80.3 37.1451 6.09467800626087
80.35 24.4557 4.94527046783085
80.4 33.6397 5.79997413787337
80.45 30.134 5.48944441633213
80.5 26.3717 5.13533835302018
80.55 34.9917 5.91537826347563
80.6 26.1865 5.11727466528816
80.65 19.4033 4.40491770638227
80.7 29.1374 5.39790700179245
80.75 35.0041 5.91642628619676
80.8 26.566 5.15422157071269
80.85 30.4383 5.51709162512279
80.9 21.5156 4.63849113397881
80.95 36.0647 6.00538924633533
81 36.8213 6.06805570178785
81.05 38.587 6.21184352668352
81.1 33.4695 5.78528305271229
81.15 24.3195 4.93148050792052
81.2 29.8197 5.4607417078635
81.25 25.3604 5.0359110397226
81.3 29.2934 5.41233775738359
81.35 29.7221 5.45179786859344
81.4 30.1811 5.49373279291958
81.45 29.4859 5.43009208025057
81.5 23.1939 4.81600456810415
81.55 26.5662 5.154240972248
81.6 33.5122 5.78897227493793
81.65 33.5899 5.79567942522704
81.7 39.4048 6.27732427073829
81.75 36.3479 6.02892196001905
81.8 44.2479 6.65190950028637
81.85 45.3231 6.73224331111109
81.9 61.6348 7.85078340040024
81.95 66.3684 8.14668030549868
82 101.8852 10.0938198913989
82.05 120.4294 10.9740329870107
82.1 136.4977 11.68322301422
82.15 129.3703 11.3741065583192
82.2 116.5794 10.797194079945
82.25 101.1612 10.0578924233658
82.3 98.5084 9.92513979750411
82.35 83.6568 9.146409131457
82.4 49.5487 7.03908374719324
82.45 40.9399 6.39842949480574
82.5 44.7177 6.68712942898521
82.55 37.4146 6.11674750173652
82.6 37.5848 6.13064433807736
82.65 38.316 6.1899919224503
82.7 31.0318 5.57061935515253
82.75 36.1296 6.01079029745673
82.8 31.334 5.59767809006556
82.85 30.5714 5.52914098210563
82.9 29.1972 5.40344334660779
82.95 33.3501 5.77495454527566
83 25.6083 5.06046440556596
83.05 24.2522 4.92465227198835
83.1 26.9648 5.19276419645645
83.15 37.1545 6.095449122091
83.2 31.5147 5.61379550749758
83.25 23.609 4.85890934264059
83.3 39.1568 6.25753945253244
83.35 37.4391 6.11874987231869
83.4 27.5873 5.25236137370612
83.45 32.844 5.73096850453743
83.5 27.2836 5.22337055932278
83.55 33.5801 5.79483390616159
83.6 28.0506 5.29628171456164
83.65 31.9124 5.64910612398103
83.7 35.8457 5.98712785899884
83.75 27.1694 5.21242745752879
83.8 35.6738 5.97275480829408
83.85 24.6263 4.96248929469878
83.9 33.9874 5.82987135364066
83.95 24.1252 4.91174103551887
84 27.9692 5.28859149490675
84.05 31.2566 5.59076023452983
84.1 42.1753 6.49425130403806
84.15 36.5322 6.04418729028147
84.2 33.9495 5.82661994641833
84.25 28.0954 5.30050940948132
84.3 43.7675 6.61570102105589
84.35 23.8535 4.88400450450243
84.4 32.5239 5.70297290893092
84.45 30.9639 5.56452154277437
84.5 36.9205 6.07622415649719
84.55 40.1491 6.33633174636556
84.6 23.3259 4.829689431009
84.65 34.9483 5.91170872083529
84.7 33.3065 5.77117838920268
84.75 41.4072 6.43484265541901
84.8 24.7546 4.9753994814487
84.85 35.7823 5.98183082341853
84.9 34.4979 5.8734912956435
84.95 21.4283 4.62907118113342
85 29.9722 5.47468720567669
85.05 27.6387 5.25725213395743
85.1 38.948 6.24083327769618
85.15 29.5517 5.43614753295015
85.2 37.0176 6.08420906938609
85.25 23.1476 4.81119527768308
85.3 25.9555 5.09465406087597
85.35 25.7748 5.07688881107318
85.4 26.3186 5.13016568933207
85.45 19.5986 4.42703060752916
85.5 34.6609 5.8873508473676
85.55 35.5974 5.96635567159719
85.6 22.6048 4.75445054659316
85.65 29.9333 5.47113333780123
85.7 38.3327 6.19134072717695
85.75 32.1503 5.6701234554461
85.8 30.9165 5.56026078525099
85.85 33.3401 5.77408867268247
85.9 28.255 5.31554324599095
85.95 35.4707 5.95572833497298
86 22.4758 4.74086489999451
86.05 26.4006 5.13815141855512
86.1 32.8515 5.73162280684973
86.15 19.1826 4.37979451572788
86.2 27.1328 5.2089154341379
86.25 30.4741 5.52033513475405
86.3 44.0558 6.63745433129298
86.35 30.0454 5.48136844227789
86.4 33.034 5.74752120483257
86.45 23.9251 4.89132906273949
86.5 29.7187 5.45148603593552
86.55 35.9337 5.9944724538528
86.6 31.5904 5.62053378248009
86.65 27.7721 5.26992409812513
86.7 27.0826 5.20409454180072
86.75 26.6367 5.16107546931839
86.8 30.064 5.48306483638485
86.85 30.2556 5.50050906735004
86.9 28.1702 5.30756064496676
86.95 27.9059 5.28260352477829
87 23.6452 4.86263303159924
87.05 26.9194 5.18839088735612
87.1 32.3678 5.68927060351325
87.15 27.5957 5.25316095317857
87.2 24.2127 4.92064020225011
87.25 34.9644 5.91307026848151
87.3 21.8062 4.66971091182313
87.35 29.0959 5.39406154951906
87.4 33.1176 5.75478930978363
87.45 20.4837 4.52589217723975
87.5 29.3619 5.41866219652047
87.55 21.562 4.64349006674936
87.6 26.8159 5.1784070909885
87.65 39.9785 6.32285536763257
87.7 33.0195 5.74625965302648
87.75 19.9285 4.46413485459389
87.8 18.0175 4.24470258086477
87.85 35.0791 5.92276118039551
87.9 34.6949 5.89023768620588
87.95 33.5762 5.79449738976557
88 19.8981 4.4607286400318
88.05 29.928 5.47064895601975
88.1 29.8828 5.46651625809345
88.15 34.9895 5.91519230456627
88.2 19.5239 4.41858574659359
88.25 40.1078 6.33307192442972
88.3 37.7413 6.1433948269666
88.35 24.4274 4.94240831983761
88.4 26.1474 5.11345284519179
88.45 38.1028 6.17274655238655
88.5 22.9362 4.7891752943487
88.55 28.6778 5.35516573039528
88.6 31.8091 5.63995567358468
88.65 29.4178 5.42381784354895
88.7 36.2395 6.01992524870534
88.75 32.8507 5.73155301816183
88.8 39.9805 6.32301352204785
88.85 33.2817 5.76902938110043
88.9 32.7426 5.72211499360158
88.95 36.2612 6.02172732693868
89 30.1295 5.48903452348407
89.05 30.2802 5.50274476965814
89.1 25.4092 5.04075391186676
89.15 27.2316 5.21839055648387
89.2 26.6687 5.16417466784384
89.25 28.4616 5.33494142423326
89.3 28.4824 5.33689048042022
89.35 30.9819 5.56613869751734
89.4 27.1812 5.21355924489211
89.45 22.8056 4.77552091399462
89.5 36.0105 6.00087493620722
89.55 25.9286 5.09201335426371
89.6 30.6004 5.53176282933388
89.65 30.2362 5.49874531143242
89.7 33.0402 5.74806054247865
89.75 27.8547 5.27775520463009
89.8 34.5142 5.87487872215248
89.85 25.108 5.01078836112642
89.9 33.488 5.78688171643416
89.95 30.5833 5.53021699393433
90 27.7247 5.26542495910824
90.05 24.8678 4.98676247679795
90.1 29.5499 5.43598197200837
90.15 32.3225 5.68528803140175
90.2 23.1427 4.81068602176446
90.25 36.478 6.03970197940263
90.3 30.1102 5.48727619133573
90.35 28.6511 5.35267222983063
90.4 29.5224 5.4334519414457
90.45 31.2822 5.59304925778417
90.5 30.3798 5.51178736890312
90.55 23.6317 4.8612446965772
90.6 30.5591 5.52802858169167
90.65 30.9508 5.56334431794402
90.7 37.6037 6.13218558101433
90.75 30.8038 5.55011711588143
90.8 30.7781 5.5478013663072
90.85 33.1956 5.76156228812984
90.9 30.3343 5.50765830457918
90.95 36.4278 6.03554471443962
91 39.096 6.25267942565425
91.05 29.6067 5.4412039109006
91.1 27.7562 5.26841532151747
91.15 31.8677 5.64514835943219
91.2 29.9306 5.47088658262991
91.25 21.7978 4.66881141191203
91.3 21.1506 4.59897814737144
91.35 27.8789 5.28004734827255
91.4 35.5133 5.95930365059543
91.45 35.759 5.97988294199811
91.5 35.6159 5.96790583035624
91.55 29.0541 5.39018552556403
91.6 23.9076 4.88953985565104
91.65 36.2678 6.02227531751912
91.7 23.2372 4.82049789959502
91.75 34.4094 5.8659526080595
91.8 27.4364 5.23797670861565
91.85 22.7338 4.76799748322081
91.9 31.6901 5.62939605996949
91.95 30.3113 5.50556990692153
92 23.4362 4.84109491747476
92.05 35.088 5.92351247149865
92.1 36.3953 6.03285173031793
92.15 29.2014 5.40383197370163
92.2 31.6982 5.63011545174697
92.25 25.2557 5.02550494975381
92.3 18.2698 4.27431865915493
92.35 24.4485 4.9445424459701
92.4 26.0651 5.10539910291056
92.45 25.1614 5.0161140337915
92.5 29.5543 5.43638666763136
92.55 26.2685 5.12528048012984
92.6 31.2645 5.59146671276866
92.65 32.1146 5.66697450144255
92.7 30.8466 5.55397155196171
92.75 23.5015 4.84783456813452
92.8 39.1437 6.25649262766288
92.85 30.851 5.55436765077718
92.9 25.5286 5.05258349757824
92.95 25.2581 5.02574372605687
93 33.5475 5.79202037289235
93.05 46.4138 6.81276742594373
93.1 26.1381 5.11254339834881
93.15 18.2047 4.26669661447823
93.2 24.5594 4.9557441419024
93.25 30.0272 5.47970802141866
93.3 28.4087 5.3299812382409
93.35 25.5464 5.05434466573066
93.4 32.0509 5.66135142876681
93.45 24.3519 4.93476443206765
93.5 27.7326 5.26617508254331
93.55 31.6963 5.6299467137798
93.6 22.6785 4.76219487211517
93.65 36.0865 6.00720400852177
93.7 25.4728 5.04705854929384
93.75 34.3424 5.86023890297998
93.8 27.1779 5.21324275283628
93.85 28.3975 5.3289304743072
93.9 29.4344 5.42534791511107
93.95 30.3721 5.51108882163951
94 31.4189 5.60525646157248
94.05 31.5581 5.61765965505209
94.1 23.8125 4.87980532398578
94.15 27.1168 5.20737937930395
94.2 27.3919 5.23372716140228
94.25 30.9497 5.56324545566704
94.3 22.8182 4.77683995963859
94.35 35.9773 5.99810803503905
94.4 33.0566 5.74948693363156
94.45 26.2672 5.12515365623315
94.5 30.5745 5.52942130787662
94.55 28.6516 5.35271893527019
94.6 42.677 6.53276358059895
94.65 26.7176 5.16890704114516
94.7 27.405 5.23497850998454
94.75 29.5711 5.43793159206697
94.8 27.2196 5.21724064999881
94.85 27.7437 5.26722887294638
94.9 31.5667 5.61842504622069
94.95 17.0894 4.13393275223485
95 29.6745 5.44743058698319
95.05 30.0801 5.48453279687523
95.1 28.8797 5.37398362483549
95.15 33.8445 5.81760259900932
95.2 25.8509 5.08437803472559
95.25 35.6512 5.97086258425029
95.3 30.3331 5.50754936428172
95.35 38.8521 6.23314527345545
95.4 26.0552 5.10442944901778
95.45 34.2365 5.85119645884498
95.5 34.7213 5.89247825621784
95.55 29.3355 5.41622562307
95.6 26.6861 5.16585907666866
95.65 36.6285 6.05214837888167
95.7 41.9414 6.47621803215426
95.75 22.23 4.71487009365051
95.8 29.329 5.41562554096939
95.85 24.7168 4.97159934025259
95.9 36.3453 6.02870632889014
95.95 26.7639 5.17338380559571
96 30.2778 5.5025266923478
96.05 22.9908 4.79487226107224
96.1 32.1503 5.6701234554461
96.15 34.6081 5.88286494830538
96.2 30.5258 5.52501583708137
96.25 30.3414 5.50830282391954
96.3 32.8203 5.72890041805581
96.35 29.7915 5.45815903029584
96.4 31.0804 5.57497982059128
96.45 27.9235 5.28426910745469
96.5 20.4065 4.51735542104006
96.55 27.2414 5.21932945884814
96.6 22.0838 4.69934037924473
96.65 37.6112 6.13279707800609
96.7 31.9393 5.65148653010869
96.75 32.8718 5.73339341053795
96.8 32.7954 5.72672681380909
96.85 26.5024 5.14804817382277
96.9 26.3409 5.13233864821876
96.95 27.5566 5.24943806516469
97 24.756 4.97554017167985
97.05 28.6642 5.35389577784252
97.1 37.3922 6.11491618912312
97.15 21.9745 4.68769666254121
97.2 32.1405 5.66925921086697
97.25 29.7337 5.45286163404134
97.3 35.7649 5.98037624234462
97.35 29.4281 5.42476727611425
97.4 34.7561 5.89543043381906
97.45 27.3384 5.22861358296824
97.5 33.9964 5.83064318922021
97.55 30.7243 5.54295047785924
97.6 43.6233 6.6047937136598
97.65 31.6978 5.63007992838468
97.7 27.9639 5.28809039257084
97.75 31.8624 5.64467891026584
97.8 38.5394 6.20801095359858
97.85 38.0333 6.16711439816062
97.9 24.0279 4.90182619030908
97.95 35.3786 5.94799125755914
98 32.8459 5.7311342681881
98.05 31.3902 5.60269577971176
98.1 29.2421 5.40759650861637
98.15 27.2585 5.22096734331867
98.2 38.6487 6.21680786256098
98.25 46.7946 6.8406578631006
98.3 41.5212 6.4436945923903
98.35 43.7895 6.61736352333767
98.4 42.2253 6.49809972222649
98.45 54.7614 7.40009459399
98.5 48.5128 6.96511306440893
98.55 66.8927 8.17879575487737
98.6 71.1961 8.43777814356362
98.65 80.0722 8.94830710246357
98.7 75.5033 8.68926349007786
98.75 75.6204 8.69599908003675
98.8 69.3713 8.32894351043396
98.85 72.5983 8.52046360241038
98.9 43.321 6.58186903546402
98.95 42.211 6.4969993073726
99 40.0938 6.3319665191787
99.05 46.8122 6.84194416814402
99.1 40.2384 6.34337449627562
99.15 29.9154 5.46949723466426
99.2 42.0847 6.48727215399508
99.25 37.8932 6.15574528387912
99.3 30.922 5.56075534437544
99.35 31.7908 5.63833308700364
99.4 27.3306 5.22786763413153
99.45 29.4282 5.42477649309167
99.5 31.0794 5.57489013344658
99.55 29.6346 5.44376707804439
99.6 28.3662 5.32599286518486
99.65 38.2321 6.18321113985282
99.7 23.361 4.83332183906679
99.75 27.1093 5.20665919760454
99.8 31.2139 5.5869401285498
99.85 28.2423 5.31434850193323
99.9 28.3932 5.32852700096378
99.95 23.2094 4.81761351708499
100 33.3585 5.77568177793756
100.05 28.4142 5.33049716255435
100.1 23.716 4.8699075966593
100.15 26.1728 5.11593588701031
100.2 28.849 5.37112651126372
100.25 30.8106 5.55072968176257
100.3 32.1379 5.66902989937432
100.35 31.9125 5.64911497493191
100.4 23.8194 4.88051226819481
100.45 33.0209 5.74638147010795
100.5 22.7506 4.76975890376023
100.55 32.8873 5.73474498125244
100.6 34.9173 5.90908622377437
100.65 20.1477 4.48861894127804
100.7 25.8383 5.0831387940917
100.75 30.8461 5.55392653894522
100.8 28.9031 5.37616033987083
100.85 27.0474 5.20071148978676
100.9 26.8009 5.17695856657169
100.95 27.34 5.22876658496055
101 21.3838 4.62426210329821
101.05 31.4873 5.61135456017529
101.1 30.0174 5.47881374021786
101.15 31.8856 5.64673356906451
101.2 34.6923 5.89001697790422
101.25 28.9296 5.37862435944359
101.3 36.3957 6.03288488204441
101.35 32.2503 5.67893475926604
101.4 21.3934 4.6252999902709
101.45 28.5885 5.34682148570532
101.5 45.3176 6.73183481674944
101.55 31.1674 5.58277708671948
101.6 23.5972 4.85769492660871
101.65 38.1897 6.17978154953717
101.7 22.8716 4.78242616252462
101.75 38.2739 6.18659033717281
101.8 25.9887 5.09791133700852
101.85 36.4101 6.0340782228937
101.9 35.7568 5.97969898907963
101.95 42.8928 6.54925950012671
102 39.6162 6.29414013190046
102.05 34.1104 5.8404109444456
102.1 22.2266 4.71450951849713
102.15 17.3709 4.16784116779898
102.2 39.0887 6.25209564866054
102.25 31.6761 5.62815244996082
102.3 35.4867 5.95707142814319
102.35 28.3006 5.31983082437778
102.4 30.1992 5.49537987767907
102.45 27.5912 5.25273262216915
102.5 26.2446 5.12294836983548
102.55 36.3012 6.02504771765336
102.6 39.3481 6.27280638948788
102.65 29.005 5.3856290254714
102.7 29.0181 5.38684508780418
102.75 33.359 5.77572506270858
102.8 28.15 5.30565735795292
102.85 30.8896 5.55784130755818
102.9 23.6548 4.8636200509497
102.95 27.8128 5.27378422008334
103 30.6713 5.53816756698459
103.05 31.5146 5.61378660086042
103.1 39.7672 6.30612400766112
103.15 32.4934 5.70029823781177
103.2 34.5903 5.88135188540866
103.25 26.9161 5.18807285993557
103.3 39.4386 6.28001592354669
103.35 29.3362 5.41629024333076
103.4 19.4174 4.40651789965728
103.45 33.7636 5.8106454030512
103.5 39.132 6.25555752910962
103.55 39.8462 6.31238465241148
103.6 32.4046 5.69250384277429
103.65 25.8202 5.08135808618129
103.7 26.5509 5.15275654383166
103.75 47.1751 6.86841320830365
103.8 29.0623 5.39094611362421
103.85 23.4679 4.84436786381877
103.9 33.3141 5.77183679602949
103.95 30.6707 5.53811339717778
104 25.3531 5.03518619318094
104.05 28.2121 5.31150637766726
104.1 24.5046 4.95021211666733
104.15 31.6378 5.62474888328359
104.2 21.1961 4.60392224087245
104.25 27.2135 5.21665601702853
104.3 21.3484 4.62043288015311
104.35 39.9322 6.31919298645009
104.4 31.8761 5.64589231211507
104.45 25.0206 5.00205957581475
104.5 26.5122 5.14899990289376
104.55 16.7143 4.0883126103565
104.6 32.1456 5.66970898724088
104.65 30.1101 5.48726707933922
104.7 24.3812 4.93773227301765
104.75 17.4687 4.1795573928348
104.8 30.8319 5.5526480169375
104.85 24.2486 4.92428675038325
104.9 25.3446 5.03434206227586
104.95 41.8019 6.46543888688154
105 47.26 6.87459089691888
105.05 24.3321 4.93275784931715
105.1 22.3823 4.73099355315562
105.15 19.9874 4.47072701022999
105.2 35.6686 5.97231948241217
105.25 37.5644 6.12898033933867
105.3 29.0725 5.39189206123416
105.35 40.135 6.33521901752418
105.4 40.6214 6.3734919784997
105.45 42.9509 6.55369361505403
105.5 29.8354 5.4621790523563
105.55 37.7231 6.14191338265202
105.6 28.5464 5.34288311681998
105.65 25.309 5.03080510455335
105.7 20.9793 4.58031658294489
105.75 27.7922 5.27183080153375
105.8 30.6103 5.53265758926034
105.85 39.0026 6.24520616152902
105.9 21.4788 4.63452262913884
105.95 24.663 4.96618565903451
106 25.6806 5.06760298366003
106.05 31.3754 5.60137483123563
106.1 25.0796 5.00795367390714
106.15 23.2061 4.81727101168286
106.2 40.7293 6.38195111231667
106.25 28.3716 5.32649978879189
106.3 38.0375 6.16745490457774
106.35 24.3357 4.933122743253
106.4 38.0354 6.16728465371917
106.45 22.8153 4.77653640203861
106.5 27.0842 5.20424826463919
106.55 22.5862 4.75249408205839
106.6 24.2408 4.92349469381252
106.65 24.3665 4.93624351101118
106.7 29.6344 5.44374870838102
106.75 24.4136 4.94101204208207
106.8 26.396 5.13770376724856
106.85 22.99 4.79478883789474
106.9 22.2255 4.71439285592535
106.95 39.5793 6.29120815106288
107 28.1172 5.30256541685249
107.05 21.7678 4.66559749656997
107.1 31.8224 5.64113463764162
107.15 30.1871 5.49427884257798
107.2 26.8 5.17687164221791
107.25 30.3516 5.50922862114108
107.3 35.5978 5.9663891928033
107.35 31.9832 5.6553691303044
107.4 35.4446 5.95353676397484
107.45 31.9147 5.64930969234295
107.5 39.541 6.28816348387985
107.55 32.3006 5.68336168125873
107.6 23.5083 4.84853586147406
107.65 24.0043 4.89941833282279
107.7 30.9735 5.56538408378074
107.75 29.4406 5.42591927695206
107.8 27.5826 5.25191393684245
107.85 25.5866 5.05831987916937
107.9 19.2166 4.38367425797127
107.95 19.7116 4.43977476906205
108 28.8173 5.36817473635127
108.05 30.9659 5.56470124984262
108.1 28.7661 5.36340376999532
108.15 20.1148 4.48495261959366
108.2 33.0448 5.7484606635168
108.25 31.8985 5.64787570684766
108.3 27.5828 5.25193297748553
108.35 28.747 5.36162288864109
108.4 30.5173 5.52424655496114
108.45 27.5212 5.24606519212257
108.5 21.0584 4.5889432334689
108.55 31.6777 5.6282945907264
108.6 28.2596 5.31597592169114
108.65 25.5812 5.05778607693129
108.7 24.1155 4.91075350633688
108.75 27.9848 5.29006616215714
108.8 33.1499 5.75759498401893
108.85 29.2696 5.41013863038647
108.9 33.6907 5.80436904409084
108.95 29.3111 5.41397266339608
109 20.8381 4.56487677818361
109.05 27.0681 5.20270122148101
109.1 22.4286 4.73588428912701
109.15 28.2553 5.31557146504494
109.2 36.3509 6.02917075558488
109.25 31.7069 5.63088802943195
109.3 25.834 5.08271580948611
109.35 36.1536 6.01278637571634
109.4 27.0958 5.20536261945314
109.45 37.3088 6.10809299208845
109.5 35.7049 5.97535772987693
109.55 28.8096 5.36745749866732
109.6 26.7656 5.17354810550748
109.65 24.795 4.97945780180935
109.7 27.5187 5.2458269128899
109.75 26.519 5.14966018296353
109.8 27.1832 5.21375104890903
109.85 30.9253 5.56105205873853
109.9 30.8624 5.55539377542222
109.95 40.7425 6.38298519503218
110 24.9834 4.99833972434848
110.05 26.9308 5.18948937757849
110.1 31.946 5.65207926342156
110.15 19.2454 4.38695794372365
110.2 28.3095 5.32066725138868
110.25 37.8743 6.15420994117035
110.3 26.44 5.14198405287298
110.35 29.8895 5.46712904548631
110.4 24.3115 4.93066932576096
110.45 27.0117 5.19727813379273
110.5 35.0594 5.9210978711722
110.55 23.5163 4.84936078261867
110.6 28.8327 5.36960892430724
110.65 27.543 5.24814252855236
110.7 21.1889 4.60314023249347
110.75 21.6917 4.65743491634612
110.8 29.3321 5.41591174226464
110.85 31.4228 5.60560433851695
110.9 40.5645 6.36902661322749
110.95 29.3978 5.42197381033881
111 34.2019 5.84823905120165
111.05 38.8828 6.23560742831041
111.1 32.5638 5.70647001218792
111.15 27.775 5.27019923722054
111.2 32.7234 5.72043704624044
111.25 27.521 5.24604613018223
111.3 32.544 5.70473487552226
111.35 27.5656 5.25029522979423
111.4 26.5276 5.15049512183052
111.45 19.4603 4.41138300309551
111.5 24.545 4.95429106936603
111.55 32.7891 5.72617673496025
111.6 30.4139 5.51487987176511
111.65 28.7661 5.36340376999532
111.7 30.2886 5.50350797219374
111.75 23.3828 4.83557649096775
111.8 39.1568 6.25753945253244
111.85 27.5618 5.24993333291005
111.9 19.2843 4.39138930180416
111.95 27.1368 5.20929937707558
112 34.8496 5.9033549783153
112.05 34.2439 5.85182877398169
112.1 26.3826 5.13639951717154
112.15 29.8169 5.46048532641559
112.2 30.6762 5.53860993390941
112.25 22.6697 4.76127083875723
112.3 33.6066 5.79711997460808
112.35 30.1488 5.49079229255669
112.4 33.9628 5.82776114815973
112.45 31.6345 5.62445552920458
112.5 24.1749 4.9167977383659
112.55 26.1375 5.11248471880357
112.6 28.5285 5.34120772859472
112.65 25.5314 5.05286057595101
112.7 35.3711 5.94736075919395
112.75 38.3287 6.19101768693968
112.8 42.4174 6.51286419327165
112.85 25.8328 5.08259776098798
112.9 28.9769 5.38301959870109
112.95 31.1136 5.57795661510557
113 25.9778 5.09684215961216
113.05 29.7204 5.45164195449408
113.1 23.536 4.85139155294643
113.15 26.8429 5.1810134143814
113.2 24.0542 4.90450813028177
113.25 34.1092 5.84030821104503
113.3 35.4924 5.95754983193594
113.35 30.321 5.50645076251482
113.4 24.3837 4.93798541917653
113.45 30.1437 5.4903278590627
113.5 34.3172 5.85808842541661
113.55 31.7998 5.63913113874824
113.6 27.2309 5.21832348556507
113.65 28.6749 5.35489495695294
113.7 35.0585 5.92102187126513
113.75 23.3503 4.83221481310589
113.8 36.5353 6.04444372957512
113.85 26.1423 5.11295413630907
113.9 45.9966 6.78207932716803
113.95 27.01 5.19711458407451
114 35.3533 5.94586410877343
114.05 25.1757 5.01753923751474
114.1 34.2794 5.85486122807364
114.15 18.7657 4.33193951943007
114.2 37.3744 6.11346055847259
114.25 31.3847 5.60220492306378
114.3 21.4744 4.63404790652837
114.35 31.2563 5.59073340448281
114.4 34.4112 5.86610603381835
114.45 34.279 5.85482706832576
114.5 29.0002 5.38518337663631
114.55 36.7739 6.06414874487755
114.6 21.8436 4.67371372679158
114.65 31.3195 5.59638276031938
114.7 38.005 6.1648195431821
114.75 27.1134 5.20705290927603
114.8 35.3459 5.94524179491465
114.85 33.811 5.81472269330189
114.9 33.0789 5.7514259101548
114.95 28.7924 5.3658550110863
115 28.7208 5.35917904160703
115.05 31.9903 5.655996817538
115.1 31.5828 5.61985764944273
115.15 47.2803 6.8760671898986
115.2 32.6076 5.7103064716353
115.25 39.8123 6.30969888346504
115.3 43.8753 6.62384329524786
115.35 30.5868 5.53053342816043
115.4 51.583 7.182130603101
115.45 38.7725 6.22675678021874
115.5 53.6881 7.32721638823367
115.55 45.7983 6.76744412610847
115.6 49.525 7.03740008810072
115.65 37.1398 6.09424318517074
115.7 62.837 7.92697924811211
115.75 54.3836 7.37452371343397
115.8 54.6573 7.39305755421936
115.85 45.757 6.76439206433217
115.9 73.3778 8.56608428630025
115.95 49.9747 7.06927860534581
116 67.2241 8.19903043048384
116.05 60.2932 7.76486960611703
116.1 70.8192 8.41541442829763
116.15 61.5573 7.84584603468613
116.2 59.0194 7.68240847651308
116.25 39.8239 6.31061803629407
116.3 50.4601 7.10352729283136
116.35 60.577 7.78312276660211
116.4 49.5823 7.04147001697799
116.45 46.0057 6.78275017968375
116.5 48.65 6.97495519698872
116.55 43.4041 6.58817880753096
116.6 39.5382 6.28794083941635
116.65 39.7907 6.30798700062072
116.7 35.3464 5.94528384520033
116.75 29.685 5.44839425886196
116.8 33.4897 5.78702859851237
116.85 28.4576 5.33456652409547
116.9 35.5479 5.96220596759287
116.95 32.8921 5.73516346759183
117 36.3807 6.03164156759998
117.05 24.9011 4.9901001993948
117.1 23.6266 4.86072011125924
117.15 37.3518 6.11161189867289
117.2 36.2812 6.02338775109157
117.25 31.41 5.60446250768082
117.3 29.2326 5.40671804332351
117.35 29.0272 5.38768967183523
117.4 27.3604 5.2307169680647
117.45 38.8756 6.2350300721007
117.5 32.8299 5.72973821391519
117.55 28.7786 5.36456894820078
117.6 30.8845 5.55738247738987
117.65 25.6175 5.06137333141905
117.7 30.9147 5.56009891998335
117.75 34.956 5.91235993491601
117.8 41.0294 6.40541958032415
117.85 33.9712 5.82848179202784
117.9 34.8473 5.90316017062048
117.95 39.3038 6.26927428016992
118 30.9608 5.5642429853485
118.05 25.7414 5.07359832860269
118.1 45.3834 6.73672027027989
118.15 37.2794 6.10568587465815
118.2 39.5849 6.29165320086859
118.25 28.0193 5.29332598656081
118.3 26.5062 5.14841723250942
118.35 26.5964 5.15716976645136
118.4 39.6853 6.29962697308341
118.45 30.6464 5.53591907455302
118.5 30.7968 5.54948646272788
118.55 27.7496 5.26778890996972
118.6 21.1036 4.59386547473911
118.65 37.8859 6.15515231330631
118.7 23.9468 4.89354677100362
118.75 31.1005 5.57678222633805
118.8 32.6595 5.71484907937209
118.85 27.4698 5.24116399285502
118.9 32.8912 5.73508500372924
118.95 26.1458 5.11329639273923
119 29.658 5.4459159009298
119.05 31.3475 5.59888381733359
119.1 28.9874 5.38399479940313
119.15 25.9415 5.09327988628153
119.2 21.7026 4.65860494139608
119.25 30.49 5.52177507691141
119.3 23.0786 4.80401915066957
119.35 27.2593 5.2210439569113
119.4 22.5155 4.74505005242305
119.45 27.6432 5.25768009677272
119.5 28.5978 5.34769109055488
119.55 35.3762 5.94778950535407
119.6 27.9594 5.28766489104595
119.65 33.7289 5.80765873653058
119.7 33.8478 5.81788621408154
119.75 25.7687 5.07628801389362
119.8 25.4911 5.04887116096262
119.85 22.2742 4.71955506377455
119.9 39.7933 6.30819308518691
119.95 32.999 5.74447560705066
120 30.1884 5.49439714618447
120.05 37.766 6.14540478731873
120.1 21.4606 4.63255868824131
120.15 24.7242 4.97234351186641
120.2 31.9061 5.6485484861157
120.25 28.7016 5.35738742298893
120.3 35.768 5.98063541774618
120.35 34.4003 5.86517689417804
120.4 27.1099 5.20671681580629
120.45 29.0092 5.38601893795408
120.5 35.0581 5.92098809321552
120.55 29.139 5.39805520534942
120.6 42.8076 6.54275171468397
120.65 22.6898 4.76338115208095
120.7 29.3984 5.42202914046024
120.75 32.067 5.66277317221871
120.8 34.4497 5.8693866800544
120.85 33.4432 5.78300959708697
120.9 34.0621 5.83627449662882
120.95 23.1108 4.80736934299831
121 37.1381 6.09410370768335
121.05 30.1419 5.49016393197872
121.1 41.2751 6.42457002452304
121.15 29.6901 5.44886226656538
121.2 39.175 6.25899352931444
121.25 47.0231 6.85733913409567
121.3 27.9437 5.28618009530512
121.35 23.6103 4.85904311567617
121.4 22.6807 4.76242585244117
121.45 40.6551 6.37613519304602
121.5 32.8817 5.73425670858918
121.55 27.2516 5.2203065044114
121.6 26.06 5.10489960724009
121.65 30.5408 5.52637313253457
121.7 27.1518 5.21073891113343
121.75 38.0932 6.17196889169088
121.8 36.7441 6.06169118316003
121.85 26.2468 5.12316308543853
121.9 27.3346 5.22825018529144
121.95 31.3422 5.59841048870123
122 27.8875 5.28086167211375
122.05 34.0835 5.83810757009495
122.1 24.0979 4.90896119357242
122.15 26.8836 5.18493972964007
122.2 24.6966 4.96956738559807
122.25 24.3978 4.93941292058074
122.3 28.9314 5.37879168587147
122.35 24.4264 4.94230715354681
122.4 31.1286 5.57930103149131
122.45 34.0013 5.8310633678601
122.5 33.177 5.75994791643119
122.55 34.751 5.89499787955857
122.6 33.8592 5.81886586887857
122.65 22.607 4.75468190313506
122.7 27.1374 5.20935696607556
122.75 14.7435 3.83972655276388
122.8 24.0333 4.90237697448901
122.85 36.8151 6.06754480823998
122.9 37.0123 6.08377350005735
122.95 30.7454 5.54485346965995
123 22.5458 4.74824177985915
123.05 34.4369 5.86829617521134
123.1 27.5274 5.24665607792239
123.15 37.155 6.09549013615804
123.2 31.1323 5.57963260439251
123.25 27.2275 5.2179977002678
123.3 27.0982 5.20559314583843
123.35 24.061 4.90520132104687
123.4 35.1475 5.92853270211104
123.45 34.5771 5.88022958735456
123.5 26.2534 5.1238071782611
123.55 33.657 5.80146533213808
123.6 28.6978 5.35703276077345
123.65 33.0113 5.74554610111171
123.7 21.023 4.58508451394301
123.75 20.6821 4.54775768923543
123.8 25.8079 5.08014763564997
123.85 20.1256 4.48615648411867
123.9 26.9594 5.19224421613622
123.95 32.3372 5.68658069493435
124 29.3606 5.41854223938505
124.05 26.3226 5.13055552547675
124.1 38.3105 6.18954764098314
124.15 30.9073 5.55943342436979
124.2 32.5154 5.70222763488095
124.25 29.7796 5.45706881026802
124.3 28.347 5.32419007925149
124.35 33.5511 5.79233113694305
124.4 33.2563 5.76682755074226
124.45 22.7845 4.77331121968807
124.5 21.9649 4.68667259364253
124.55 26.5638 5.15400814900404
124.6 23.1829 4.81486240717219
124.65 36.0042 6.00034998979226
124.7 23.9173 4.89053166843851
124.75 29.3105 5.41391725093762
124.8 19.3202 4.39547494589606
124.85 30.9933 5.56716265255471
124.9 34.5839 5.88080776764553
124.95 42.2307 6.49851521503181
125 29.7877 5.45781091647558
125.05 30.4654 5.5195470828683
125.1 31.3691 5.60081244106603
125.15 27.0175 5.19783608821979
125.2 27.7883 5.27146089808129
125.25 31.7148 5.63158947367437
125.3 33.3601 5.77582028806299
125.35 28.4553 5.33435094458548
125.4 32.6989 5.71829520049464
125.45 38.2369 6.1835992755029
125.5 21.8364 4.67294339790244
125.55 28.5755 5.3456056719515
125.6 30.9371 5.56211290787952
125.65 29.8047 5.45936809530187
125.7 33.7662 5.81086912604302
125.75 28.434 5.33235407676572
125.8 39.0857 6.25185572450293
125.85 30.9 5.55877684387492
125.9 28.7928 5.36589228367473
125.95 22.2436 4.71631211859436
126 29.1828 5.40211069860661
126.05 36.6524 6.05412256235369
126.1 30.1637 5.49214894189879
126.15 43.7875 6.61721240402634
126.2 41.2272 6.42084106640244
126.25 32.7142 5.71963285535007
126.3 35.038 5.91929049802424
126.35 24.8497 4.98494734174795
126.4 30.3989 5.51351974694931
126.45 33.7499 5.80946641267509
126.5 30.9766 5.56566258409545
126.55 25.6488 5.06446443367904
126.6 19.7951 4.44916846163415
126.65 23.6886 4.86709358858036
126.7 30.4921 5.52196522987967
126.75 21.8865 4.67830097364417
126.8 35.6876 5.9739099424079
126.85 19.5554 4.42214879894379
126.9 27.888 5.2809090126606
126.95 37.2122 6.10018032520351
127 25.3326 5.03315010704032
127.05 29.1828 5.40211069860661
127.1 23.3568 4.83288733574454
127.15 38.2102 6.18143996169177
127.2 29.2873 5.41177420075893
127.25 29.7607 5.4553368365299
127.3 27.1686 5.21235071728678
127.35 30.702 5.54093854865762
127.4 36.2843 6.02364507586561
127.45 26.7754 5.17449514445612
127.5 35.2111 5.93389416825073
127.55 28.2422 5.31433909343391
127.6 28.3986 5.32903368351149
127.65 29.1487 5.39895360231962
127.7 24.2615 4.92559641058827
127.75 32.7333 5.72130229930214
127.8 25.5028 5.05002970288294
127.85 28.1185 5.30268799761027
127.9 26.4908 5.14692140993041
127.95 33.4485 5.78346781784078
128 37.4271 6.11776920126936
128.05 23.1374 4.8101351332369
128.1 39.2891 6.26810178602741
128.15 22.3641 4.72906967595107
128.2 32.6588 5.71478783508189
128.25 29.3541 5.41794241386894
128.3 37.5068 6.12427954946539
128.35 23.9618 4.89507916177052
128.4 23.0138 4.79727005702201
128.45 32.7167 5.71985139667107
128.5 32.7432 5.72216742152832
128.55 34.5116 5.87465743682132
128.6 25.1439 5.01436935217182
128.65 30.8361 5.55302620199113
128.7 33.1641 5.75882800576645
128.75 21.7739 4.66625117197949
128.8 20.0551 4.47829208515925
128.85 29.8 5.45893762558247
128.9 27.824 5.27484596931512
128.95 37.0015 6.08288582828907
129 28.5876 5.34673732289141
129.05 36.264 6.02195981388119
129.1 33.463 5.78472125516865
129.15 31.2826 5.59308501633937
129.2 24.0912 4.90827872069221
129.25 23.5793 4.85585213942929
129.3 25.138 5.0137810083808
129.35 35.962 5.99683249724386
129.4 34.8788 5.90582763040033
129.45 21.3938 4.62534323050733
129.5 28.8312 5.36946924751413
129.55 31.9416 5.65169001273071
129.6 24.7985 4.97980923329398
129.65 24.8135 4.98131508740413
129.7 26.4077 5.13884228207093
129.75 32.2213 5.67638088926386
129.8 34.2723 5.85425486291808
129.85 25.9606 5.09515456095298
129.9 17.4868 4.18172213328432
129.95 33.339 5.77399341877006
130 26.4511 5.1430632895192
130 26.4511 5.1430632895192
