40.0000 35.7513
40.0500 27.8124
40.1000 33.3057
40.1500 43.6040
40.2000 39.6789
40.2500 29.0166
40.3000 47.0008
40.3500 40.2043
40.4000 48.8365
40.4500 37.7487
40.5000 45.1100
40.5500 39.7330
40.6000 38.8857
40.6500 44.6445
40.7000 37.9716
40.7500 39.7860
40.8000 39.8725
40.8500 33.9419
40.9000 34.9390
40.9500 35.7616
41.0000 37.8212
41.0500 28.0221
41.1000 45.6919
41.1500 33.5047
41.2000 40.2128
41.2500 36.7430
41.3000 42.4488
41.3500 35.8084
41.4000 24.4025
41.4500 32.2736
41.5000 32.7526
41.5500 32.3617
41.6000 36.7348
41.6500 29.3242
41.7000 36.2158
41.7500 25.3882
41.8000 37.5206
41.8500 42.4013
41.9000 37.2089
41.9500 42.0264
42.0000 41.3039
42.0500 43.4000
42.1000 32.3544
42.1500 32.3370
42.2000 30.9037
42.2500 33.4249
42.3000 37.7864
42.3500 38.0956
42.4000 45.8200
42.4500 49.9409
42.5000 32.4241
42.5500 34.3285
42.6000 40.5093
42.6500 40.1913
42.7000 30.2416
42.7500 36.9278
42.8000 29.9780
42.8500 35.7435
42.9000 32.3486
42.9500 38.7319
43.0000 28.8372
43.0500 33.1034
43.1000 32.7966
43.1500 37.8975
43.2000 38.3961
43.2500 34.8793
43.3000 41.2576
43.3500 35.4592
43.4000 32.6799
43.4500 36.9683
43.5000 31.5727
43.5500 31.2618
43.6000 39.6785
43.6500 36.5252
43.7000 41.8051
43.7500 45.5210
43.8000 32.4713
43.8500 39.4062
43.9000 35.4304
43.9500 41.9707
44.0000 33.0128
44.0500 43.1857
44.1000 58.3227
44.1500 49.6885
44.2000 68.9944
44.2500 82.1281
44.3000 92.7992
44.3500 145.7984
44.4000 195.8862
44.4500 384.1321
44.5000 671.6640
44.5500 1029.3267
44.6000 1296.6406
44.6500 1127.7477
44.7000 733.8881
44.7500 341.7922
44.8000 162.7043
44.8500 106.8943
44.9000 74.0375
44.9500 60.9656
45.0000 38.5067
45.0500 45.6800
45.1000 43.7203
45.1500 34.9017
45.2000 30.1415
45.2500 37.5980
45.3000 42.0903
45.3500 49.8120
45.4000 48.0788
45.4500 36.9736
45.5000 30.7851
45.5500 35.4401
45.6000 38.0777
45.6500 39.4954
45.7000 34.9515
45.7500 29.3189
45.8000 48.2149
45.8500 31.5273
45.9000 32.6702
45.9500 27.9923
46.0000 32.8117
46.0500 34.9856
46.1000 33.3089
46.1500 24.9094
46.2000 56.7959
46.2500 41.2407
46.3000 35.3517
46.3500 38.0534
46.4000 26.8436
46.4500 26.6420
46.5000 32.4524
46.5500 30.3361
46.6000 27.6405
46.6500 39.8099
46.7000 37.9357
46.7500 34.3337
46.8000 40.1740
46.8500 35.1681
46.9000 31.6383
46.9500 31.8841
47.0000 30.9062
47.0500 28.3384
47.1000 40.3644
47.1500 40.6099
47.2000 27.8974
47.2500 32.0591
47.3000 41.7535
47.3500 33.1747
47.4000 23.1993
47.4500 26.8902
47.5000 32.1362
47.5500 30.1610
47.6000 30.3247
47.6500 29.6852
47.7000 36.3329
47.7500 29.6536
47.8000 34.6283
47.8500 29.8090
47.9000 26.8299
47.9500 34.2372
48.0000 37.2592
48.0500 27.1022
48.1000 28.6279
48.1500 36.4289
48.2000 31.1261
48.2500 30.5420
48.3000 42.3912
48.3500 25.0275
48.4000 33.2329
48.4500 25.8128
48.5000 30.8788
48.5500 26.5751
48.6000 33.7954
48.6500 31.1263
48.7000 31.1952
48.7500 41.5056
48.8000 31.5156
48.8500 28.8639
48.9000 32.5916
48.9500 29.1725
49.0000 32.4013
49.0500 47.7006
49.1000 33.9135
49.1500 37.0792
49.2000 33.1603
49.2500 27.6216
49.3000 35.9273
49.3500 39.9487
49.4000 42.3413
49.4500 42.3284
49.5000 21.3045
49.5500 30.8350
49.6000 30.7486
49.6500 26.1930
49.7000 35.4175
49.7500 38.8470
49.8000 26.7643
49.8500 37.6654
49.9000 31.0963
49.9500 31.2172
50.0000 35.8137
50.0500 30.6031
50.1000 38.1013
50.1500 34.8311
50.2000 26.0939
50.2500 34.1449
50.3000 39.4498
50.3500 33.6790
50.4000 52.9223
50.4500 28.6434
50.5000 31.9059
50.5500 30.0668
50.6000 25.8589
50.6500 22.7012
50.7000 29.6551
50.7500 32.6970
50.8000 34.9488
50.8500 39.0847
50.9000 24.8127
50.9500 41.8669
51.0000 20.6530
51.0500 26.8232
51.1000 28.2280
51.1500 35.2963
51.2000 33.4654
51.2500 30.3096
51.3000 31.0741
51.3500 36.5384
51.4000 27.1092
51.4500 28.1092
51.5000 39.9288
51.5500 39.8125
51.6000 32.0827
51.6500 29.9113
51.7000 37.7805
51.7500 35.0768
51.8000 33.2024
51.8500 31.3326
51.9000 30.9546
51.9500 32.5172
52.0000 34.3183
52.0500 38.1175
52.1000 24.1692
52.1500 31.9594
52.2000 14.9076
52.2500 31.3282
52.3000 26.4091
52.3500 30.2476
52.4000 30.8340
52.4500 30.9634
52.5000 41.2778
52.5500 26.7338
52.6000 35.2165
52.6500 31.0891
52.7000 32.1526
52.7500 30.3683
52.8000 30.8225
52.8500 42.2785
52.9000 28.3489
52.9500 41.2484
53.0000 33.9183
53.0500 30.3135
53.1000 37.2271
53.1500 31.7736
53.2000 27.4638
53.2500 34.0459
53.3000 35.7707
53.3500 25.9088
53.4000 24.5552
53.4500 38.9919
53.5000 32.8547
53.5500 28.1740
53.6000 32.1810
53.6500 28.9380
53.7000 38.2635
53.7500 35.2006
53.8000 32.1217
53.8500 32.3515
53.9000 28.8942
53.9500 32.4603
54.0000 28.8415
54.0500 27.0827
54.1000 25.0138
54.1500 30.5457
54.2000 33.3785
54.2500 31.3304
54.3000 32.7687
54.3500 24.9539
54.4000 37.2173
54.4500 40.1425
54.5000 30.2349
54.5500 30.5061
54.6000 39.6575
54.6500 30.0118
54.7000 27.0099
54.7500 40.8148
54.8000 29.2384
54.8500 29.7901
54.9000 35.5928
54.9500 39.0015
55.0000 36.6172
55.0500 32.2139
55.1000 32.0769
55.1500 24.8464
55.2000 33.7918
55.2500 27.9587
55.3000 31.6822
55.3500 26.0164
55.4000 36.7375
55.4500 26.8933
55.5000 31.3372
55.5500 26.9693
55.6000 29.7985
55.6500 38.8932
55.7000 39.7432
55.7500 41.0438
55.8000 33.9668
55.8500 32.3765
55.9000 37.3069
55.9500 38.5272
56.0000 26.3266
56.0500 42.5789
56.1000 30.6293
56.1500 44.5172
56.2000 27.4684
56.2500 29.9458
56.3000 30.8451
56.3500 26.6108
56.4000 25.9593
56.4500 37.7120
56.5000 23.8558
56.5500 36.0814
56.6000 26.9164
56.6500 33.2366
56.7000 35.7735
56.7500 29.7467
56.8000 29.0501
56.8500 35.1989
56.9000 30.8904
56.9500 38.1222
57.0000 34.4175
57.0500 31.8791
57.1000 27.8594
57.1500 23.6243
57.2000 37.6394
57.2500 28.8851
57.3000 30.8474
57.3500 31.7365
57.4000 34.1827
57.4500 27.6401
57.5000 34.3830
57.5500 37.6876
57.6000 28.4172
57.6500 27.0055
57.7000 36.9548
57.7500 32.3240
57.8000 41.5495
57.8500 25.8451
57.9000 25.3139
57.9500 32.3120
58.0000 32.8586
58.0500 33.0643
58.1000 26.0640
58.1500 22.9023
58.2000 33.5287
58.2500 31.5388
58.3000 23.6540
58.3500 36.8512
58.4000 26.7129
58.4500 25.1529
58.5000 39.3168
58.5500 28.3056
58.6000 29.4649
58.6500 30.0441
58.7000 30.8874
58.7500 30.0710
58.8000 20.9554
58.8500 23.5247
58.9000 23.6052
58.9500 32.4062
59.0000 23.5666
59.0500 36.0488
59.1000 21.8841
59.1500 39.3927
59.2000 22.5506
59.2500 28.3344
59.3000 33.9530
59.3500 28.0074
59.4000 49.9019
59.4500 26.2561
59.5000 21.7721
59.5500 34.8459
59.6000 20.9195
59.6500 21.1490
59.7000 32.2364
59.7500 21.6358
59.8000 30.0564
59.8500 26.3289
59.9000 26.0153
59.9500 21.7891
60.0000 39.4171
60.0500 35.8491
60.1000 31.0056
60.1500 35.0116
60.2000 33.2971
60.2500 30.3303
60.3000 26.2863
60.3500 35.0762
60.4000 36.8164
60.4500 20.8321
60.5000 27.2570
60.5500 34.5821
60.6000 24.6815
60.6500 25.7916
60.7000 32.0896
60.7500 22.3185
60.8000 29.6256
60.8500 40.6115
60.9000 34.9611
60.9500 36.1427
61.0000 29.9413
61.0500 30.2179
61.1000 36.1775
61.1500 20.8506
61.2000 30.7426
61.2500 37.6203
61.3000 31.0834
61.3500 30.1803
61.4000 26.3021
61.4500 35.2643
61.5000 39.1231
61.5500 32.3637
61.6000 24.2289
61.6500 29.7470
61.7000 33.2635
61.7500 38.9357
61.8000 35.0353
61.8500 20.6225
61.9000 34.5546
61.9500 26.2416
62.0000 25.4000
62.0500 32.4600
62.1000 25.4868
62.1500 29.5012
62.2000 31.8108
62.2500 30.4076
62.3000 33.3116
62.3500 31.5653
62.4000 37.6418
62.4500 29.0334
62.5000 29.8384
62.5500 31.9846
62.6000 22.4879
62.6500 31.9240
62.7000 30.3020
62.7500 27.4764
62.8000 32.6766
62.8500 39.0642
62.9000 27.4699
62.9500 39.5411
63.0000 33.4402
63.0500 34.6703
63.1000 25.1677
63.1500 26.1824
63.2000 31.6850
63.2500 27.2090
63.3000 35.7416
63.3500 24.9382
63.4000 32.5497
63.4500 33.7823
63.5000 30.7997
63.5500 35.7514
63.6000 29.5730
63.6500 28.6674
63.7000 25.0406
63.7500 26.2163
63.8000 26.6402
63.8500 23.1290
63.9000 22.1917
63.9500 36.1319
64.0000 29.6122
64.0500 30.0266
64.1000 35.2628
64.1500 26.3847
64.2000 27.3255
64.2500 31.7609
64.3000 39.9187
64.3500 34.1240
64.4000 41.3012
64.4500 38.8297
64.5000 53.3835
64.5500 59.7337
64.6000 86.9432
64.6500 85.2980
64.7000 115.5176
64.7500 153.3651
64.8000 140.5004
64.8500 172.9448
64.9000 202.5759
64.9500 192.9275
65.0000 152.0127
65.0500 120.4264
65.1000 105.3911
65.1500 71.8336
65.2000 57.7928
65.2500 61.6551
65.3000 42.8541
65.3500 33.1069
65.4000 34.8873
65.4500 31.7185
65.5000 33.6885
65.5500 41.4134
65.6000 40.1252
65.6500 29.6639
65.7000 28.2186
65.7500 30.7077
65.8000 36.8256
65.8500 38.1372
65.9000 28.3354
65.9500 29.6052
66.0000 41.2195
66.0500 31.1085
66.1000 31.3383
66.1500 21.6790
66.2000 34.3138
66.2500 24.8319
66.3000 20.7040
66.3500 31.5940
66.4000 47.4917
66.4500 29.6630
66.5000 41.3971
66.5500 33.4343
66.6000 22.3277
66.6500 42.9936
66.7000 34.2689
66.7500 39.7931
66.8000 33.5971
66.8500 38.8970
66.9000 30.5015
66.9500 34.9516
67.0000 33.7762
67.0500 34.4401
67.1000 33.3125
67.1500 40.5114
67.2000 29.6025
67.2500 28.8740
67.3000 23.9591
67.3500 28.2035
67.4000 31.6863
67.4500 39.5832
67.5000 35.7262
67.5500 29.6174
67.6000 20.1669
67.6500 31.0503
67.7000 39.0318
67.7500 44.3349
67.8000 29.4721
67.8500 38.1786
67.9000 39.7186
67.9500 30.7108
68.0000 36.9792
68.0500 28.4284
68.1000 31.3315
68.1500 32.6610
68.2000 25.5896
68.2500 30.2593
68.3000 31.7688
68.3500 22.6064
68.4000 21.0183
68.4500 27.6115
68.5000 31.1249
68.5500 36.6847
68.6000 29.6738
68.6500 30.7252
68.7000 28.9883
68.7500 28.4575
68.8000 26.0603
68.8500 29.2470
68.9000 42.8133
68.9500 30.1978
69.0000 21.4788
69.0500 29.6737
69.1000 30.3992
69.1500 29.0153
69.2000 28.1641
69.2500 26.0047
69.3000 29.4569
69.3500 27.5069
69.4000 31.5020
69.4500 20.0880
69.5000 28.2258
69.5500 25.6754
69.6000 38.5221
69.6500 35.6819
69.7000 21.3928
69.7500 22.3103
69.8000 22.3937
69.8500 34.3311
69.9000 26.9850
69.9500 25.5893
70.0000 19.6229
70.0500 35.7085
70.1000 24.8075
70.1500 31.4424
70.2000 27.4019
70.2500 36.2483
70.3000 29.5109
70.3500 24.0459
70.4000 21.0488
70.4500 37.8123
70.5000 37.3351
70.5500 24.4884
70.6000 42.1743
70.6500 35.4281
70.7000 18.6720
70.7500 19.8216
70.8000 25.9222
70.8500 34.4737
70.9000 30.1948
70.9500 22.4865
71.0000 37.1990
71.0500 25.1277
71.1000 24.8409
71.1500 37.9055
71.2000 27.8209
71.2500 24.5490
71.3000 31.7864
71.3500 23.5279
71.4000 22.7875
71.4500 38.4347
71.5000 23.6305
71.5500 28.6916
71.6000 41.5033
71.6500 33.1882
71.7000 29.2291
71.7500 31.9454
71.8000 26.1397
71.8500 29.7498
71.9000 36.2833
71.9500 31.1674
72.0000 30.6196
72.0500 24.5420
72.1000 22.4718
72.1500 30.6308
72.2000 33.7547
72.2500 32.6359
72.3000 30.2798
72.3500 30.1689
72.4000 27.8917
72.4500 29.9075
72.5000 30.5877
72.5500 28.4425
72.6000 26.9036
72.6500 21.4155
72.7000 30.5353
72.7500 24.1507
72.8000 23.5087
72.8500 36.9897
72.9000 35.5267
72.9500 24.1694
73.0000 33.5215
73.0500 26.9740
73.1000 20.7900
73.1500 39.2170
73.2000 18.3630
73.2500 29.4406
73.3000 31.3509
73.3500 33.2161
73.4000 40.6567
73.4500 45.0463
73.5000 24.7490
73.5500 28.8994
73.6000 26.9629
73.6500 20.6570
73.7000 23.4077
73.7500 23.7433
73.8000 28.3140
73.8500 43.8754
73.9000 18.3241
73.9500 36.8931
74.0000 27.8348
74.0500 26.5733
74.1000 26.8319
74.1500 25.7566
74.2000 17.1450
74.2500 35.1148
74.3000 24.6456
74.3500 37.8426
74.4000 32.8779
74.4500 32.3832
74.5000 22.6557
74.5500 21.1454
74.6000 25.6752
74.6500 25.0611
74.7000 30.7618
74.7500 32.7171
74.8000 36.1734
74.8500 38.9710
74.9000 28.8931
74.9500 22.8074
75.0000 34.1997
75.0500 24.4123
75.1000 29.6884
75.1500 37.5334
75.2000 33.0236
75.2500 39.2820
75.3000 22.7225
75.3500 36.0635
75.4000 27.5428
75.4500 39.0751
75.5000 36.5654
75.5500 35.9157
75.6000 29.6682
75.6500 23.5313
75.7000 22.3487
75.7500 26.8522
75.8000 40.5860
75.8500 34.9622
75.9000 24.1310
75.9500 29.9982
76.0000 22.3329
76.0500 34.2174
76.1000 29.5554
76.1500 27.1554
76.2000 31.8356
76.2500 31.5729
76.3000 27.7778
76.3500 20.2960
76.4000 30.3608
76.4500 24.4446
76.5000 26.2308
76.5500 31.5716
76.6000 42.4408
76.6500 21.6585
76.7000 35.4218
76.7500 20.9355
76.8000 28.4623
76.8500 29.3846
76.9000 25.5126
76.9500 19.0907
77.0000 32.8176
77.0500 37.1412
77.1000 24.5723
77.1500 23.7305
77.2000 25.3230
77.2500 22.0210
77.3000 22.5742
77.3500 33.0678
77.4000 40.0624
77.4500 43.2275
77.5000 29.5215
77.5500 18.8333
77.6000 23.8352
77.6500 26.9583
77.7000 30.5306
77.7500 33.5778
77.8000 30.1371
77.8500 27.2908
77.9000 23.8775
77.9500 27.3337
78.0000 33.5457
78.0500 27.3906
78.1000 31.1364
78.1500 31.8519
78.2000 25.9059
78.2500 28.6971
78.3000 27.3980
78.3500 29.4587
78.4000 25.1465
78.4500 35.9635
78.5000 35.4170
78.5500 25.3494
78.6000 29.9619
78.6500 24.0065
78.7000 21.4521
78.7500 27.4424
78.8000 34.2230
78.8500 31.3340
78.9000 23.7581
78.9500 31.5803
79.0000 23.5001
79.0500 37.7203
79.1000 26.6516
79.1500 34.0173
79.2000 23.8466
79.2500 29.1274
79.3000 31.6022
79.3500 26.0335
79.4000 33.4471
79.4500 25.3779
79.5000 34.5618
79.5500 27.2730
79.6000 22.4624
79.6500 31.2974
79.7000 30.3612
79.7500 26.3090
79.8000 28.2208
79.8500 15.1065
79.9000 27.0086
79.9500 29.7142
80.0000 26.5768
80.0500 25.4044
80.1000 27.7714
80.1500 32.6968
80.2000 29.6922
80.2500 22.3528
80.3000 37.1451
80.3500 24.4557
80.4000 33.6397
80.4500 30.1340
80.5000 26.3717
80.5500 34.9917
80.6000 26.1865
80.6500 19.4033
80.7000 29.1374
80.7500 35.0041
80.8000 26.5660
80.8500 30.4383
80.9000 21.5156
80.9500 36.0647
81.0000 36.8213
81.0500 38.5870
81.1000 33.4695
81.1500 24.3195
81.2000 29.8197
81.2500 25.3604
81.3000 29.2934
81.3500 29.7221
81.4000 30.1811
81.4500 29.4859
81.5000 23.1939
81.5500 26.5662
81.6000 33.5122
81.6500 33.5899
81.7000 39.4048
81.7500 36.3479
81.8000 44.2479
81.8500 45.3231
81.9000 61.6348
81.9500 66.3684
82.0000 101.8852
82.0500 120.4294
82.1000 136.4977
82.1500 129.3703
82.2000 116.5794
82.2500 101.1612
82.3000 98.5084
82.3500 83.6568
82.4000 49.5487
82.4500 40.9399
82.5000 44.7177
82.5500 37.4146
82.6000 37.5848
82.6500 38.3160
82.7000 31.0318
82.7500 36.1296
82.8000 31.3340
82.8500 30.5714
82.9000 29.1972
82.9500 33.3501
83.0000 25.6083
83.0500 24.2522
83.1000 26.9648
83.1500 37.1545
83.2000 31.5147
83.2500 23.6090
83.3000 39.1568
83.3500 37.4391
83.4000 27.5873
83.4500 32.8440
83.5000 27.2836
83.5500 33.5801
83.6000 28.0506
83.6500 31.9124
83.7000 35.8457
83.7500 27.1694
83.8000 35.6738
83.8500 24.6263
83.9000 33.9874
83.9500 24.1252
84.0000 27.9692
84.0500 31.2566
84.1000 42.1753
84.1500 36.5322
84.2000 33.9495
84.2500 28.0954
84.3000 43.7675
84.3500 23.8535
84.4000 32.5239
84.4500 30.9639
84.5000 36.9205
84.5500 40.1491
84.6000 23.3259
84.6500 34.9483
84.7000 33.3065
84.7500 41.4072
84.8000 24.7546
84.8500 35.7823
84.9000 34.4979
84.9500 21.4283
85.0000 29.9722
85.0500 27.6387
85.1000 38.9480
85.1500 29.5517
85.2000 37.0176
85.2500 23.1476
85.3000 25.9555
85.3500 25.7748
85.4000 26.3186
85.4500 19.5986
85.5000 34.6609
85.5500 35.5974
85.6000 22.6048
85.6500 29.9333
85.7000 38.3327
85.7500 32.1503
85.8000 30.9165
85.8500 33.3401
85.9000 28.2550
85.9500 35.4707
86.0000 22.4758
86.0500 26.4006
86.1000 32.8515
86.1500 19.1826
86.2000 27.1328
86.2500 30.4741
86.3000 44.0558
86.3500 30.0454
86.4000 33.0340
86.4500 23.9251
86.5000 29.7187
86.5500 35.9337
86.6000 31.5904
86.6500 27.7721
86.7000 27.0826
86.7500 26.6367
86.8000 30.0640
86.8500 30.2556
86.9000 28.1702
86.9500 27.9059
87.0000 23.6452
87.0500 26.9194
87.1000 32.3678
87.1500 27.5957
87.2000 24.2127
87.2500 34.9644
87.3000 21.8062
87.3500 29.0959
87.4000 33.1176
87.4500 20.4837
87.5000 29.3619
87.5500 21.5620
87.6000 26.8159
87.6500 39.9785
87.7000 33.0195
87.7500 19.9285
87.8000 18.0175
87.8500 35.0791
87.9000 34.6949
87.9500 33.5762
88.0000 19.8981
88.0500 29.9280
88.1000 29.8828
88.1500 34.9895
88.2000 19.5239
88.2500 40.1078
88.3000 37.7413
88.3500 24.4274
88.4000 26.1474
88.4500 38.1028
88.5000 22.9362
88.5500 28.6778
88.6000 31.8091
88.6500 29.4178
88.7000 36.2395
88.7500 32.8507
88.8000 39.9805
88.8500 33.2817
88.9000 32.7426
88.9500 36.2612
89.0000 30.1295
89.0500 30.2802
89.1000 25.4092
89.1500 27.2316
89.2000 26.6687
89.2500 28.4616
89.3000 28.4824
89.3500 30.9819
89.4000 27.1812
89.4500 22.8056
89.5000 36.0105
89.5500 25.9286
89.6000 30.6004
89.6500 30.2362
89.7000 33.0402
89.7500 27.8547
89.8000 34.5142
89.8500 25.1080
89.9000 33.4880
89.9500 30.5833
90.0000 27.7247
90.0500 24.8678
90.1000 29.5499
90.1500 32.3225
90.2000 23.1427
90.2500 36.4780
90.3000 30.1102
90.3500 28.6511
90.4000 29.5224
90.4500 31.2822
90.5000 30.3798
90.5500 23.6317
90.6000 30.5591
90.6500 30.9508
90.7000 37.6037
90.7500 30.8038
90.8000 30.7781
90.8500 33.1956
90.9000 30.3343
90.9500 36.4278
91.0000 39.0960
91.0500 29.6067
91.1000 27.7562
91.1500 31.8677
91.2000 29.9306
91.2500 21.7978
91.3000 21.1506
91.3500 27.8789
91.4000 35.5133
91.4500 35.7590
91.5000 35.6159
91.5500 29.0541
91.6000 23.9076
91.6500 36.2678
91.7000 23.2372
91.7500 34.4094
91.8000 27.4364
91.8500 22.7338
91.9000 31.6901
91.9500 30.3113
92.0000 23.4362
92.0500 35.0880
92.1000 36.3953
92.1500 29.2014
92.2000 31.6982
92.2500 25.2557
92.3000 18.2698
92.3500 24.4485
92.4000 26.0651
92.4500 25.1614
92.5000 29.5543
92.5500 26.2685
92.6000 31.2645
92.6500 32.1146
92.7000 30.8466
92.7500 23.5015
92.8000 39.1437
92.8500 30.8510
92.9000 25.5286
92.9500 25.2581
93.0000 33.5475
93.0500 46.4138
93.1000 26.1381
93.1500 18.2047
93.2000 24.5594
93.2500 30.0272
93.3000 28.4087
93.3500 25.5464
93.4000 32.0509
93.4500 24.3519
93.5000 27.7326
93.5500 31.6963
93.6000 22.6785
93.6500 36.0865
93.7000 25.4728
93.7500 34.3424
93.8000 27.1779
93.8500 28.3975
93.9000 29.4344
93.9500 30.3721
94.0000 31.4189
94.0500 31.5581
94.1000 23.8125
94.1500 27.1168
94.2000 27.3919
94.2500 30.9497
94.3000 22.8182
94.3500 35.9773
94.4000 33.0566
94.4500 26.2672
94.5000 30.5745
94.5500 28.6516
94.6000 42.6770
94.6500 26.7176
94.7000 27.4050
94.7500 29.5711
94.8000 27.2196
94.8500 27.7437
94.9000 31.5667
94.9500 17.0894
95.0000 29.6745
95.0500 30.0801
95.1000 28.8797
95.1500 33.8445
95.2000 25.8509
95.2500 35.6512
95.3000 30.3331
95.3500 38.8521
95.4000 26.0552
95.4500 34.2365
95.5000 34.7213
95.5500 29.3355
95.6000 26.6861
95.6500 36.6285
95.7000 41.9414
95.7500 22.2300
95.8000 29.3290
95.8500 24.7168
95.9000 36.3453
95.9500 26.7639
96.0000 30.2778
96.0500 22.9908
96.1000 32.1503
96.1500 34.6081
96.2000 30.5258
96.2500 30.3414
96.3000 32.8203
96.3500 29.7915
96.4000 31.0804
96.4500 27.9235
96.5000 20.4065
96.5500 27.2414
96.6000 22.0838
96.6500 37.6112
96.7000 31.9393
96.7500 32.8718
96.8000 32.7954
96.8500 26.5024
96.9000 26.3409
96.9500 27.5566
97.0000 24.7560
97.0500 28.6642
97.1000 37.3922
97.1500 21.9745
97.2000 32.1405
97.2500 29.7337
97.3000 35.7649
97.3500 29.4281
97.4000 34.7561
97.4500 27.3384
97.5000 33.9964
97.5500 30.7243
97.6000 43.6233
97.6500 31.6978
97.7000 27.9639
97.7500 31.8624
97.8000 38.5394
97.8500 38.0333
97.9000 24.0279
97.9500 35.3786
98.0000 32.8459
98.0500 31.3902
98.1000 29.2421
98.1500 27.2585
98.2000 38.6487
98.2500 46.7946
98.3000 41.5212
98.3500 43.7895
98.4000 42.2253
98.4500 54.7614
98.5000 48.5128
98.5500 66.8927
98.6000 71.1961
98.6500 80.0722
98.7000 75.5033
98.7500 75.6204
98.8000 69.3713
98.8500 72.5983
98.9000 43.3210
98.9500 42.2110
99.0000 40.0938
99.0500 46.8122
99.1000 40.2384
99.1500 29.9154
99.2000 42.0847
99.2500 37.8932
99.3000 30.9220
99.3500 31.7908
99.4000 27.3306
99.4500 29.4282
99.5000 31.0794
99.5500 29.6346
99.6000 28.3662
99.6500 38.2321
99.7000 23.3610
99.7500 27.1093
99.8000 31.2139
99.8500 28.2423
99.9000 28.3932
99.9500 23.2094
100.0000 33.3585
100.0500 28.4142
100.1000 23.7160
100.1500 26.1728
100.2000 28.8490
100.2500 30.8106
100.3000 32.1379
100.3500 31.9125
100.4000 23.8194
100.4500 33.0209
100.5000 22.7506
100.5500 32.8873
100.6000 34.9173
100.6500 20.1477
100.7000 25.8383
100.7500 30.8461
100.8000 28.9031
100.8500 27.0474
100.9000 26.8009
100.9500 27.3400
101.0000 21.3838
101.0500 31.4873
101.1000 30.0174
101.1500 31.8856
101.2000 34.6923
101.2500 28.9296
101.3000 36.3957
101.3500 32.2503
101.4000 21.3934
101.4500 28.5885
101.5000 45.3176
101.5500 31.1674
101.6000 23.5972
101.6500 38.1897
101.7000 22.8716
101.7500 38.2739
101.8000 25.9887
101.8500 36.4101
101.9000 35.7568
101.9500 42.8928
102.0000 39.6162
102.0500 34.1104
102.1000 22.2266
102.1500 17.3709
102.2000 39.0887
102.2500 31.6761
102.3000 35.4867
102.3500 28.3006
102.4000 30.1992
102.4500 27.5912
102.5000 26.2446
102.5500 36.3012
102.6000 39.3481
102.6500 29.0050
102.7000 29.0181
102.7500 33.3590
102.8000 28.1500
102.8500 30.8896
102.9000 23.6548
102.9500 27.8128
103.0000 30.6713
103.0500 31.5146
103.1000 39.7672
103.1500 32.4934
103.2000 34.5903
103.2500 26.9161
103.3000 39.4386
103.3500 29.3362
103.4000 19.4174
103.4500 33.7636
103.5000 39.1320
103.5500 39.8462
103.6000 32.4046
103.6500 25.8202
103.7000 26.5509
103.7500 47.1751
103.8000 29.0623
103.8500 23.4679
103.9000 33.3141
103.9500 30.6707
104.0000 25.3531
104.0500 28.2121
104.1000 24.5046
104.1500 31.6378
104.2000 21.1961
104.2500 27.2135
104.3000 21.3484
104.3500 39.9322
104.4000 31.8761
104.4500 25.0206
104.5000 26.5122
104.5500 16.7143
104.6000 32.1456
104.6500 30.1101
104.7000 24.3812
104.7500 17.4687
104.8000 30.8319
104.8500 24.2486
104.9000 25.3446
104.9500 41.8019
105.0000 47.2600
105.0500 24.3321
105.1000 22.3823
105.1500 19.9874
105.2000 35.6686
105.2500 37.5644
105.3000 29.0725
105.3500 40.1350
105.4000 40.6214
105.4500 42.9509
105.5000 29.8354
105.5500 37.7231
105.6000 28.5464
105.6500 25.3090
105.7000 20.9793
105.7500 27.7922
105.8000 30.6103
105.8500 39.0026
105.9000 21.4788
105.9500 24.6630
106.0000 25.6806
106.0500 31.3754
106.1000 25.0796
106.1500 23.2061
106.2000 40.7293
106.2500 28.3716
106.3000 38.0375
106.3500 24.3357
106.4000 38.0354
106.4500 22.8153
106.5000 27.0842
106.5500 22.5862
106.6000 24.2408
106.6500 24.3665
106.7000 29.6344
106.7500 24.4136
106.8000 26.3960
106.8500 22.9900
106.9000 22.2255
106.9500 39.5793
107.0000 28.1172
107.0500 21.7678
107.1000 31.8224
107.1500 30.1871
107.2000 26.8000
107.2500 30.3516
107.3000 35.5978
107.3500 31.9832
107.4000 35.4446
107.4500 31.9147
107.5000 39.5410
107.5500 32.3006
107.6000 23.5083
107.6500 24.0043
107.7000 30.9735
107.7500 29.4406
107.8000 27.5826
107.8500 25.5866
107.9000 19.2166
107.9500 19.7116
108.0000 28.8173
108.0500 30.9659
108.1000 28.7661
108.1500 20.1148
108.2000 33.0448
108.2500 31.8985
108.3000 27.5828
108.3500 28.7470
108.4000 30.5173
108.4500 27.5212
108.5000 21.0584
108.5500 31.6777
108.6000 28.2596
108.6500 25.5812
108.7000 24.1155
108.7500 27.9848
108.8000 33.1499
108.8500 29.2696
108.9000 33.6907
108.9500 29.3111
109.0000 20.8381
109.0500 27.0681
109.1000 22.4286
109.1500 28.2553
109.2000 36.3509
109.2500 31.7069
109.3000 25.8340
109.3500 36.1536
109.4000 27.0958
109.4500 37.3088
109.5000 35.7049
109.5500 28.8096
109.6000 26.7656
109.6500 24.7950
109.7000 27.5187
109.7500 26.5190
109.8000 27.1832
109.8500 30.9253
109.9000 30.8624
109.9500 40.7425
110.0000 24.9834
110.0500 26.9308
110.1000 31.9460
110.1500 19.2454
110.2000 28.3095
110.2500 37.8743
110.3000 26.4400
110.3500 29.8895
110.4000 24.3115
110.4500 27.0117
110.5000 35.0594
110.5500 23.5163
110.6000 28.8327
110.6500 27.5430
110.7000 21.1889
110.7500 21.6917
110.8000 29.3321
110.8500 31.4228
110.9000 40.5645
110.9500 29.3978
111.0000 34.2019
111.0500 38.8828
111.1000 32.5638
111.1500 27.7750
111.2000 32.7234
111.2500 27.5210
111.3000 32.5440
111.3500 27.5656
111.4000 26.5276
111.4500 19.4603
111.5000 24.5450
111.5500 32.7891
111.6000 30.4139
111.6500 28.7661
111.7000 30.2886
111.7500 23.3828
111.8000 39.1568
111.8500 27.5618
111.9000 19.2843
111.9500 27.1368
112.0000 34.8496
112.0500 34.2439
112.1000 26.3826
112.1500 29.8169
112.2000 30.6762
112.2500 22.6697
112.3000 33.6066
112.3500 30.1488
112.4000 33.9628
112.4500 31.6345
112.5000 24.1749
112.5500 26.1375
112.6000 28.5285
112.6500 25.5314
112.7000 35.3711
112.7500 38.3287
112.8000 42.4174
112.8500 25.8328
112.9000 28.9769
112.9500 31.1136
113.0000 25.9778
113.0500 29.7204
113.1000 23.5360
113.1500 26.8429
113.2000 24.0542
113.2500 34.1092
113.3000 35.4924
113.3500 30.3210
113.4000 24.3837
113.4500 30.1437
113.5000 34.3172
113.5500 31.7998
113.6000 27.2309
113.6500 28.6749
113.7000 35.0585
113.7500 23.3503
113.8000 36.5353
113.8500 26.1423
113.9000 45.9966
113.9500 27.0100
114.0000 35.3533
114.0500 25.1757
114.1000 34.2794
114.1500 18.7657
114.2000 37.3744
114.2500 31.3847
114.3000 21.4744
114.3500 31.2563
114.4000 34.4112
114.4500 34.2790
114.5000 29.0002
114.5500 36.7739
114.6000 21.8436
114.6500 31.3195
114.7000 38.0050
114.7500 27.1134
114.8000 35.3459
114.8500 33.8110
114.9000 33.0789
114.9500 28.7924
115.0000 28.7208
115.0500 31.9903
115.1000 31.5828
115.1500 47.2803
115.2000 32.6076
115.2500 39.8123
115.3000 43.8753
115.3500 30.5868
115.4000 51.5830
115.4500 38.7725
115.5000 53.6881
115.5500 45.7983
115.6000 49.5250
115.6500 37.1398
115.7000 62.8370
115.7500 54.3836
115.8000 54.6573
115.8500 45.7570
115.9000 73.3778
115.9500 49.9747
116.0000 67.2241
116.0500 60.2932
116.1000 70.8192
116.1500 61.5573
116.2000 59.0194
116.2500 39.8239
116.3000 50.4601
116.3500 60.5770
116.4000 49.5823
116.4500 46.0057
116.5000 48.6500
116.5500 43.4041
116.6000 39.5382
116.6500 39.7907
116.7000 35.3464
116.7500 29.6850
116.8000 33.4897
116.8500 28.4576
116.9000 35.5479
116.9500 32.8921
117.0000 36.3807
117.0500 24.9011
117.1000 23.6266
117.1500 37.3518
117.2000 36.2812
117.2500 31.4100
117.3000 29.2326
117.3500 29.0272
117.4000 27.3604
117.4500 38.8756
117.5000 32.8299
117.5500 28.7786
117.6000 30.8845
117.6500 25.6175
117.7000 30.9147
117.7500 34.9560
117.8000 41.0294
117.8500 33.9712
117.9000 34.8473
117.9500 39.3038
118.0000 30.9608
118.0500 25.7414
118.1000 45.3834
118.1500 37.2794
118.2000 39.5849
118.2500 28.0193
118.3000 26.5062
118.3500 26.5964
118.4000 39.6853
118.4500 30.6464
118.5000 30.7968
118.5500 27.7496
118.6000 21.1036
118.6500 37.8859
118.7000 23.9468
118.7500 31.1005
118.8000 32.6595
118.8500 27.4698
118.9000 32.8912
118.9500 26.1458
119.0000 29.6580
119.0500 31.3475
119.1000 28.9874
119.1500 25.9415
119.2000 21.7026
119.2500 30.4900
119.3000 23.0786
119.3500 27.2593
119.4000 22.5155
119.4500 27.6432
119.5000 28.5978
119.5500 35.3762
119.6000 27.9594
119.6500 33.7289
119.7000 33.8478
119.7500 25.7687
119.8000 25.4911
119.8500 22.2742
119.9000 39.7933
119.9500 32.9990
120.0000 30.1884
120.0500 37.7660
120.1000 21.4606
120.1500 24.7242
120.2000 31.9061
120.2500 28.7016
120.3000 35.7680
120.3500 34.4003
120.4000 27.1099
120.4500 29.0092
120.5000 35.0581
120.5500 29.1390
120.6000 42.8076
120.6500 22.6898
120.7000 29.3984
120.7500 32.0670
120.8000 34.4497
120.8500 33.4432
120.9000 34.0621
120.9500 23.1108
121.0000 37.1381
121.0500 30.1419
121.1000 41.2751
121.1500 29.6901
121.2000 39.1750
121.2500 47.0231
121.3000 27.9437
121.3500 23.6103
121.4000 22.6807
121.4500 40.6551
121.5000 32.8817
121.5500 27.2516
121.6000 26.0600
121.6500 30.5408
121.7000 27.1518
121.7500 38.0932
121.8000 36.7441
121.8500 26.2468
121.9000 27.3346
121.9500 31.3422
122.0000 27.8875
122.0500 34.0835
122.1000 24.0979
122.1500 26.8836
122.2000 24.6966
122.2500 24.3978
122.3000 28.9314
122.3500 24.4264
122.4000 31.1286
122.4500 34.0013
122.5000 33.1770
122.5500 34.7510
122.6000 33.8592
122.6500 22.6070
122.7000 27.1374
122.7500 14.7435
122.8000 24.0333
122.8500 36.8151
122.9000 37.0123
122.9500 30.7454
123.0000 22.5458
123.0500 34.4369
123.1000 27.5274
123.1500 37.1550
123.2000 31.1323
123.2500 27.2275
123.3000 27.0982
123.3500 24.0610
123.4000 35.1475
123.4500 34.5771
123.5000 26.2534
123.5500 33.6570
123.6000 28.6978
123.6500 33.0113
123.7000 21.0230
123.7500 20.6821
123.8000 25.8079
123.8500 20.1256
123.9000 26.9594
123.9500 32.3372
124.0000 29.3606
124.0500 26.3226
124.1000 38.3105
124.1500 30.9073
124.2000 32.5154
124.2500 29.7796
124.3000 28.3470
124.3500 33.5511
124.4000 33.2563
124.4500 22.7845
124.5000 21.9649
124.5500 26.5638
124.6000 23.1829
124.6500 36.0042
124.7000 23.9173
124.7500 29.3105
124.8000 19.3202
124.8500 30.9933
124.9000 34.5839
124.9500 42.2307
125.0000 29.7877
125.0500 30.4654
125.1000 31.3691
125.1500 27.0175
125.2000 27.7883
125.2500 31.7148
125.3000 33.3601
125.3500 28.4553
125.4000 32.6989
125.4500 38.2369
125.5000 21.8364
125.5500 28.5755
125.6000 30.9371
125.6500 29.8047
125.7000 33.7662
125.7500 28.4340
125.8000 39.0857
125.8500 30.9000
125.9000 28.7928
125.9500 22.2436
126.0000 29.1828
126.0500 36.6524
126.1000 30.1637
126.1500 43.7875
126.2000 41.2272
126.2500 32.7142
126.3000 35.0380
126.3500 24.8497
126.4000 30.3989
126.4500 33.7499
126.5000 30.9766
126.5500 25.6488
126.6000 19.7951
126.6500 23.6886
126.7000 30.4921
126.7500 21.8865
126.8000 35.6876
126.8500 19.5554
126.9000 27.8880
126.9500 37.2122
127.0000 25.3326
127.0500 29.1828
127.1000 23.3568
127.1500 38.2102
127.2000 29.2873
127.2500 29.7607
127.3000 27.1686
127.3500 30.7020
127.4000 36.2843
127.4500 26.7754
127.5000 35.2111
127.5500 28.2422
127.6000 28.3986
127.6500 29.1487
127.7000 24.2615
127.7500 32.7333
127.8000 25.5028
127.8500 28.1185
127.9000 26.4908
127.9500 33.4485
128.0000 37.4271
128.0500 23.1374
128.1000 39.2891
128.1500 22.3641
128.2000 32.6588
128.2500 29.3541
128.3000 37.5068
128.3500 23.9618
128.4000 23.0138
128.4500 32.7167
128.5000 32.7432
128.5500 34.5116
128.6000 25.1439
128.6500 30.8361
128.7000 33.1641
128.7500 21.7739
128.8000 20.0551
128.8500 29.8000
128.9000 27.8240
128.9500 37.0015
129.0000 28.5876
129.0500 36.2640
129.1000 33.4630
129.1500 31.2826
129.2000 24.0912
129.2500 23.5793
129.3000 25.1380
129.3500 35.9620
129.4000 34.8788
129.4500 21.3938
129.5000 28.8312
129.5500 31.9416
129.6000 24.7985
129.6500 24.8135
129.7000 26.4077
129.7500 32.2213
129.8000 34.2723
129.8500 25.9606
129.9000 17.4868
129.9500 33.3390
130.0000 26.4511
