
#Surface 0 of 1 surfaces

#IsoCurve 0, 1801 points
#x y z type
 40  35.7513  35.2313 i
 40.05  27.8124  35.2248 i
 40.1  33.3057  35.2184 i
 40.15  43.604  35.2119 i
 40.2  39.6789  35.2054 i
 40.25  29.0166  35.1989 i
 40.3  47.0008  35.1923 i
 40.35  40.2043  35.1857 i
 40.4  48.8365  35.179 i
 40.45  37.7487  35.1724 i
 40.5  45.11  35.1656 i
 40.55  39.733  35.1589 i
 40.6  38.8857  35.1521 i
 40.65  44.6445  35.1453 i
 40.7  37.9716  35.1385 i
 40.75  39.786  35.1316 i
 40.8  39.8725  35.1247 i
 40.85  33.9419  35.1178 i
 40.9  34.939  35.1108 i
 40.95  35.7616  35.1038 i
 41  37.8212  35.0968 i
 41.05  28.0221  35.0897 i
 41.1  45.6919  35.0826 i
 41.15  33.5047  35.0755 i
 41.2  40.2128  35.0683 i
 41.25  36.743  35.0612 i
 41.3  42.4488  35.0539 i
 41.35  35.8084  35.0467 i
 41.4  24.4025  35.0394 i
 41.45  32.2736  35.0321 i
 41.5  32.7526  35.0248 i
 41.55  32.3617  35.0174 i
 41.6  36.7348  35.01 i
 41.65  29.3242  35.0026 i
 41.7  36.2158  34.9951 i
 41.75  25.3882  34.9876 i
 41.8  37.5206  34.9801 i
 41.85  42.4013  34.9726 i
 41.9  37.2089  34.965 i
 41.95  42.0264  34.9574 i
 42  41.3039  34.9497 i
 42.05  43.4  34.9421 i
 42.1  32.3544  34.9344 i
 42.15  32.337  34.9267 i
 42.2  30.9037  34.9189 i
 42.25  33.4249  34.9111 i
 42.3  37.7864  34.9033 i
 42.35  38.0956  34.8955 i
 42.4  45.82  34.8876 i
 42.45  49.9409  34.8798 i
 42.5  32.4241  34.8718 i
 42.55  34.3285  34.8639 i
 42.6  40.5093  34.8559 i
 42.65  40.1913  34.8479 i
 42.7  30.2416  34.8399 i
 42.75  36.9278  34.8318 i
 42.8  29.978  34.8237 i
 42.85  35.7435  34.8156 i
 42.9  32.3486  34.8075 i
 42.95  38.7319  34.7993 i
 43  28.8372  34.7911 i
 43.05  33.1034  34.7829 i
 43.1  32.7966  34.7747 i
 43.15  37.8975  34.7664 i
 43.2  38.3961  34.7581 i
 43.25  34.8793  34.7498 i
 43.3  41.2576  34.7415 i
 43.35  35.4592  34.7331 i
 43.4  32.6799  34.7247 i
 43.45  36.9683  34.7163 i
 43.5  31.5727  34.7078 i
 43.55  31.2618  34.6993 i
 43.6  39.6785  34.6908 i
 43.65  36.5252  34.6823 i
 43.7  41.8051  34.6738 i
 43.75  45.521  34.6652 i
 43.8  32.4713  34.6566 i
 43.85  39.4062  34.648 i
 43.9  35.4304  34.6393 i
 43.95  41.9707  34.6306 i
 44  33.0128  34.6219 i
 44.05  43.1857  34.6132 i
 44.1  58.3227  34.6045 i
 44.15  49.6885  34.5957 i
 44.2  68.9944  34.5869 i
 44.25  82.1281  34.5781 i
 44.3  92.7992  34.5693 i
 44.35  145.798  34.5604 i
 44.4  195.886  34.5515 i
 44.45  384.132  34.5426 i
 44.5  671.664  34.5337 i
 44.55  1029.33  34.5247 i
 44.6  1296.64  34.5157 i
 44.65  1127.75  34.5067 i
 44.7  733.888  34.4977 i
 44.75  341.792  34.4887 i
 44.8  162.704  34.4796 i
 44.85  106.894  34.4705 i
 44.9  74.0375  34.4614 i
 44.95  60.9656  34.4523 i
 45  38.5067  34.4431 i
 45.05  45.68  34.4339 i
 45.1  43.7203  34.4247 i
 45.15  34.9017  34.4155 i
 45.2  30.1415  34.4063 i
 45.25  37.598  34.397 i
 45.3  42.0903  34.3877 i
 45.35  49.812  34.3784 i
 45.4  48.0788  34.3691 i
 45.45  36.9736  34.3598 i
 45.5  30.7851  34.3504 i
 45.55  35.4401  34.341 i
 45.6  38.0777  34.3316 i
 45.65  39.4954  34.3222 i
 45.7  34.9515  34.3127 i
 45.75  29.3189  34.3033 i
 45.8  48.2149  34.2938 i
 45.85  31.5273  34.2843 i
 45.9  32.6702  34.2748 i
 45.95  27.9923  34.2652 i
 46  32.8117  34.2557 i
 46.05  34.9856  34.2461 i
 46.1  33.3089  34.2365 i
 46.15  24.9094  34.2269 i
 46.2  56.7959  34.2172 i
 46.25  41.2407  34.2076 i
 46.3  35.3517  34.1979 i
 46.35  38.0534  34.1882 i
 46.4  26.8436  34.1785 i
 46.45  26.642  34.1687 i
 46.5  32.4524  34.159 i
 46.55  30.3361  34.1492 i
 46.6  27.6405  34.1394 i
 46.65  39.8099  34.1296 i
 46.7  37.9357  34.1198 i
 46.75  34.3337  34.11 i
 46.8  40.174  34.1001 i
 46.85  35.1681  34.0903 i
 46.9  31.6383  34.0804 i
 46.95  31.8841  34.0705 i
 47  30.9062  34.0605 i
 47.05  28.3384  34.0506 i
 47.1  40.3644  34.0406 i
 47.15  40.6099  34.0307 i
 47.2  27.8974  34.0207 i
 47.25  32.0591  34.0107 i
 47.3  41.7535  34.0007 i
 47.35  33.1747  33.9906 i
 47.4  23.1993  33.9806 i
 47.45  26.8902  33.9705 i
 47.5  32.1362  33.9604 i
 47.55  30.161  33.9503 i
 47.6  30.3247  33.9402 i
 47.65  29.6852  33.9301 i
 47.7  36.3329  33.9199 i
 47.75  29.6536  33.9098 i
 47.8  34.6283  33.8996 i
 47.85  29.809  33.8894 i
 47.9  26.8299  33.8792 i
 47.95  34.2372  33.869 i
 48  37.2592  33.8587 i
 48.05  27.1022  33.8485 i
 48.1  28.6279  33.8382 i
 48.15  36.4289  33.8279 i
 48.2  31.1261  33.8177 i
 48.25  30.542  33.8074 i
 48.3  42.3912  33.797 i
 48.35  25.0275  33.7867 i
 48.4  33.2329  33.7764 i
 48.45  25.8128  33.766 i
 48.5  30.8788  33.7556 i
 48.55  26.5751  33.7452 i
 48.6  33.7954  33.7348 i
 48.65  31.1263  33.7244 i
 48.7  31.1952  33.714 i
 48.75  41.5056  33.7036 i
 48.8  31.5156  33.6931 i
 48.85  28.8639  33.6827 i
 48.9  32.5916  33.6722 i
 48.95  29.1725  33.6617 i
 49  32.4013  33.6512 i
 49.05  47.7006  33.6407 i
 49.1  33.9135  33.6302 i
 49.15  37.0792  33.6197 i
 49.2  33.1603  33.6091 i
 49.25  27.6216  33.5986 i
 49.3  35.9273  33.588 i
 49.35  39.9487  33.5774 i
 49.4  42.3413  33.5668 i
 49.45  42.3284  33.5562 i
 49.5  21.3045  33.5456 i
 49.55  30.835  33.535 i
 49.6  30.7486  33.5244 i
 49.65  26.193  33.5137 i
 49.7  35.4175  33.5031 i
 49.75  38.847  33.4924 i
 49.8  26.7643  33.4818 i
 49.85  37.6654  33.4711 i
 49.9  31.0963  33.4604 i
 49.95  31.2172  33.4497 i
 50  35.8137  33.439 i
 50.05  30.6031  33.4283 i
 50.1  38.1013  33.4175 i
 50.15  34.8311  33.4068 i
 50.2  26.0939  33.3961 i
 50.25  34.1449  33.3853 i
 50.3  39.4498  33.3745 i
 50.35  33.679  33.3638 i
 50.4  52.9223  33.353 i
 50.45  28.6434  33.3422 i
 50.5  31.9059  33.3314 i
 50.55  30.0668  33.3206 i
 50.6  25.8589  33.3098 i
 50.65  22.7012  33.299 i
 50.7  29.6551  33.2881 i
 50.75  32.697  33.2773 i
 50.8  34.9488  33.2665 i
 50.85  39.0847  33.2556 i
 50.9  24.8127  33.2447 i
 50.95  41.8669  33.2339 i
 51  20.653  33.223 i
 51.05  26.8232  33.2121 i
 51.1  28.228  33.2012 i
 51.15  35.2963  33.1903 i
 51.2  33.4654  33.1794 i
 51.25  30.3096  33.1685 i
 51.3  31.0741  33.1576 i
 51.35  36.5384  33.1467 i
 51.4  27.1092  33.1358 i
 51.45  28.1092  33.1249 i
 51.5  39.9288  33.1139 i
 51.55  39.8125  33.103 i
 51.6  32.0827  33.092 i
 51.65  29.9113  33.0811 i
 51.7  37.7805  33.0701 i
 51.75  35.0768  33.0591 i
 51.8  33.2024  33.0482 i
 51.85  31.3326  33.0372 i
 51.9  30.9546  33.0262 i
 51.95  32.5172  33.0152 i
 52  34.3183  33.0043 i
 52.05  38.1175  32.9933 i
 52.1  24.1692  32.9823 i
 52.15  31.9594  32.9713 i
 52.2  14.9076  32.9603 i
 52.25  31.3282  32.9492 i
 52.3  26.4091  32.9382 i
 52.35  30.2476  32.9272 i
 52.4  30.834  32.9162 i
 52.45  30.9634  32.9052 i
 52.5  41.2778  32.8941 i
 52.55  26.7338  32.8831 i
 52.6  35.2165  32.8721 i
 52.65  31.0891  32.861 i
 52.7  32.1526  32.85 i
 52.75  30.3683  32.839 i
 52.8  30.8225  32.8279 i
 52.85  42.2785  32.8169 i
 52.9  28.3489  32.8058 i
 52.95  41.2484  32.7948 i
 53  33.9183  32.7837 i
 53.05  30.3135  32.7727 i
 53.1  37.2271  32.7616 i
 53.15  31.7736  32.7505 i
 53.2  27.4638  32.7395 i
 53.25  34.0459  32.7284 i
 53.3  35.7707  32.7173 i
 53.35  25.9088  32.7063 i
 53.4  24.5552  32.6952 i
 53.45  38.9919  32.6841 i
 53.5  32.8547  32.6731 i
 53.55  28.174  32.662 i
 53.6  32.181  32.6509 i
 53.65  28.938  32.6399 i
 53.7  38.2635  32.6288 i
 53.75  35.2006  32.6177 i
 53.8  32.1217  32.6066 i
 53.85  32.3515  32.5956 i
 53.9  28.8942  32.5845 i
 53.95  32.4603  32.5734 i
 54  28.8415  32.5624 i
 54.05  27.0827  32.5513 i
 54.1  25.0138  32.5402 i
 54.15  30.5457  32.5291 i
 54.2  33.3785  32.5181 i
 54.25  31.3304  32.507 i
 54.3  32.7687  32.4959 i
 54.35  24.9539  32.4849 i
 54.4  37.2173  32.4738 i
 54.45  40.1425  32.4627 i
 54.5  30.2349  32.4517 i
 54.55  30.5061  32.4406 i
 54.6  39.6575  32.4296 i
 54.65  30.0118  32.4185 i
 54.7  27.0099  32.4074 i
 54.75  40.8148  32.3964 i
 54.8  29.2384  32.3853 i
 54.85  29.7901  32.3743 i
 54.9  35.5928  32.3632 i
 54.95  39.0015  32.3522 i
 55  36.6172  32.3412 i
 55.05  32.2139  32.3301 i
 55.1  32.0769  32.3191 i
 55.15  24.8464  32.3081 i
 55.2  33.7918  32.297 i
 55.25  27.9587  32.286 i
 55.3  31.6822  32.275 i
 55.35  26.0164  32.264 i
 55.4  36.7375  32.253 i
 55.45  26.8933  32.2419 i
 55.5  31.3372  32.2309 i
 55.55  26.9693  32.2199 i
 55.6  29.7985  32.2089 i
 55.65  38.8932  32.1979 i
 55.7  39.7432  32.187 i
 55.75  41.0438  32.176 i
 55.8  33.9668  32.165 i
 55.85  32.3765  32.154 i
 55.9  37.3069  32.143 i
 55.95  38.5272  32.1321 i
 56  26.3266  32.1211 i
 56.05  42.5789  32.1102 i
 56.1  30.6293  32.0992 i
 56.15  44.5172  32.0883 i
 56.2  27.4684  32.0773 i
 56.25  29.9458  32.0664 i
 56.3  30.8451  32.0555 i
 56.35  26.6108  32.0446 i
 56.4  25.9593  32.0336 i
 56.45  37.712  32.0227 i
 56.5  23.8558  32.0118 i
 56.55  36.0814  32.0009 i
 56.6  26.9164  31.9901 i
 56.65  33.2366  31.9792 i
 56.7  35.7735  31.9683 i
 56.75  29.7467  31.9574 i
 56.8  29.0501  31.9466 i
 56.85  35.1989  31.9357 i
 56.9  30.8904  31.9249 i
 56.95  38.1222  31.914 i
 57  34.4175  31.9032 i
 57.05  31.8791  31.8924 i
 57.1  27.8594  31.8816 i
 57.15  23.6243  31.8708 i
 57.2  37.6394  31.86 i
 57.25  28.8851  31.8492 i
 57.3  30.8474  31.8384 i
 57.35  31.7365  31.8276 i
 57.4  34.1827  31.8168 i
 57.45  27.6401  31.8061 i
 57.5  34.383  31.7953 i
 57.55  37.6876  31.7846 i
 57.6  28.4172  31.7739 i
 57.65  27.0055  31.7632 i
 57.7  36.9548  31.7524 i
 57.75  32.324  31.7417 i
 57.8  41.5495  31.7311 i
 57.85  25.8451  31.7204 i
 57.9  25.3139  31.7097 i
 57.95  32.312  31.699 i
 58  32.8586  31.6884 i
 58.05  33.0643  31.6777 i
 58.1  26.064  31.6671 i
 58.15  22.9023  31.6565 i
 58.2  33.5287  31.6459 i
 58.25  31.5388  31.6353 i
 58.3  23.654  31.6247 i
 58.35  36.8512  31.6141 i
 58.4  26.7129  31.6035 i
 58.45  25.1529  31.593 i
 58.5  39.3168  31.5824 i
 58.55  28.3056  31.5719 i
 58.6  29.4649  31.5614 i
 58.65  30.0441  31.5509 i
 58.7  30.8874  31.5404 i
 58.75  30.071  31.5299 i
 58.8  20.9554  31.5194 i
 58.85  23.5247  31.509 i
 58.9  23.6052  31.4985 i
 58.95  32.4062  31.4881 i
 59  23.5666  31.4776 i
 59.05  36.0488  31.4672 i
 59.1  21.8841  31.4568 i
 59.15  39.3927  31.4464 i
 59.2  22.5506  31.4361 i
 59.25  28.3344  31.4257 i
 59.3  33.953  31.4154 i
 59.35  28.0074  31.405 i
 59.4  49.9019  31.3947 i
 59.45  26.2561  31.3844 i
 59.5  21.7721  31.3741 i
 59.55  34.8459  31.3638 i
 59.6  20.9195  31.3536 i
 59.65  21.149  31.3433 i
 59.7  32.2364  31.3331 i
 59.75  21.6358  31.3229 i
 59.8  30.0564  31.3126 i
 59.85  26.3289  31.3025 i
 59.9  26.0153  31.2923 i
 59.95  21.7891  31.2821 i
 60  39.4171  31.272 i
 60.05  35.8491  31.2618 i
 60.1  31.0056  31.2517 i
 60.15  35.0116  31.2416 i
 60.2  33.2971  31.2315 i
 60.25  30.3303  31.2214 i
 60.3  26.2863  31.2114 i
 60.35  35.0762  31.2014 i
 60.4  36.8164  31.1913 i
 60.45  20.8321  31.1813 i
 60.5  27.257  31.1713 i
 60.55  34.5821  31.1614 i
 60.6  24.6815  31.1514 i
 60.65  25.7916  31.1414 i
 60.7  32.0896  31.1315 i
 60.75  22.3185  31.1216 i
 60.8  29.6256  31.1117 i
 60.85  40.6115  31.1018 i
 60.9  34.9611  31.092 i
 60.95  36.1427  31.0821 i
 61  29.9413  31.0723 i
 61.05  30.2179  31.0625 i
 61.1  36.1775  31.0527 i
 61.15  20.8506  31.043 i
 61.2  30.7426  31.0332 i
 61.25  37.6203  31.0235 i
 61.3  31.0834  31.0138 i
 61.35  30.1803  31.0041 i
 61.4  26.3021  30.9944 i
 61.45  35.2643  30.9847 i
 61.5  39.1231  30.9751 i
 61.55  32.3637  30.9654 i
 61.6  24.2289  30.9558 i
 61.65  29.747  30.9463 i
 61.7  33.2635  30.9367 i
 61.75  38.9357  30.9271 i
 61.8  35.0353  30.9176 i
 61.85  20.6225  30.9081 i
 61.9  34.5546  30.8986 i
 61.95  26.2416  30.8891 i
 62  25.4  30.8797 i
 62.05  32.46  30.8703 i
 62.1  25.4868  30.8609 i
 62.15  29.5012  30.8515 i
 62.2  31.8108  30.8421 i
 62.25  30.4076  30.8327 i
 62.3  33.3116  30.8234 i
 62.35  31.5653  30.8141 i
 62.4  37.6418  30.8048 i
 62.45  29.0334  30.7956 i
 62.5  29.8384  30.7863 i
 62.55  31.9846  30.7771 i
 62.6  22.4879  30.7679 i
 62.65  31.924  30.7587 i
 62.7  30.302  30.7496 i
 62.75  27.4764  30.7404 i
 62.8  32.6766  30.7313 i
 62.85  39.0642  30.7222 i
 62.9  27.4699  30.7131 i
 62.95  39.5411  30.7041 i
 63  33.4402  30.6951 i
 63.05  34.6703  30.6861 i
 63.1  25.1677  30.6771 i
 63.15  26.1824  30.6681 i
 63.2  31.685  30.6592 i
 63.25  27.209  30.6503 i
 63.3  35.7416  30.6414 i
 63.35  24.9382  30.6325 i
 63.4  32.5497  30.6237 i
 63.45  33.7823  30.6148 i
 63.5  30.7997  30.606 i
 63.55  35.7514  30.5973 i
 63.6  29.573  30.5885 i
 63.65  28.6674  30.5798 i
 63.7  25.0406  30.5711 i
 63.75  26.2163  30.5624 i
 63.8  26.6402  30.5538 i
 63.85  23.129  30.5451 i
 63.9  22.1917  30.5365 i
 63.95  36.1319  30.528 i
 64  29.6122  30.5194 i
 64.05  30.0266  30.5109 i
 64.1  35.2628  30.5024 i
 64.15  26.3847  30.4939 i
 64.2  27.3255  30.4854 i
 64.25  31.7609  30.477 i
 64.3  39.9187  30.4686 i
 64.35  34.124  30.4602 i
 64.4  41.3012  30.4519 i
 64.45  38.8297  30.4435 i
 64.5  53.3835  30.4352 i
 64.55  59.7337  30.427 i
 64.6  86.9432  30.4187 i
 64.65  85.298  30.4105 i
 64.7  115.518  30.4023 i
 64.75  153.365  30.3941 i
 64.8  140.5  30.386 i
 64.85  172.945  30.3779 i
 64.9  202.576  30.3698 i
 64.95  192.928  30.3617 i
 65  152.013  30.3537 i
 65.05  120.426  30.3457 i
 65.1  105.391  30.3377 i
 65.15  71.8336  30.3298 i
 65.2  57.7928  30.3218 i
 65.25  61.6551  30.3139 i
 65.3  42.8541  30.3061 i
 65.35  33.1069  30.2982 i
 65.4  34.8873  30.2904 i
 65.45  31.7185  30.2826 i
 65.5  33.6885  30.2749 i
 65.55  41.4134  30.2671 i
 65.6  40.1252  30.2595 i
 65.65  29.6639  30.2518 i
 65.7  28.2186  30.2441 i
 65.75  30.7077  30.2365 i
 65.8  36.8256  30.2289 i
 65.85  38.1372  30.2214 i
 65.9  28.3354  30.2139 i
 65.95  29.6052  30.2064 i
 66  41.2195  30.1989 i
 66.05  31.1085  30.1915 i
 66.1  31.3383  30.1841 i
 66.15  21.679  30.1767 i
 66.2  34.3138  30.1694 i
 66.25  24.8319  30.162 i
 66.3  20.704  30.1548 i
 66.35  31.594  30.1475 i
 66.4  47.4917  30.1403 i
 66.45  29.663  30.1331 i
 66.5  41.3971  30.1259 i
 66.55  33.4343  30.1188 i
 66.6  22.3277  30.1117 i
 66.65  42.9936  30.1046 i
 66.7  34.2689  30.0976 i
 66.75  39.7931  30.0906 i
 66.8  33.5971  30.0836 i
 66.85  38.897  30.0767 i
 66.9  30.5015  30.0698 i
 66.95  34.9516  30.0629 i
 67  33.7762  30.056 i
 67.05  34.4401  30.0492 i
 67.1  33.3125  30.0424 i
 67.15  40.5114  30.0357 i
 67.2  29.6025  30.029 i
 67.25  28.874  30.0223 i
 67.3  23.9591  30.0156 i
 67.35  28.2035  30.009 i
 67.4  31.6863  30.0024 i
 67.45  39.5832  29.9959 i
 67.5  35.7262  29.9894 i
 67.55  29.6174  29.9829 i
 67.6  20.1669  29.9764 i
 67.65  31.0503  29.97 i
 67.7  39.0318  29.9636 i
 67.75  44.3349  29.9573 i
 67.8  29.4721  29.951 i
 67.85  38.1786  29.9447 i
 67.9  39.7186  29.9384 i
 67.95  30.7108  29.9322 i
 68  36.9792  29.9261 i
 68.05  28.4284  29.9199 i
 68.1  31.3315  29.9138 i
 68.15  32.661  29.9077 i
 68.2  25.5896  29.9017 i
 68.25  30.2593  29.8957 i
 68.3  31.7688  29.8897 i
 68.35  22.6064  29.8838 i
 68.4  21.0183  29.8779 i
 68.45  27.6115  29.872 i
 68.5  31.1249  29.8662 i
 68.55  36.6847  29.8604 i
 68.6  29.6738  29.8547 i
 68.65  30.7252  29.8489 i
 68.7  28.9883  29.8433 i
 68.75  28.4575  29.8376 i
 68.8  26.0603  29.832 i
 68.85  29.247  29.8264 i
 68.9  42.8133  29.8209 i
 68.95  30.1978  29.8154 i
 69  21.4788  29.8099 i
 69.05  29.6737  29.8045 i
 69.1  30.3992  29.7991 i
 69.15  29.0153  29.7938 i
 69.2  28.1641  29.7885 i
 69.25  26.0047  29.7832 i
 69.3  29.4569  29.7779 i
 69.35  27.5069  29.7727 i
 69.4  31.502  29.7676 i
 69.45  20.088  29.7625 i
 69.5  28.2258  29.7574 i
 69.55  25.6754  29.7523 i
 69.6  38.5221  29.7473 i
 69.65  35.6819  29.7424 i
 69.7  21.3928  29.7374 i
 69.75  22.3103  29.7325 i
 69.8  22.3937  29.7277 i
 69.85  34.3311  29.7229 i
 69.9  26.985  29.7181 i
 69.95  25.5893  29.7134 i
 70  19.6229  29.7087 i
 70.05  35.7085  29.704 i
 70.1  24.8075  29.6994 i
 70.15  31.4424  29.6948 i
 70.2  27.4019  29.6903 i
 70.25  36.2483  29.6858 i
 70.3  29.5109  29.6813 i
 70.35  24.0459  29.6769 i
 70.4  21.0488  29.6725 i
 70.45  37.8123  29.6682 i
 70.5  37.3351  29.6639 i
 70.55  24.4884  29.6596 i
 70.6  42.1743  29.6554 i
 70.65  35.4281  29.6513 i
 70.7  18.672  29.6471 i
 70.75  19.8216  29.643 i
 70.8  25.9222  29.639 i
 70.85  34.4737  29.635 i
 70.9  30.1948  29.631 i
 70.95  22.4865  29.6271 i
 71  37.199  29.6232 i
 71.05  25.1277  29.6194 i
 71.1  24.8409  29.6156 i
 71.15  37.9055  29.6118 i
 71.2  27.8209  29.6081 i
 71.25  24.549  29.6044 i
 71.3  31.7864  29.6008 i
 71.35  23.5279  29.5972 i
 71.4  22.7875  29.5937 i
 71.45  38.4347  29.5902 i
 71.5  23.6305  29.5867 i
 71.55  28.6916  29.5833 i
 71.6  41.5033  29.5799 i
 71.65  33.1882  29.5766 i
 71.7  29.2291  29.5733 i
 71.75  31.9454  29.5701 i
 71.8  26.1397  29.5669 i
 71.85  29.7498  29.5637 i
 71.9  36.2833  29.5606 i
 71.95  31.1674  29.5576 i
 72  30.6196  29.5545 i
 72.05  24.542  29.5516 i
 72.1  22.4718  29.5486 i
 72.15  30.6308  29.5458 i
 72.2  33.7547  29.5429 i
 72.25  32.6359  29.5401 i
 72.3  30.2798  29.5374 i
 72.35  30.1689  29.5347 i
 72.4  27.8917  29.532 i
 72.45  29.9075  29.5294 i
 72.5  30.5877  29.5268 i
 72.55  28.4425  29.5243 i
 72.6  26.9036  29.5218 i
 72.65  21.4155  29.5194 i
 72.7  30.5353  29.517 i
 72.75  24.1507  29.5147 i
 72.8  23.5087  29.5124 i
 72.85  36.9897  29.5101 i
 72.9  35.5267  29.5079 i
 72.95  24.1694  29.5058 i
 73  33.5215  29.5037 i
 73.05  26.974  29.5016 i
 73.1  20.79  29.4996 i
 73.15  39.217  29.4977 i
 73.2  18.363  29.4958 i
 73.25  29.4406  29.4941 i
 73.3  31.3509  29.4924 i
 73.35  33.2161  29.4908 i
 73.4  40.6567  29.4894 i
 73.45  45.0463  29.488 i
 73.5  24.749  29.4867 i
 73.55  28.8994  29.4855 i
 73.6  26.9629  29.4843 i
 73.65  20.657  29.4833 i
 73.7  23.4077  29.4823 i
 73.75  23.7433  29.4815 i
 73.8  28.314  29.4807 i
 73.85  43.8754  29.48 i
 73.9  18.3241  29.4794 i
 73.95  36.8931  29.4789 i
 74  27.8348  29.4784 i
 74.05  26.5733  29.4781 i
 74.1  26.8319  29.4778 i
 74.15  25.7566  29.4776 i
 74.2  17.145  29.4775 i
 74.25  35.1148  29.4775 i
 74.3  24.6456  29.4775 i
 74.35  37.8426  29.4776 i
 74.4  32.8779  29.4779 i
 74.45  32.3832  29.4782 i
 74.5  22.6557  29.4785 i
 74.55  21.1454  29.479 i
 74.6  25.6752  29.4795 i
 74.65  25.0611  29.4801 i
 74.7  30.7618  29.4808 i
 74.75  32.7171  29.4816 i
 74.8  36.1734  29.4824 i
 74.85  38.971  29.4833 i
 74.9  28.8931  29.4843 i
 74.95  22.8074  29.4854 i
 75  34.1997  29.4865 i
 75.05  24.4123  29.4878 i
 75.1  29.6884  29.489 i
 75.15  37.5334  29.4904 i
 75.2  33.0236  29.4918 i
 75.25  39.282  29.4933 i
 75.3  22.7225  29.4949 i
 75.35  36.0635  29.4966 i
 75.4  27.5428  29.4983 i
 75.45  39.0751  29.5001 i
 75.5  36.5654  29.502 i
 75.55  35.9157  29.5039 i
 75.6  29.6682  29.5059 i
 75.65  23.5313  29.508 i
 75.7  22.3487  29.5101 i
 75.75  26.8522  29.5123 i
 75.8  40.586  29.5146 i
 75.85  34.9622  29.5169 i
 75.9  24.131  29.5193 i
 75.95  29.9982  29.5218 i
 76  22.3329  29.5243 i
 76.05  34.2174  29.5269 i
 76.1  29.5554  29.5296 i
 76.15  27.1554  29.5323 i
 76.2  31.8356  29.5351 i
 76.25  31.5729  29.538 i
 76.3  27.7778  29.5409 i
 76.35  20.296  29.5439 i
 76.4  30.3608  29.5469 i
 76.45  24.4446  29.55 i
 76.5  26.2308  29.5532 i
 76.55  31.5716  29.5564 i
 76.6  42.4408  29.5597 i
 76.65  21.6585  29.563 i
 76.7  35.4218  29.5664 i
 76.75  20.9355  29.5699 i
 76.8  28.4623  29.5734 i
 76.85  29.3846  29.577 i
 76.9  25.5126  29.5806 i
 76.95  19.0907  29.5843 i
 77  32.8176  29.588 i
 77.05  37.1412  29.5918 i
 77.1  24.5723  29.5957 i
 77.15  23.7305  29.5996 i
 77.2  25.323  29.6036 i
 77.25  22.021  29.6076 i
 77.3  22.5742  29.6117 i
 77.35  33.0678  29.6158 i
 77.4  40.0624  29.62 i
 77.45  43.2275  29.6242 i
 77.5  29.5215  29.6285 i
 77.55  18.8333  29.6328 i
 77.6  23.8352  29.6372 i
 77.65  26.9583  29.6416 i
 77.7  30.5306  29.6461 i
 77.75  33.5778  29.6506 i
 77.8  30.1371  29.6552 i
 77.85  27.2908  29.6598 i
 77.9  23.8775  29.6644 i
 77.95  27.3337  29.6692 i
 78  33.5457  29.6739 i
 78.05  27.3906  29.6787 i
 78.1  31.1364  29.6836 i
 78.15  31.8519  29.6885 i
 78.2  25.9059  29.6934 i
 78.25  28.6971  29.6984 i
 78.3  27.398  29.7034 i
 78.35  29.4587  29.7085 i
 78.4  25.1465  29.7136 i
 78.45  35.9635  29.7188 i
 78.5  35.417  29.724 i
 78.55  25.3494  29.7292 i
 78.6  29.9619  29.7345 i
 78.65  24.0065  29.7398 i
 78.7  21.4521  29.7452 i
 78.75  27.4424  29.7506 i
 78.8  34.223  29.7561 i
 78.85  31.334  29.7615 i
 78.9  23.7581  29.7671 i
 78.95  31.5803  29.7726 i
 79  23.5001  29.7782 i
 79.05  37.7203  29.7838 i
 79.1  26.6516  29.7895 i
 79.15  34.0173  29.7952 i
 79.2  23.8466  29.8009 i
 79.25  29.1274  29.8067 i
 79.3  31.6022  29.8125 i
 79.35  26.0335  29.8184 i
 79.4  33.4471  29.8242 i
 79.45  25.3779  29.8301 i
 79.5  34.5618  29.8361 i
 79.55  27.273  29.842 i
 79.6  22.4624  29.848 i
 79.65  31.2974  29.8541 i
 79.7  30.3612  29.8601 i
 79.75  26.309  29.8662 i
 79.8  28.2208  29.8723 i
 79.85  15.1065  29.8785 i
 79.9  27.0086  29.8847 i
 79.95  29.7142  29.8909 i
 80  26.5768  29.8971 i
 80.05  25.4044  29.9034 i
 80.1  27.7714  29.9097 i
 80.15  32.6968  29.916 i
 80.2  29.6922  29.9223 i
 80.25  22.3528  29.9287 i
 80.3  37.1451  29.9351 i
 80.35  24.4557  29.9415 i
 80.4  33.6397  29.9479 i
 80.45  30.134  29.9544 i
 80.5  26.3717  29.9609 i
 80.55  34.9917  29.9674 i
 80.6  26.1865  29.9739 i
 80.65  19.4033  29.9805 i
 80.7  29.1374  29.9871 i
 80.75  35.0041  29.9936 i
 80.8  26.566  30.0003 i
 80.85  30.4383  30.0069 i
 80.9  21.5156  30.0136 i
 80.95  36.0647  30.0202 i
 81  36.8213  30.0269 i
 81.05  38.587  30.0336 i
 81.1  33.4695  30.0403 i
 81.15  24.3195  30.0471 i
 81.2  29.8197  30.0538 i
 81.25  25.3604  30.0606 i
 81.3  29.2934  30.0674 i
 81.35  29.7221  30.0742 i
 81.4  30.1811  30.081 i
 81.45  29.4859  30.0879 i
 81.5  23.1939  30.0947 i
 81.55  26.5662  30.1016 i
 81.6  33.5122  30.1084 i
 81.65  33.5899  30.1153 i
 81.7  39.4048  30.1222 i
 81.75  36.3479  30.1291 i
 81.8  44.2479  30.1361 i
 81.85  45.3231  30.143 i
 81.9  61.6348  30.1499 i
 81.95  66.3684  30.1569 i
 82  101.885  30.1638 i
 82.05  120.429  30.1708 i
 82.1  136.498  30.1778 i
 82.15  129.37  30.1847 i
 82.2  116.579  30.1917 i
 82.25  101.161  30.1987 i
 82.3  98.5084  30.2057 i
 82.35  83.6568  30.2127 i
 82.4  49.5487  30.2197 i
 82.45  40.9399  30.2268 i
 82.5  44.7177  30.2338 i
 82.55  37.4146  30.2408 i
 82.6  37.5848  30.2478 i
 82.65  38.316  30.2549 i
 82.7  31.0318  30.2619 i
 82.75  36.1296  30.2689 i
 82.8  31.334  30.276 i
 82.85  30.5714  30.283 i
 82.9  29.1972  30.29 i
 82.95  33.3501  30.2971 i
 83  25.6083  30.3041 i
 83.05  24.2522  30.3111 i
 83.1  26.9648  30.3182 i
 83.15  37.1545  30.3252 i
 83.2  31.5147  30.3322 i
 83.25  23.609  30.3392 i
 83.3  39.1568  30.3463 i
 83.35  37.4391  30.3533 i
 83.4  27.5873  30.3603 i
 83.45  32.844  30.3673 i
 83.5  27.2836  30.3743 i
 83.55  33.5801  30.3813 i
 83.6  28.0506  30.3883 i
 83.65  31.9124  30.3953 i
 83.7  35.8457  30.4023 i
 83.75  27.1694  30.4092 i
 83.8  35.6738  30.4162 i
 83.85  24.6263  30.4232 i
 83.9  33.9874  30.4301 i
 83.95  24.1252  30.437 i
 84  27.9692  30.444 i
 84.05  31.2566  30.4509 i
 84.1  42.1753  30.4578 i
 84.15  36.5322  30.4647 i
 84.2  33.9495  30.4716 i
 84.25  28.0954  30.4784 i
 84.3  43.7675  30.4853 i
 84.35  23.8535  30.4921 i
 84.4  32.5239  30.4989 i
 84.45  30.9639  30.5058 i
 84.5  36.9205  30.5126 i
 84.55  40.1491  30.5194 i
 84.6  23.3259  30.5261 i
 84.65  34.9483  30.5329 i
 84.7  33.3065  30.5396 i
 84.75  41.4072  30.5463 i
 84.8  24.7546  30.553 i
 84.85  35.7823  30.5597 i
 84.9  34.4979  30.5664 i
 84.95  21.4283  30.573 i
 85  29.9722  30.5797 i
 85.05  27.6387  30.5863 i
 85.1  38.948  30.5929 i
 85.15  29.5517  30.5994 i
 85.2  37.0176  30.606 i
 85.25  23.1476  30.6125 i
 85.3  25.9555  30.619 i
 85.35  25.7748  30.6255 i
 85.4  26.3186  30.6319 i
 85.45  19.5986  30.6384 i
 85.5  34.6609  30.6448 i
 85.55  35.5974  30.6512 i
 85.6  22.6048  30.6575 i
 85.65  29.9333  30.6639 i
 85.7  38.3327  30.6702 i
 85.75  32.1503  30.6764 i
 85.8  30.9165  30.6827 i
 85.85  33.3401  30.6889 i
 85.9  28.255  30.6951 i
 85.95  35.4707  30.7013 i
 86  22.4758  30.7074 i
 86.05  26.4006  30.7136 i
 86.1  32.8515  30.7196 i
 86.15  19.1826  30.7257 i
 86.2  27.1328  30.7317 i
 86.25  30.4741  30.7377 i
 86.3  44.0558  30.7437 i
 86.35  30.0454  30.7496 i
 86.4  33.034  30.7555 i
 86.45  23.9251  30.7614 i
 86.5  29.7187  30.7672 i
 86.55  35.9337  30.773 i
 86.6  31.5904  30.7787 i
 86.65  27.7721  30.7845 i
 86.7  27.0826  30.7902 i
 86.75  26.6367  30.7958 i
 86.8  30.064  30.8014 i
 86.85  30.2556  30.807 i
 86.9  28.1702  30.8126 i
 86.95  27.9059  30.8181 i
 87  23.6452  30.8235 i
 87.05  26.9194  30.829 i
 87.1  32.3678  30.8344 i
 87.15  27.5957  30.8397 i
 87.2  24.2127  30.845 i
 87.25  34.9644  30.8503 i
 87.3  21.8062  30.8555 i
 87.35  29.0959  30.8607 i
 87.4  33.1176  30.8659 i
 87.45  20.4837  30.871 i
 87.5  29.3619  30.876 i
 87.55  21.562  30.881 i
 87.6  26.8159  30.886 i
 87.65  39.9785  30.8909 i
 87.7  33.0195  30.8958 i
 87.75  19.9285  30.9007 i
 87.8  18.0175  30.9055 i
 87.85  35.0791  30.9102 i
 87.9  34.6949  30.9149 i
 87.95  33.5762  30.9196 i
 88  19.8981  30.9242 i
 88.05  29.928  30.9287 i
 88.1  29.8828  30.9332 i
 88.15  34.9895  30.9377 i
 88.2  19.5239  30.9421 i
 88.25  40.1078  30.9465 i
 88.3  37.7413  30.9508 i
 88.35  24.4274  30.9551 i
 88.4  26.1474  30.9593 i
 88.45  38.1028  30.9634 i
 88.5  22.9362  30.9675 i
 88.55  28.6778  30.9716 i
 88.6  31.8091  30.9756 i
 88.65  29.4178  30.9795 i
 88.7  36.2395  30.9834 i
 88.75  32.8507  30.9873 i
 88.8  39.9805  30.991 i
 88.85  33.2817  30.9948 i
 88.9  32.7426  30.9984 i
 88.95  36.2612  31.0021 i
 89  30.1295  31.0056 i
 89.05  30.2802  31.0091 i
 89.1  25.4092  31.0126 i
 89.15  27.2316  31.0159 i
 89.2  26.6687  31.0193 i
 89.25  28.4616  31.0225 i
 89.3  28.4824  31.0257 i
 89.35  30.9819  31.0289 i
 89.4  27.1812  31.032 i
 89.45  22.8056  31.035 i
 89.5  36.0105  31.038 i
 89.55  25.9286  31.0409 i
 89.6  30.6004  31.0437 i
 89.65  30.2362  31.0465 i
 89.7  33.0402  31.0492 i
 89.75  27.8547  31.0518 i
 89.8  34.5142  31.0544 i
 89.85  25.108  31.0569 i
 89.9  33.488  31.0594 i
 89.95  30.5833  31.0618 i
 90  27.7247  31.0641 i
 90.05  24.8678  31.0663 i
 90.1  29.5499  31.0685 i
 90.15  32.3225  31.0706 i
 90.2  23.1427  31.0727 i
 90.25  36.478  31.0747 i
 90.3  30.1102  31.0766 i
 90.35  28.6511  31.0784 i
 90.4  29.5224  31.0802 i
 90.45  31.2822  31.0819 i
 90.5  30.3798  31.0835 i
 90.55  23.6317  31.0851 i
 90.6  30.5591  31.0866 i
 90.65  30.9508  31.088 i
 90.7  37.6037  31.0893 i
 90.75  30.8038  31.0906 i
 90.8  30.7781  31.0918 i
 90.85  33.1956  31.0929 i
 90.9  30.3343  31.094 i
 90.95  36.4278  31.0949 i
 91  39.096  31.0958 i
 91.05  29.6067  31.0967 i
 91.1  27.7562  31.0974 i
 91.15  31.8677  31.0981 i
 91.2  29.9306  31.0986 i
 91.25  21.7978  31.0992 i
 91.3  21.1506  31.0996 i
 91.35  27.8789  31.0999 i
 91.4  35.5133  31.1002 i
 91.45  35.759  31.1004 i
 91.5  35.6159  31.1005 i
 91.55  29.0541  31.1006 i
 91.6  23.9076  31.1006 i
 91.65  36.2678  31.1005 i
 91.7  23.2372  31.1004 i
 91.75  34.4094  31.1001 i
 91.8  27.4364  31.0998 i
 91.85  22.7338  31.0995 i
 91.9  31.6901  31.0991 i
 91.95  30.3113  31.0986 i
 92  23.4362  31.098 i
 92.05  35.088  31.0974 i
 92.1  36.3953  31.0967 i
 92.15  29.2014  31.0959 i
 92.2  31.6982  31.0951 i
 92.25  25.2557  31.0942 i
 92.3  18.2698  31.0932 i
 92.35  24.4485  31.0922 i
 92.4  26.0651  31.0911 i
 92.45  25.1614  31.09 i
 92.5  29.5543  31.0888 i
 92.55  26.2685  31.0875 i
 92.6  31.2645  31.0861 i
 92.65  32.1146  31.0847 i
 92.7  30.8466  31.0833 i
 92.75  23.5015  31.0817 i
 92.8  39.1437  31.0801 i
 92.85  30.851  31.0785 i
 92.9  25.5286  31.0768 i
 92.95  25.2581  31.075 i
 93  33.5475  31.0732 i
 93.05  46.4138  31.0713 i
 93.1  26.1381  31.0693 i
 93.15  18.2047  31.0673 i
 93.2  24.5594  31.0653 i
 93.25  30.0272  31.0632 i
 93.3  28.4087  31.061 i
 93.35  25.5464  31.0587 i
 93.4  32.0509  31.0565 i
 93.45  24.3519  31.0541 i
 93.5  27.7326  31.0517 i
 93.55  31.6963  31.0492 i
 93.6  22.6785  31.0467 i
 93.65  36.0865  31.0442 i
 93.7  25.4728  31.0415 i
 93.75  34.3424  31.0389 i
 93.8  27.1779  31.0361 i
 93.85  28.3975  31.0334 i
 93.9  29.4344  31.0305 i
 93.95  30.3721  31.0276 i
 94  31.4189  31.0247 i
 94.05  31.5581  31.0217 i
 94.1  23.8125  31.0187 i
 94.15  27.1168  31.0156 i
 94.2  27.3919  31.0125 i
 94.25  30.9497  31.0093 i
 94.3  22.8182  31.006 i
 94.35  35.9773  31.0027 i
 94.4  33.0566  30.9994 i
 94.45  26.2672  30.996 i
 94.5  30.5745  30.9926 i
 94.55  28.6516  30.9891 i
 94.6  42.677  30.9856 i
 94.65  26.7176  30.982 i
 94.7  27.405  30.9784 i
 94.75  29.5711  30.9748 i
 94.8  27.2196  30.971 i
 94.85  27.7437  30.9673 i
 94.9  31.5667  30.9635 i
 94.95  17.0894  30.9597 i
 95  29.6745  30.9558 i
 95.05  30.0801  30.9519 i
 95.1  28.8797  30.9479 i
 95.15  33.8445  30.9439 i
 95.2  25.8509  30.9398 i
 95.25  35.6512  30.9357 i
 95.3  30.3331  30.9316 i
 95.35  38.8521  30.9274 i
 95.4  26.0552  30.9232 i
 95.45  34.2365  30.9189 i
 95.5  34.7213  30.9146 i
 95.55  29.3355  30.9103 i
 95.6  26.6861  30.9059 i
 95.65  36.6285  30.9015 i
 95.7  41.9414  30.8971 i
 95.75  22.23  30.8926 i
 95.8  29.329  30.888 i
 95.85  24.7168  30.8835 i
 95.9  36.3453  30.8789 i
 95.95  26.7639  30.8743 i
 96  30.2778  30.8696 i
 96.05  22.9908  30.8649 i
 96.1  32.1503  30.8601 i
 96.15  34.6081  30.8554 i
 96.2  30.5258  30.8506 i
 96.25  30.3414  30.8457 i
 96.3  32.8203  30.8408 i
 96.35  29.7915  30.8359 i
 96.4  31.0804  30.831 i
 96.45  27.9235  30.826 i
 96.5  20.4065  30.821 i
 96.55  27.2414  30.816 i
 96.6  22.0838  30.8109 i
 96.65  37.6112  30.8058 i
 96.7  31.9393  30.8007 i
 96.75  32.8718  30.7955 i
 96.8  32.7954  30.7903 i
 96.85  26.5024  30.7851 i
 96.9  26.3409  30.7799 i
 96.95  27.5566  30.7746 i
 97  24.756  30.7693 i
 97.05  28.6642  30.764 i
 97.1  37.3922  30.7586 i
 97.15  21.9745  30.7533 i
 97.2  32.1405  30.7479 i
 97.25  29.7337  30.7424 i
 97.3  35.7649  30.737 i
 97.35  29.4281  30.7315 i
 97.4  34.7561  30.726 i
 97.45  27.3384  30.7205 i
 97.5  33.9964  30.7149 i
 97.55  30.7243  30.7093 i
 97.6  43.6233  30.7037 i
 97.65  31.6978  30.6981 i
 97.7  27.9639  30.6925 i
 97.75  31.8624  30.6868 i
 97.8  38.5394  30.6811 i
 97.85  38.0333  30.6754 i
 97.9  24.0279  30.6697 i
 97.95  35.3786  30.664 i
 98  32.8459  30.6582 i
 98.05  31.3902  30.6524 i
 98.1  29.2421  30.6466 i
 98.15  27.2585  30.6408 i
 98.2  38.6487  30.6349 i
 98.25  46.7946  30.6291 i
 98.3  41.5212  30.6232 i
 98.35  43.7895  30.6173 i
 98.4  42.2253  30.6114 i
 98.45  54.7614  30.6055 i
 98.5  48.5128  30.5995 i
 98.55  66.8927  30.5936 i
 98.6  71.1961  30.5876 i
 98.65  80.0722  30.5816 i
 98.7  75.5033  30.5756 i
 98.75  75.6204  30.5696 i
 98.8  69.3713  30.5636 i
 98.85  72.5983  30.5576 i
 98.9  43.321  30.5515 i
 98.95  42.211  30.5455 i
 99  40.0938  30.5394 i
 99.05  46.8122  30.5333 i
 99.1  40.2384  30.5272 i
 99.15  29.9154  30.5211 i
 99.2  42.0847  30.515 i
 99.25  37.8932  30.5089 i
 99.3  30.922  30.5027 i
 99.35  31.7908  30.4966 i
 99.4  27.3306  30.4904 i
 99.45  29.4282  30.4843 i
 99.5  31.0794  30.4781 i
 99.55  29.6346  30.4719 i
 99.6  28.3662  30.4657 i
 99.65  38.2321  30.4595 i
 99.7  23.361  30.4534 i
 99.75  27.1093  30.4472 i
 99.8  31.2139  30.441 i
 99.85  28.2423  30.4347 i
 99.9  28.3932  30.4285 i
 99.95  23.2094  30.4223 i
 100  33.3585  30.4161 i
 100.05  28.4142  30.4099 i
 100.1  23.716  30.4036 i
 100.15  26.1728  30.3974 i
 100.2  28.849  30.3912 i
 100.25  30.8106  30.3849 i
 100.3  32.1379  30.3787 i
 100.35  31.9125  30.3725 i
 100.4  23.8194  30.3662 i
 100.45  33.0209  30.36 i
 100.5  22.7506  30.3538 i
 100.55  32.8873  30.3475 i
 100.6  34.9173  30.3413 i
 100.65  20.1477  30.3351 i
 100.7  25.8383  30.3288 i
 100.75  30.8461  30.3226 i
 100.8  28.9031  30.3164 i
 100.85  27.0474  30.3102 i
 100.9  26.8009  30.3039 i
 100.95  27.34  30.2977 i
 101  21.3838  30.2915 i
 101.05  31.4873  30.2853 i
 101.1  30.0174  30.2791 i
 101.15  31.8856  30.2729 i
 101.2  34.6923  30.2667 i
 101.25  28.9296  30.2605 i
 101.3  36.3957  30.2544 i
 101.35  32.2503  30.2482 i
 101.4  21.3934  30.242 i
 101.45  28.5885  30.2359 i
 101.5  45.3176  30.2297 i
 101.55  31.1674  30.2236 i
 101.6  23.5972  30.2175 i
 101.65  38.1897  30.2114 i
 101.7  22.8716  30.2053 i
 101.75  38.2739  30.1992 i
 101.8  25.9887  30.1931 i
 101.85  36.4101  30.187 i
 101.9  35.7568  30.1809 i
 101.95  42.8928  30.1749 i
 102  39.6162  30.1689 i
 102.05  34.1104  30.1628 i
 102.1  22.2266  30.1568 i
 102.15  17.3709  30.1508 i
 102.2  39.0887  30.1448 i
 102.25  31.6761  30.1389 i
 102.3  35.4867  30.1329 i
 102.35  28.3006  30.127 i
 102.4  30.1992  30.121 i
 102.45  27.5912  30.1151 i
 102.5  26.2446  30.1092 i
 102.55  36.3012  30.1034 i
 102.6  39.3481  30.0975 i
 102.65  29.005  30.0917 i
 102.7  29.0181  30.0858 i
 102.75  33.359  30.08 i
 102.8  28.15  30.0743 i
 102.85  30.8896  30.0685 i
 102.9  23.6548  30.0627 i
 102.95  27.8128  30.057 i
 103  30.6713  30.0513 i
 103.05  31.5146  30.0456 i
 103.1  39.7672  30.04 i
 103.15  32.4934  30.0343 i
 103.2  34.5903  30.0287 i
 103.25  26.9161  30.0231 i
 103.3  39.4386  30.0175 i
 103.35  29.3362  30.012 i
 103.4  19.4174  30.0064 i
 103.45  33.7636  30.0009 i
 103.5  39.132  29.9954 i
 103.55  39.8462  29.99 i
 103.6  32.4046  29.9846 i
 103.65  25.8202  29.9791 i
 103.7  26.5509  29.9738 i
 103.75  47.1751  29.9684 i
 103.8  29.0623  29.9631 i
 103.85  23.4679  29.9578 i
 103.9  33.3141  29.9525 i
 103.95  30.6707  29.9473 i
 104  25.3531  29.9421 i
 104.05  28.2121  29.9369 i
 104.1  24.5046  29.9317 i
 104.15  31.6378  29.9266 i
 104.2  21.1961  29.9215 i
 104.25  27.2135  29.9164 i
 104.3  21.3484  29.9114 i
 104.35  39.9322  29.9064 i
 104.4  31.8761  29.9014 i
 104.45  25.0206  29.8965 i
 104.5  26.5122  29.8915 i
 104.55  16.7143  29.8867 i
 104.6  32.1456  29.8818 i
 104.65  30.1101  29.877 i
 104.7  24.3812  29.8722 i
 104.75  17.4687  29.8675 i
 104.8  30.8319  29.8628 i
 104.85  24.2486  29.8581 i
 104.9  25.3446  29.8535 i
 104.95  41.8019  29.8489 i
 105  47.26  29.8443 i
 105.05  24.3321  29.8398 i
 105.1  22.3823  29.8353 i
 105.15  19.9874  29.8308 i
 105.2  35.6686  29.8264 i
 105.25  37.5644  29.822 i
 105.3  29.0725  29.8177 i
 105.35  40.135  29.8134 i
 105.4  40.6214  29.8091 i
 105.45  42.9509  29.8049 i
 105.5  29.8354  29.8007 i
 105.55  37.7231  29.7966 i
 105.6  28.5464  29.7925 i
 105.65  25.309  29.7884 i
 105.7  20.9793  29.7844 i
 105.75  27.7922  29.7805 i
 105.8  30.6103  29.7765 i
 105.85  39.0026  29.7726 i
 105.9  21.4788  29.7688 i
 105.95  24.663  29.765 i
 106  25.6806  29.7613 i
 106.05  31.3754  29.7575 i
 106.1  25.0796  29.7539 i
 106.15  23.2061  29.7503 i
 106.2  40.7293  29.7467 i
 106.25  28.3716  29.7432 i
 106.3  38.0375  29.7397 i
 106.35  24.3357  29.7362 i
 106.4  38.0354  29.7329 i
 106.45  22.8153  29.7295 i
 106.5  27.0842  29.7262 i
 106.55  22.5862  29.723 i
 106.6  24.2408  29.7198 i
 106.65  24.3665  29.7167 i
 106.7  29.6344  29.7136 i
 106.75  24.4136  29.7105 i
 106.8  26.396  29.7075 i
 106.85  22.99  29.7046 i
 106.9  22.2255  29.7017 i
 106.95  39.5793  29.6989 i
 107  28.1172  29.6961 i
 107.05  21.7678  29.6932 i
 107.1  31.8224  29.6905 i
 107.15  30.1871  29.6877 i
 107.2  26.8  29.6849 i
 107.25  30.3516  29.6822 i
 107.3  35.5978  29.6795 i
 107.35  31.9832  29.6767 i
 107.4  35.4446  29.674 i
 107.45  31.9147  29.6713 i
 107.5  39.541  29.6687 i
 107.55  32.3006  29.666 i
 107.6  23.5083  29.6634 i
 107.65  24.0043  29.6607 i
 107.7  30.9735  29.6581 i
 107.75  29.4406  29.6555 i
 107.8  27.5826  29.6529 i
 107.85  25.5866  29.6504 i
 107.9  19.2166  29.6478 i
 107.95  19.7116  29.6453 i
 108  28.8173  29.6427 i
 108.05  30.9659  29.6402 i
 108.1  28.7661  29.6377 i
 108.15  20.1148  29.6352 i
 108.2  33.0448  29.6327 i
 108.25  31.8985  29.6303 i
 108.3  27.5828  29.6278 i
 108.35  28.747  29.6254 i
 108.4  30.5173  29.623 i
 108.45  27.5212  29.6206 i
 108.5  21.0584  29.6182 i
 108.55  31.6777  29.6158 i
 108.6  28.2596  29.6134 i
 108.65  25.5812  29.611 i
 108.7  24.1155  29.6087 i
 108.75  27.9848  29.6064 i
 108.8  33.1499  29.6041 i
 108.85  29.2696  29.6018 i
 108.9  33.6907  29.5995 i
 108.95  29.3111  29.5972 i
 109  20.8381  29.5949 i
 109.05  27.0681  29.5927 i
 109.1  22.4286  29.5904 i
 109.15  28.2553  29.5882 i
 109.2  36.3509  29.586 i
 109.25  31.7069  29.5838 i
 109.3  25.834  29.5816 i
 109.35  36.1536  29.5794 i
 109.4  27.0958  29.5773 i
 109.45  37.3088  29.5751 i
 109.5  35.7049  29.573 i
 109.55  28.8096  29.5708 i
 109.6  26.7656  29.5687 i
 109.65  24.795  29.5666 i
 109.7  27.5187  29.5645 i
 109.75  26.519  29.5625 i
 109.8  27.1832  29.5604 i
 109.85  30.9253  29.5584 i
 109.9  30.8624  29.5563 i
 109.95  40.7425  29.5543 i
 110  24.9834  29.5523 i
 110.05  26.9308  29.5503 i
 110.1  31.946  29.5483 i
 110.15  19.2454  29.5463 i
 110.2  28.3095  29.5443 i
 110.25  37.8743  29.5424 i
 110.3  26.44  29.5404 i
 110.35  29.8895  29.5385 i
 110.4  24.3115  29.5366 i
 110.45  27.0117  29.5347 i
 110.5  35.0594  29.5328 i
 110.55  23.5163  29.5309 i
 110.6  28.8327  29.529 i
 110.65  27.543  29.5271 i
 110.7  21.1889  29.5253 i
 110.75  21.6917  29.5235 i
 110.8  29.3321  29.5216 i
 110.85  31.4228  29.5198 i
 110.9  40.5645  29.518 i
 110.95  29.3978  29.5162 i
 111  34.2019  29.5144 i
 111.05  38.8828  29.5126 i
 111.1  32.5638  29.5109 i
 111.15  27.775  29.5091 i
 111.2  32.7234  29.5074 i
 111.25  27.521  29.5057 i
 111.3  32.544  29.5039 i
 111.35  27.5656  29.5022 i
 111.4  26.5276  29.5005 i
 111.45  19.4603  29.4988 i
 111.5  24.545  29.4972 i
 111.55  32.7891  29.4955 i
 111.6  30.4139  29.4939 i
 111.65  28.7661  29.4922 i
 111.7  30.2886  29.4906 i
 111.75  23.3828  29.4889 i
 111.8  39.1568  29.4873 i
 111.85  27.5618  29.4857 i
 111.9  19.2843  29.4841 i
 111.95  27.1368  29.4826 i
 112  34.8496  29.481 i
 112.05  34.2439  29.4794 i
 112.1  26.3826  29.4779 i
 112.15  29.8169  29.4763 i
 112.2  30.6762  29.4748 i
 112.25  22.6697  29.4733 i
 112.3  33.6066  29.4718 i
 112.35  30.1488  29.4703 i
 112.4  33.9628  29.4688 i
 112.45  31.6345  29.4673 i
 112.5  24.1749  29.4658 i
 112.55  26.1375  29.4644 i
 112.6  28.5285  29.4629 i
 112.65  25.5314  29.4615 i
 112.7  35.3711  29.46 i
 112.75  38.3287  29.4586 i
 112.8  42.4174  29.4572 i
 112.85  25.8328  29.4558 i
 112.9  28.9769  29.4544 i
 112.95  31.1136  29.453 i
 113  25.9778  29.4516 i
 113.05  29.7204  29.4503 i
 113.1  23.536  29.4489 i
 113.15  26.8429  29.4475 i
 113.2  24.0542  29.4462 i
 113.25  34.1092  29.4449 i
 113.3  35.4924  29.4436 i
 113.35  30.321  29.4422 i
 113.4  24.3837  29.4409 i
 113.45  30.1437  29.4396 i
 113.5  34.3172  29.4384 i
 113.55  31.7998  29.4371 i
 113.6  27.2309  29.4358 i
 113.65  28.6749  29.4345 i
 113.7  35.0585  29.4333 i
 113.75  23.3503  29.432 i
 113.8  36.5353  29.4308 i
 113.85  26.1423  29.4296 i
 113.9  45.9966  29.4284 i
 113.95  27.01  29.4272 i
 114  35.3533  29.426 i
 114.05  25.1757  29.4248 i
 114.1  34.2794  29.4236 i
 114.15  18.7657  29.4224 i
 114.2  37.3744  29.4212 i
 114.25  31.3847  29.4201 i
 114.3  21.4744  29.4189 i
 114.35  31.2563  29.4178 i
 114.4  34.4112  29.4166 i
 114.45  34.279  29.4155 i
 114.5  29.0002  29.4144 i
 114.55  36.7739  29.4133 i
 114.6  21.8436  29.4122 i
 114.65  31.3195  29.4111 i
 114.7  38.005  29.41 i
 114.75  27.1134  29.4089 i
 114.8  35.3459  29.4078 i
 114.85  33.811  29.4068 i
 114.9  33.0789  29.4057 i
 114.95  28.7924  29.4047 i
 115  28.7208  29.4036 i
 115.05  31.9903  29.4026 i
 115.1  31.5828  29.4016 i
 115.15  47.2803  29.4005 i
 115.2  32.6076  29.3995 i
 115.25  39.8123  29.3985 i
 115.3  43.8753  29.3975 i
 115.35  30.5868  29.3965 i
 115.4  51.583  29.3955 i
 115.45  38.7725  29.3946 i
 115.5  53.6881  29.3936 i
 115.55  45.7983  29.3926 i
 115.6  49.525  29.3917 i
 115.65  37.1398  29.3907 i
 115.7  62.837  29.3898 i
 115.75  54.3836  29.3889 i
 115.8  54.6573  29.3879 i
 115.85  45.757  29.387 i
 115.9  73.3778  29.3861 i
 115.95  49.9747  29.3852 i
 116  67.2241  29.3843 i
 116.05  60.2932  29.3834 i
 116.1  70.8192  29.3825 i
 116.15  61.5573  29.3816 i
 116.2  59.0194  29.3807 i
 116.25  39.8239  29.3799 i
 116.3  50.4601  29.379 i
 116.35  60.577  29.3781 i
 116.4  49.5823  29.3773 i
 116.45  46.0057  29.3764 i
 116.5  48.65  29.3756 i
 116.55  43.4041  29.3748 i
 116.6  39.5382  29.3739 i
 116.65  39.7907  29.3731 i
 116.7  35.3464  29.3723 i
 116.75  29.685  29.3715 i
 116.8  33.4897  29.3707 i
 116.85  28.4576  29.3699 i
 116.9  35.5479  29.3691 i
 116.95  32.8921  29.3683 i
 117  36.3807  29.3675 i
 117.05  24.9011  29.3667 i
 117.1  23.6266  29.366 i
 117.15  37.3518  29.3652 i
 117.2  36.2812  29.3644 i
 117.25  31.41  29.3637 i
 117.3  29.2326  29.3629 i
 117.35  29.0272  29.3622 i
 117.4  27.3604  29.3615 i
 117.45  38.8756  29.3607 i
 117.5  32.8299  29.36 i
 117.55  28.7786  29.3593 i
 117.6  30.8845  29.3586 i
 117.65  25.6175  29.3578 i
 117.7  30.9147  29.3571 i
 117.75  34.956  29.3564 i
 117.8  41.0294  29.3557 i
 117.85  33.9712  29.3551 i
 117.9  34.8473  29.3544 i
 117.95  39.3038  29.3537 i
 118  30.9608  29.353 i
 118.05  25.7414  29.3523 i
 118.1  45.3834  29.3517 i
 118.15  37.2794  29.351 i
 118.2  39.5849  29.3503 i
 118.25  28.0193  29.3497 i
 118.3  26.5062  29.349 i
 118.35  26.5964  29.3484 i
 118.4  39.6853  29.3477 i
 118.45  30.6464  29.3471 i
 118.5  30.7968  29.3465 i
 118.55  27.7496  29.3458 i
 118.6  21.1036  29.3452 i
 118.65  37.8859  29.3446 i
 118.7  23.9468  29.344 i
 118.75  31.1005  29.3434 i
 118.8  32.6595  29.3428 i
 118.85  27.4698  29.3422 i
 118.9  32.8912  29.3416 i
 118.95  26.1458  29.341 i
 119  29.658  29.3404 i
 119.05  31.3475  29.3398 i
 119.1  28.9874  29.3392 i
 119.15  25.9415  29.3386 i
 119.2  21.7026  29.338 i
 119.25  30.49  29.3375 i
 119.3  23.0786  29.3369 i
 119.35  27.2593  29.3363 i
 119.4  22.5155  29.3358 i
 119.45  27.6432  29.3352 i
 119.5  28.5978  29.3346 i
 119.55  35.3762  29.3341 i
 119.6  27.9594  29.3335 i
 119.65  33.7289  29.333 i
 119.7  33.8478  29.3324 i
 119.75  25.7687  29.3319 i
 119.8  25.4911  29.3314 i
 119.85  22.2742  29.3308 i
 119.9  39.7933  29.3303 i
 119.95  32.999  29.3298 i
 120  30.1884  29.3292 i
 120.05  37.766  29.3287 i
 120.1  21.4606  29.3282 i
 120.15  24.7242  29.3277 i
 120.2  31.9061  29.3272 i
 120.25  28.7016  29.3267 i
 120.3  35.768  29.3261 i
 120.35  34.4003  29.3256 i
 120.4  27.1099  29.3251 i
 120.45  29.0092  29.3246 i
 120.5  35.0581  29.3241 i
 120.55  29.139  29.3236 i
 120.6  42.8076  29.3231 i
 120.65  22.6898  29.3227 i
 120.7  29.3984  29.3222 i
 120.75  32.067  29.3217 i
 120.8  34.4497  29.3212 i
 120.85  33.4432  29.3207 i
 120.9  34.0621  29.3202 i
 120.95  23.1108  29.3197 i
 121  37.1381  29.3193 i
 121.05  30.1419  29.3188 i
 121.1  41.2751  29.3183 i
 121.15  29.6901  29.3178 i
 121.2  39.175  29.3174 i
 121.25  47.0231  29.3169 i
 121.3  27.9437  29.3164 i
 121.35  23.6103  29.316 i
 121.4  22.6807  29.3155 i
 121.45  40.6551  29.3151 i
 121.5  32.8817  29.3146 i
 121.55  27.2516  29.3141 i
 121.6  26.06  29.3137 i
 121.65  30.5408  29.3132 i
 121.7  27.1518  29.3128 i
 121.75  38.0932  29.3123 i
 121.8  36.7441  29.3119 i
 121.85  26.2468  29.3114 i
 121.9  27.3346  29.311 i
 121.95  31.3422  29.3105 i
 122  27.8875  29.3101 i
 122.05  34.0835  29.3096 i
 122.1  24.0979  29.3092 i
 122.15  26.8836  29.3087 i
 122.2  24.6966  29.3083 i
 122.25  24.3978  29.3079 i
 122.3  28.9314  29.3074 i
 122.35  24.4264  29.307 i
 122.4  31.1286  29.3065 i
 122.45  34.0013  29.3061 i
 122.5  33.177  29.3057 i
 122.55  34.751  29.3052 i
 122.6  33.8592  29.3048 i
 122.65  22.607  29.3043 i
 122.7  27.1374  29.3039 i
 122.75  14.7435  29.3035 i
 122.8  24.0333  29.303 i
 122.85  36.8151  29.3026 i
 122.9  37.0123  29.3022 i
 122.95  30.7454  29.3017 i
 123  22.5458  29.3013 i
 123.05  34.4369  29.3009 i
 123.1  27.5274  29.3004 i
 123.15  37.155  29.3 i
 123.2  31.1323  29.2996 i
 123.25  27.2275  29.2991 i
 123.3  27.0982  29.2987 i
 123.35  24.061  29.2983 i
 123.4  35.1475  29.2978 i
 123.45  34.5771  29.2974 i
 123.5  26.2534  29.297 i
 123.55  33.657  29.2965 i
 123.6  28.6978  29.2961 i
 123.65  33.0113  29.2957 i
 123.7  21.023  29.2952 i
 123.75  20.6821  29.2948 i
 123.8  25.8079  29.2943 i
 123.85  20.1256  29.2939 i
 123.9  26.9594  29.2935 i
 123.95  32.3372  29.293 i
 124  29.3606  29.2926 i
 124.05  26.3226  29.2921 i
 124.1  38.3105  29.2917 i
 124.15  30.9073  29.2913 i
 124.2  32.5154  29.2908 i
 124.25  29.7796  29.2904 i
 124.3  28.347  29.2899 i
 124.35  33.5511  29.2895 i
 124.4  33.2563  29.289 i
 124.45  22.7845  29.2886 i
 124.5  21.9649  29.2881 i
 124.55  26.5638  29.2877 i
 124.6  23.1829  29.2872 i
 124.65  36.0042  29.2868 i
 124.7  23.9173  29.2863 i
 124.75  29.3105  29.2859 i
 124.8  19.3202  29.2854 i
 124.85  30.9933  29.2849 i
 124.9  34.5839  29.2845 i
 124.95  42.2307  29.284 i
 125  29.7877  29.2836 i
 125.05  30.4654  29.2831 i
 125.1  31.3691  29.2826 i
 125.15  27.0175  29.2822 i
 125.2  27.7883  29.2817 i
 125.25  31.7148  29.2812 i
 125.3  33.3601  29.2807 i
 125.35  28.4553  29.2803 i
 125.4  32.6989  29.2798 i
 125.45  38.2369  29.2793 i
 125.5  21.8364  29.2788 i
 125.55  28.5755  29.2783 i
 125.6  30.9371  29.2778 i
 125.65  29.8047  29.2773 i
 125.7  33.7662  29.2769 i
 125.75  28.434  29.2764 i
 125.8  39.0857  29.2759 i
 125.85  30.9  29.2754 i
 125.9  28.7928  29.2749 i
 125.95  22.2436  29.2744 i
 126  29.1828  29.2739 i
 126.05  36.6524  29.2733 i
 126.1  30.1637  29.2728 i
 126.15  43.7875  29.2723 i
 126.2  41.2272  29.2718 i
 126.25  32.7142  29.2713 i
 126.3  35.038  29.2708 i
 126.35  24.8497  29.2702 i
 126.4  30.3989  29.2697 i
 126.45  33.7499  29.2692 i
 126.5  30.9766  29.2686 i
 126.55  25.6488  29.2681 i
 126.6  19.7951  29.2676 i
 126.65  23.6886  29.267 i
 126.7  30.4921  29.2665 i
 126.75  21.8865  29.2659 i
 126.8  35.6876  29.2654 i
 126.85  19.5554  29.2648 i
 126.9  27.888  29.2642 i
 126.95  37.2122  29.2637 i
 127  25.3326  29.2631 i
 127.05  29.1828  29.2625 i
 127.1  23.3568  29.262 i
 127.15  38.2102  29.2614 i
 127.2  29.2873  29.2608 i
 127.25  29.7607  29.2602 i
 127.3  27.1686  29.2596 i
 127.35  30.702  29.259 i
 127.4  36.2843  29.2584 i
 127.45  26.7754  29.2578 i
 127.5  35.2111  29.2572 i
 127.55  28.2422  29.2566 i
 127.6  28.3986  29.256 i
 127.65  29.1487  29.2554 i
 127.7  24.2615  29.2548 i
 127.75  32.7333  29.2542 i
 127.8  25.5028  29.2535 i
 127.85  28.1185  29.2529 i
 127.9  26.4908  29.2523 i
 127.95  33.4485  29.2516 i
 128  37.4271  29.251 i
 128.05  23.1374  29.2503 i
 128.1  39.2891  29.2497 i
 128.15  22.3641  29.249 i
 128.2  32.6588  29.2483 i
 128.25  29.3541  29.2477 i
 128.3  37.5068  29.247 i
 128.35  23.9618  29.2463 i
 128.4  23.0138  29.2456 i
 128.45  32.7167  29.2449 i
 128.5  32.7432  29.2443 i
 128.55  34.5116  29.2436 i
 128.6  25.1439  29.2429 i
 128.65  30.8361  29.2422 i
 128.7  33.1641  29.2414 i
 128.75  21.7739  29.2407 i
 128.8  20.0551  29.24 i
 128.85  29.8  29.2393 i
 128.9  27.824  29.2385 i
 128.95  37.0015  29.2378 i
 129  28.5876  29.2371 i
 129.05  36.264  29.2363 i
 129.1  33.463  29.2356 i
 129.15  31.2826  29.2348 i
 129.2  24.0912  29.234 i
 129.25  23.5793  29.2333 i
 129.3  25.138  29.2325 i
 129.35  35.962  29.2317 i
 129.4  34.8788  29.2309 i
 129.45  21.3938  29.2301 i
 129.5  28.8312  29.2293 i
 129.55  31.9416  29.2285 i
 129.6  24.7985  29.2277 i
 129.65  24.8135  29.2269 i
 129.7  26.4077  29.2261 i
 129.75  32.2213  29.2252 i
 129.8  34.2723  29.2244 i
 129.85  25.9606  29.2236 i
 129.9  17.4868  29.2227 i
 129.95  33.339  29.2219 i
 130  26.4511  29.221 i

