
#Surface 0 of 1 surfaces

#IsoCurve 0, 1801 points
#x y z type
 40  35.7513  35.3256 i
 40.05  27.8124  35.3195 i
 40.1  33.3057  35.3135 i
 40.15  43.604  35.3104 i
 40.2  39.6789  35.3072 i
 40.25  29.0166  35.3021 i
 40.3  47.0008  35.2969 i
 40.35  40.2043  35.2932 i
 40.4  48.8365  35.2895 i
 40.45  37.7487  35.2853 i
 40.5  45.11  35.2812 i
 40.55  39.733  35.2769 i
 40.6  38.8857  35.2726 i
 40.65  44.6445  35.2696 i
 40.7  37.9716  35.2667 i
 40.75  39.786  35.2618 i
 40.8  39.8725  35.257 i
 40.85  33.9419  35.2553 i
 40.9  34.939  35.2536 i
 40.95  35.7616  35.2484 i
 41  37.8212  35.2432 i
 41.05  28.0221  35.2428 i
 41.1  45.6919  35.2425 i
 41.15  33.5047  35.2371 i
 41.2  40.2128  35.2318 i
 41.25  36.743  35.2328 i
 41.3  42.4488  35.2338 i
 41.35  35.8084  35.2287 i
 41.4  24.4025  35.2237 i
 41.45  32.2736  35.2261 i
 41.5  32.7526  35.2285 i
 41.55  32.3617  35.2242 i
 41.6  36.7348  35.2199 i
 41.65  29.3242  35.2237 i
 41.7  36.2158  35.2276 i
 41.75  25.3882  35.2247 i
 41.8  37.5206  35.2218 i
 41.85  42.4013  35.2273 i
 41.9  37.2089  35.2329 i
 41.95  42.0264  35.2322 i
 42  41.3039  35.2316 i
 42.05  43.4  35.2391 i
 42.1  32.3544  35.2466 i
 42.15  32.337  35.2493 i
 42.2  30.9037  35.2519 i
 42.25  33.4249  35.2622 i
 42.3  37.7864  35.2725 i
 42.35  38.0956  35.2799 i
 42.4  45.82  35.2874 i
 42.45  49.9409  35.3058 i
 42.5  32.4241  35.3158 i
 42.55  34.3285  35.3302 i
 42.6  40.5093  35.3445 i
 42.65  40.1913  35.3649 i
 42.7  30.2416  35.3852 i
 42.75  36.9278  35.4099 i
 42.8  29.978  35.4346 i
 42.85  35.7435  35.465 i
 42.9  32.3486  35.4954 i
 42.95  38.7319  35.5362 i
 43  28.8372  35.577 i
 43.05  33.1034  35.6251 i
 43.1  32.7966  35.6733 i
 43.15  37.8975  35.7423 i
 43.2  38.3961  35.8113 i
 43.25  34.8793  35.8994 i
 43.3  41.2576  35.9874 i
 43.35  35.4592  36.1564 i
 43.4  32.6799  36.3254 i
 43.45  36.9683  36.603 i
 43.5  31.5727  36.8805 i
 43.55  31.2618  37.1574 i
 43.6  39.6785  37.4343 i
 43.65  36.5252  37.7718 i
 43.7  41.8051  38.1094 i
 43.75  45.521  38.6134 i
 43.8  32.4713  39.1175 i
 43.85  39.4062  39.8622 i
 43.9  35.4304  40.6068 i
 43.95  41.9707  41.8541 i
 44  33.0128  43.1013 i
 44.05  43.1857  44.9727 i
 44.1  58.3227  47.5612 i
 44.15  49.6885  51.4557 i
 44.2  68.9944  57.1569 i
 44.25  82.1281  66.8684 i
 44.3  92.7992  84.1481 i
 44.35  145.798  119.655 i
 44.4  195.886  197.676 i
 44.45  384.132  365.679 i
 44.5  671.664  675.379 i
 44.55  1029.33  1092.91 i
 44.6  1296.64  1387.86 i
 44.65  1127.75  1227.13 i
 44.7  733.888  705.324 i
 44.75  341.792  329.616 i
 44.8  162.704  169.522 i
 44.85  106.894  105.448 i
 44.9  74.0375  76.4748 i
 44.95  60.9656  62.2629 i
 45  38.5067  53.7544 i
 45.05  45.68  49.5842 i
 45.1  43.7203  45.414 i
 45.15  34.9017  43.472 i
 45.2  30.1415  41.53 i
 45.25  37.598  40.447 i
 45.3  42.0903  39.3641 i
 45.35  49.812  38.6389 i
 45.4  48.0788  38.0756 i
 45.45  36.9736  37.6368 i
 45.5  30.7851  37.198 i
 45.55  35.4401  36.9079 i
 45.6  38.0777  36.6177 i
 45.65  39.4954  36.3905 i
 45.7  34.9515  36.1632 i
 45.75  29.3189  35.9952 i
 45.8  48.2149  35.8271 i
 45.85  31.5273  35.6646 i
 45.9  32.6702  35.5021 i
 45.95  27.9923  35.4037 i
 46  32.8117  35.3052 i
 46.05  34.9856  35.2165 i
 46.1  33.3089  35.1278 i
 46.15  24.9094  35.0635 i
 46.2  56.7959  35.0077 i
 46.25  41.2407  34.943 i
 46.3  35.3517  34.8816 i
 46.35  38.0534  34.8395 i
 46.4  26.8436  34.7974 i
 46.45  26.642  34.7492 i
 46.5  32.4524  34.7009 i
 46.55  30.3361  34.6694 i
 46.6  27.6405  34.6379 i
 46.65  39.8099  34.5992 i
 46.7  37.9357  34.5604 i
 46.75  34.3337  34.5355 i
 46.8  40.174  34.5106 i
 46.85  35.1681  34.4783 i
 46.9  31.6383  34.446 i
 46.95  31.8841  34.4253 i
 47  30.9062  34.4046 i
 47.05  28.3384  34.377 i
 47.1  40.3644  34.3494 i
 47.15  40.6099  34.3315 i
 47.2  27.8974  34.3135 i
 47.25  32.0591  34.2893 i
 47.3  41.7535  34.2652 i
 47.35  33.1747  34.249 i
 47.4  23.1993  34.2329 i
 47.45  26.8902  34.2114 i
 47.5  32.1362  34.1899 i
 47.55  30.161  34.175 i
 47.6  30.3247  34.16 i
 47.65  29.6852  34.1406 i
 47.7  36.3329  34.1212 i
 47.75  29.6536  34.107 i
 47.8  34.6283  34.0929 i
 47.85  29.809  34.0751 i
 47.9  26.8299  34.0574 i
 47.95  34.2372  34.0437 i
 48  37.2592  34.0301 i
 48.05  27.1022  34.0137 i
 48.1  28.6279  33.9974 i
 48.15  36.4289  33.984 i
 48.2  31.1261  33.9706 i
 48.25  30.542  33.9554 i
 48.3  42.3912  33.9403 i
 48.35  25.0275  33.927 i
 48.4  33.2329  33.9138 i
 48.45  25.8128  33.8996 i
 48.5  30.8788  33.8854 i
 48.55  26.5751  33.8722 i
 48.6  33.7954  33.8591 i
 48.65  31.1263  33.8457 i
 48.7  31.1952  33.8323 i
 48.75  41.5056  33.8192 i
 48.8  31.5156  33.8061 i
 48.85  28.8639  33.7933 i
 48.9  32.5916  33.7805 i
 48.95  29.1725  33.7674 i
 49  32.4013  33.7543 i
 49.05  47.7006  33.7422 i
 49.1  33.9135  33.73 i
 49.15  37.0792  33.7168 i
 49.2  33.1603  33.7037 i
 49.25  27.6216  33.6942 i
 49.3  35.9273  33.6847 i
 49.35  39.9487  33.6715 i
 49.4  42.3413  33.6584 i
 49.45  42.3284  33.6446 i
 49.5  21.3045  33.6357 i
 49.55  30.835  33.6226 i
 49.6  30.7486  33.6094 i
 49.65  26.193  33.5984 i
 49.7  35.4175  33.5874 i
 49.75  38.847  33.5742 i
 49.8  26.7643  33.561 i
 49.85  37.6654  33.5503 i
 49.9  31.0963  33.5395 i
 49.95  31.2172  33.5263 i
 50  35.8137  33.5131 i
 50.05  30.6031  33.5026 i
 50.1  38.1013  33.4921 i
 50.15  34.8311  33.4789 i
 50.2  26.0939  33.4656 i
 50.25  34.1449  33.4553 i
 50.3  39.4498  33.445 i
 50.35  33.679  33.4317 i
 50.4  52.9223  33.4185 i
 50.45  28.6434  33.4083 i
 50.5  31.9059  33.3981 i
 50.55  30.0668  33.3849 i
 50.6  25.8589  33.3716 i
 50.65  22.7012  33.3616 i
 50.7  29.6551  33.3515 i
 50.75  32.697  33.3383 i
 50.8  34.9488  33.325 i
 50.85  39.0847  33.3151 i
 50.9  24.8127  33.3051 i
 50.95  41.8669  33.2931 i
 51  20.653  33.2787 i
 51.05  26.8232  33.2688 i
 51.1  28.228  33.2589 i
 51.15  35.2963  33.2457 i
 51.2  33.4654  33.2324 i
 51.25  30.3096  33.2226 i
 51.3  31.0741  33.2128 i
 51.35  36.5384  33.1996 i
 51.4  27.1092  33.1864 i
 51.45  28.1092  33.1766 i
 51.5  39.9288  33.1668 i
 51.55  39.8125  33.1536 i
 51.6  32.0827  33.1405 i
 51.65  29.9113  33.1307 i
 51.7  37.7805  33.1209 i
 51.75  35.0768  33.1078 i
 51.8  33.2024  33.0946 i
 51.85  31.3326  33.0849 i
 51.9  30.9546  33.0752 i
 51.95  32.5172  33.062 i
 52  34.3183  33.0489 i
 52.05  38.1175  33.0392 i
 52.1  24.1692  33.0295 i
 52.15  31.9594  33.0164 i
 52.2  14.9076  33.0033 i
 52.25  31.3282  32.9936 i
 52.3  26.4091  32.9838 i
 52.35  30.2476  32.9708 i
 52.4  30.834  32.9578 i
 52.45  30.9634  32.948 i
 52.5  41.2778  32.9383 i
 52.55  26.7338  32.9253 i
 52.6  35.2165  32.9123 i
 52.65  31.0891  32.9026 i
 52.7  32.1526  32.8928 i
 52.75  30.3683  32.8799 i
 52.8  30.8225  32.8669 i
 52.85  42.2785  32.8572 i
 52.9  28.3489  32.8474 i
 52.95  41.2484  32.8345 i
 53  33.9183  32.8216 i
 53.05  30.3135  32.8118 i
 53.1  37.2271  32.8021 i
 53.15  31.7736  32.7892 i
 53.2  27.4638  32.7763 i
 53.25  34.0459  32.7666 i
 53.3  35.7707  32.7568 i
 53.35  25.9088  32.744 i
 53.4  24.5552  32.7311 i
 53.45  38.9919  32.7213 i
 53.5  32.8547  32.7116 i
 53.55  28.174  32.6988 i
 53.6  32.181  32.686 i
 53.65  28.938  32.6762 i
 53.7  38.2635  32.6664 i
 53.75  35.2006  32.6537 i
 53.8  32.1217  32.6409 i
 53.85  32.3515  32.6312 i
 53.9  28.8942  32.6214 i
 53.95  32.4603  32.6087 i
 54  28.8415  32.5959 i
 54.05  27.0827  32.5862 i
 54.1  25.0138  32.5764 i
 54.15  30.5457  32.5637 i
 54.2  33.3785  32.551 i
 54.25  31.3304  32.5412 i
 54.3  32.7687  32.5314 i
 54.35  24.9539  32.5188 i
 54.4  37.2173  32.5062 i
 54.45  40.1425  32.4964 i
 54.5  30.2349  32.4866 i
 54.55  30.5061  32.474 i
 54.6  39.6575  32.4615 i
 54.65  30.0118  32.4517 i
 54.7  27.0099  32.4418 i
 54.75  40.8148  32.4293 i
 54.8  29.2384  32.4169 i
 54.85  29.7901  32.407 i
 54.9  35.5928  32.3972 i
 54.95  39.0015  32.3847 i
 55  36.6172  32.3723 i
 55.05  32.2139  32.3624 i
 55.1  32.0769  32.3526 i
 55.15  24.8464  32.3402 i
 55.2  33.7918  32.3279 i
 55.25  27.9587  32.318 i
 55.3  31.6822  32.3081 i
 55.35  26.0164  32.2958 i
 55.4  36.7375  32.2836 i
 55.45  26.8933  32.2736 i
 55.5  31.3372  32.2637 i
 55.55  26.9693  32.2515 i
 55.6  29.7985  32.2394 i
 55.65  38.8932  32.2294 i
 55.7  39.7432  32.2194 i
 55.75  41.0438  32.2074 i
 55.8  33.9668  32.1953 i
 55.85  32.3765  32.1853 i
 55.9  37.3069  32.1753 i
 55.95  38.5272  32.1633 i
 56  26.3266  32.1513 i
 56.05  42.5789  32.1413 i
 56.1  30.6293  32.1312 i
 56.15  44.5172  32.1194 i
 56.2  27.4684  32.1076 i
 56.25  29.9458  32.0974 i
 56.3  30.8451  32.0873 i
 56.35  26.6108  32.0756 i
 56.4  25.9593  32.0639 i
 56.45  37.712  32.0537 i
 56.5  23.8558  32.0435 i
 56.55  36.0814  32.032 i
 56.6  26.9164  32.0204 i
 56.65  33.2366  32.0102 i
 56.7  35.7735  31.9999 i
 56.75  29.7467  31.9885 i
 56.8  29.0501  31.9771 i
 56.85  35.1989  31.9668 i
 56.9  30.8904  31.9564 i
 56.95  38.1222  31.9452 i
 57  34.4175  31.934 i
 57.05  31.8791  31.9236 i
 57.1  27.8594  31.9131 i
 57.15  23.6243  31.9021 i
 57.2  37.6394  31.8911 i
 57.25  28.8851  31.8806 i
 57.3  30.8474  31.87 i
 57.35  31.7365  31.8592 i
 57.4  34.1827  31.8484 i
 57.45  27.6401  31.8377 i
 57.5  34.383  31.8271 i
 57.55  37.6876  31.8165 i
 57.6  28.4172  31.8059 i
 57.65  27.0055  31.7951 i
 57.7  36.9548  31.7843 i
 57.75  32.324  31.7739 i
 57.8  41.5495  31.7636 i
 57.85  25.8451  31.7527 i
 57.9  25.3139  31.7418 i
 57.95  32.312  31.7317 i
 58  32.8586  31.7215 i
 58.05  33.0643  31.7105 i
 58.1  26.064  31.6995 i
 58.15  22.9023  31.6896 i
 58.2  33.5287  31.6797 i
 58.25  31.5388  31.6686 i
 58.3  23.654  31.6575 i
 58.35  36.8512  31.6478 i
 58.4  26.7129  31.6381 i
 58.45  25.1529  31.6269 i
 58.5  39.3168  31.6157 i
 58.55  28.3056  31.6063 i
 58.6  29.4649  31.5968 i
 58.65  30.0441  31.5855 i
 58.7  30.8874  31.5743 i
 58.75  30.071  31.565 i
 58.8  20.9554  31.5557 i
 58.85  23.5247  31.5444 i
 58.9  23.6052  31.5331 i
 58.95  32.4062  31.5241 i
 59  23.5666  31.515 i
 59.05  36.0488  31.5037 i
 59.1  21.8841  31.4923 i
 59.15  39.3927  31.4834 i
 59.2  22.5506  31.4746 i
 59.25  28.3344  31.4632 i
 59.3  33.953  31.4519 i
 59.35  28.0074  31.4432 i
 59.4  49.9019  31.4344 i
 59.45  26.2561  31.4231 i
 59.5  21.7721  31.4119 i
 59.55  34.8459  31.4033 i
 59.6  20.9195  31.3947 i
 59.65  21.149  31.3835 i
 59.7  32.2364  31.3724 i
 59.75  21.6358  31.3638 i
 59.8  30.0564  31.3553 i
 59.85  26.3289  31.3443 i
 59.9  26.0153  31.3333 i
 59.95  21.7891  31.3142 i
 60  39.4171  31.2951 i
 60.05  35.8491  31.2855 i
 60.1  31.0056  31.2758 i
 60.15  35.0116  31.2663 i
 60.2  33.2971  31.2567 i
 60.25  30.3303  31.2472 i
 60.3  26.2863  31.2377 i
 60.35  35.0762  31.2283 i
 60.4  36.8164  31.2188 i
 60.45  20.8321  31.2095 i
 60.5  27.257  31.2002 i
 60.55  34.5821  31.1909 i
 60.6  24.6815  31.1816 i
 60.65  25.7916  31.1725 i
 60.7  32.0896  31.1634 i
 60.75  22.3185  31.1542 i
 60.8  29.6256  31.1451 i
 60.85  40.6115  31.1362 i
 60.9  34.9611  31.1273 i
 60.95  36.1427  31.1184 i
 61  29.9413  31.1095 i
 61.05  30.2179  31.1008 i
 61.1  36.1775  31.0921 i
 61.15  20.8506  31.0834 i
 61.2  30.7426  31.0748 i
 61.25  37.6203  31.0664 i
 61.3  31.0834  31.058 i
 61.35  30.1803  31.0496 i
 61.4  26.3021  31.0412 i
 61.45  35.2643  31.0332 i
 61.5  39.1231  31.0252 i
 61.55  32.3637  31.0171 i
 61.6  24.2289  31.0091 i
 61.65  29.747  31.0015 i
 61.7  33.2635  30.9939 i
 61.75  38.9357  30.9863 i
 61.8  35.0353  30.9788 i
 61.85  20.6225  30.9717 i
 61.9  34.5546  30.9646 i
 61.95  26.2416  30.9576 i
 62  25.4  30.9507 i
 62.05  32.46  30.9442 i
 62.1  25.4868  30.9378 i
 62.15  29.5012  30.9316 i
 62.2  31.8108  30.9255 i
 62.25  30.4076  30.9199 i
 62.3  33.3116  30.9144 i
 62.35  31.5653  30.9093 i
 62.4  37.6418  30.9042 i
 62.45  29.0334  30.8999 i
 62.5  29.8384  30.8956 i
 62.55  31.9846  30.8921 i
 62.6  22.4879  30.8885 i
 62.65  31.924  30.8859 i
 62.7  30.302  30.8834 i
 62.75  27.4764  30.8821 i
 62.8  32.6766  30.8807 i
 62.85  39.0642  30.8809 i
 62.9  27.4699  30.881 i
 62.95  39.5411  30.8831 i
 63  33.4402  30.8852 i
 63.05  34.6703  30.8897 i
 63.1  25.1677  30.8942 i
 63.15  26.1824  30.9022 i
 63.2  31.685  30.9101 i
 63.25  27.209  30.9226 i
 63.3  35.7416  30.9351 i
 63.35  24.9382  30.955 i
 63.4  32.5497  30.975 i
 63.45  33.7823  31.0067 i
 63.5  30.7997  31.0384 i
 63.55  35.7514  31.0909 i
 63.6  29.573  31.1433 i
 63.65  28.6674  31.2232 i
 63.7  25.0406  31.303 i
 63.75  26.2163  31.4102 i
 63.8  26.6402  31.5173 i
 63.85  23.129  31.6563 i
 63.9  22.1917  31.7952 i
 63.95  36.1319  31.993 i
 64  29.6122  32.1909 i
 64.05  30.0266  32.4971 i
 64.1  35.2628  32.8033 i
 64.15  26.3847  33.3175 i
 64.2  27.3255  33.8316 i
 64.25  31.7609  34.7715 i
 64.3  39.9187  35.7115 i
 64.35  34.124  37.6121 i
 64.4  41.3012  39.5127 i
 64.45  38.8297  42.8741 i
 64.5  53.3835  47.9818 i
 64.55  59.7337  55.8115 i
 64.6  86.9432  67.7203 i
 64.65  85.298  85.3299 i
 64.7  115.518  109.459 i
 64.75  153.365  139.352 i
 64.8  140.5  170.301 i
 64.85  172.945  193.901 i
 64.9  202.576  201.393 i
 64.95  192.928  189.333 i
 65  152.013  162.52 i
 65.05  120.426  130.358 i
 65.1  105.391  101.013 i
 65.15  71.8336  78.4691 i
 65.2  57.7928  62.4637 i
 65.25  61.6551  52.1668 i
 65.3  42.8541  45.1715 i
 65.35  33.1069  41.5402 i
 65.4  34.8873  37.909 i
 65.45  31.7185  36.2856 i
 65.5  33.6885  34.6621 i
 65.55  41.4134  33.8561 i
 65.6  40.1252  33.05 i
 65.65  29.6639  32.6049 i
 65.7  28.2186  32.1597 i
 65.75  30.7077  31.8908 i
 65.8  36.8256  31.6219 i
 65.85  38.1372  31.445 i
 65.9  28.3354  31.2681 i
 65.95  29.6052  31.1424 i
 66  41.2195  31.0168 i
 66.05  31.1085  30.9198 i
 66.1  31.3383  30.8229 i
 66.15  21.679  30.7485 i
 66.2  34.3138  30.6741 i
 66.25  24.8319  30.6184 i
 66.3  20.704  30.5628 i
 66.35  31.594  30.5214 i
 66.4  47.4917  30.48 i
 66.45  29.663  30.4471 i
 66.5  41.3971  30.4142 i
 66.55  33.4343  30.3873 i
 66.6  22.3277  30.3604 i
 66.65  42.9936  30.3367 i
 66.7  34.2689  30.3144 i
 66.75  39.7931  30.2945 i
 66.8  33.5971  30.2747 i
 66.85  38.897  30.257 i
 66.9  30.5015  30.2394 i
 66.95  34.9516  30.2236 i
 67  33.7762  30.2077 i
 67.05  34.4401  30.1934 i
 67.1  33.3125  30.1791 i
 67.15  40.5114  30.1658 i
 67.2  29.6025  30.1525 i
 67.25  28.874  30.1404 i
 67.3  23.9591  30.1283 i
 67.35  28.2035  30.1168 i
 67.4  31.6863  30.1052 i
 67.45  39.5832  30.0946 i
 67.5  35.7262  30.084 i
 67.55  29.6174  30.0737 i
 67.6  20.1669  30.0634 i
 67.65  31.0503  30.0539 i
 67.7  39.0318  30.0444 i
 67.75  44.3349  30.035 i
 67.8  29.4721  30.0257 i
 67.85  38.1786  30.017 i
 67.9  39.7186  30.0083 i
 67.95  30.7108  29.9997 i
 68  36.9792  29.9911 i
 68.05  28.4284  29.983 i
 68.1  31.3315  29.9749 i
 68.15  32.661  29.9669 i
 68.2  25.5896  29.9589 i
 68.25  30.2593  29.9513 i
 68.3  31.7688  29.9437 i
 68.35  22.6064  29.9362 i
 68.4  21.0183  29.9288 i
 68.45  27.6115  29.9215 i
 68.5  31.1249  29.9143 i
 68.55  36.6847  29.9073 i
 68.6  29.6738  29.9003 i
 68.65  30.7252  29.8934 i
 68.7  28.9883  29.8864 i
 68.75  28.4575  29.8798 i
 68.8  26.0603  29.8732 i
 68.85  29.247  29.8666 i
 68.9  42.8133  29.86 i
 68.95  30.1978  29.8537 i
 69  21.4788  29.8475 i
 69.05  29.6737  29.8411 i
 69.1  30.3992  29.8348 i
 69.15  29.0153  29.8288 i
 69.2  28.1641  29.8228 i
 69.25  26.0047  29.8167 i
 69.3  29.4569  29.8107 i
 69.35  27.5069  29.8049 i
 69.4  31.502  29.7992 i
 69.45  20.088  29.7934 i
 69.5  28.2258  29.7876 i
 69.55  25.6754  29.7821 i
 69.6  38.5221  29.7765 i
 69.65  35.6819  29.771 i
 69.7  21.3928  29.7655 i
 69.75  22.3103  29.7602 i
 69.8  22.3937  29.7548 i
 69.85  34.3311  29.7496 i
 69.9  26.985  29.7443 i
 69.95  25.5893  29.7391 i
 70  19.6229  29.7339 i
 70.05  35.7085  29.729 i
 70.1  24.8075  29.724 i
 70.15  31.4424  29.719 i
 70.2  27.4019  29.714 i
 70.25  36.2483  29.7092 i
 70.3  29.5109  29.7045 i
 70.35  24.0459  29.6997 i
 70.4  21.0488  29.6948 i
 70.45  37.8123  29.6903 i
 70.5  37.3351  29.6858 i
 70.55  24.4884  29.6812 i
 70.6  42.1743  29.6766 i
 70.65  35.4281  29.6722 i
 70.7  18.672  29.6678 i
 70.75  19.8216  29.6635 i
 70.8  25.9222  29.6591 i
 70.85  34.4737  29.6549 i
 70.9  30.1948  29.6507 i
 70.95  22.4865  29.6466 i
 71  37.199  29.6424 i
 71.05  25.1277  29.6384 i
 71.1  24.8409  29.6343 i
 71.15  37.9055  29.6304 i
 71.2  27.8209  29.6265 i
 71.25  24.549  29.6226 i
 71.3  31.7864  29.6187 i
 71.35  23.5279  29.615 i
 71.4  22.7875  29.6114 i
 71.45  38.4347  29.6076 i
 71.5  23.6305  29.6039 i
 71.55  28.6916  29.6004 i
 71.6  41.5033  29.597 i
 71.65  33.1882  29.5935 i
 71.7  29.2291  29.5899 i
 71.75  31.9454  29.5866 i
 71.8  26.1397  29.5833 i
 71.85  29.7498  29.58 i
 71.9  36.2833  29.5767 i
 71.95  31.1674  29.5736 i
 72  30.6196  29.5704 i
 72.05  24.542  29.5674 i
 72.1  22.4718  29.5643 i
 72.15  30.6308  29.5613 i
 72.2  33.7547  29.5583 i
 72.25  32.6359  29.5555 i
 72.3  30.2798  29.5527 i
 72.35  30.1689  29.5498 i
 72.4  27.8917  29.5469 i
 72.45  29.9075  29.5444 i
 72.5  30.5877  29.5418 i
 72.55  28.4425  29.5391 i
 72.6  26.9036  29.5364 i
 72.65  21.4155  29.534 i
 72.7  30.5353  29.5316 i
 72.75  24.1507  29.5292 i
 72.8  23.5087  29.5267 i
 72.85  36.9897  29.5245 i
 72.9  35.5267  29.5222 i
 72.95  24.1694  29.52 i
 73  33.5215  29.5178 i
 73.05  26.974  29.5157 i
 73.1  20.79  29.5136 i
 73.15  39.217  29.5117 i
 73.2  18.363  29.5098 i
 73.25  29.4406  29.508 i
 73.3  31.3509  29.5062 i
 73.35  33.2161  29.5047 i
 73.4  40.6567  29.5032 i
 73.45  45.0463  29.5017 i
 73.5  24.749  29.5003 i
 73.55  28.8994  29.4992 i
 73.6  26.9629  29.4981 i
 73.65  20.657  29.4969 i
 73.7  23.4077  29.4958 i
 73.75  23.7433  29.4951 i
 73.8  28.314  29.4943 i
 73.85  43.8754  29.4936 i
 73.9  18.3241  29.4928 i
 73.95  36.8931  29.4924 i
 74  27.8348  29.4919 i
 74.05  26.5733  29.4916 i
 74.1  26.8319  29.4913 i
 74.15  25.7566  29.4911 i
 74.2  17.145  29.4909 i
 74.25  35.1148  29.491 i
 74.3  24.6456  29.4911 i
 74.35  37.8426  29.4912 i
 74.4  32.8779  29.4913 i
 74.45  32.3832  29.4917 i
 74.5  22.6557  29.4922 i
 74.55  21.1454  29.4926 i
 74.6  25.6752  29.493 i
 74.65  25.0611  29.4938 i
 74.7  30.7618  29.4946 i
 74.75  32.7171  29.4953 i
 74.8  36.1734  29.496 i
 74.85  38.971  29.4971 i
 74.9  28.8931  29.4981 i
 74.95  22.8074  29.4993 i
 75  34.1997  29.5004 i
 75.05  24.4123  29.5017 i
 75.1  29.6884  29.5029 i
 75.15  37.5334  29.5045 i
 75.2  33.0236  29.506 i
 75.25  39.282  29.5075 i
 75.3  22.7225  29.509 i
 75.35  36.0635  29.5109 i
 75.4  27.5428  29.5127 i
 75.45  39.0751  29.5145 i
 75.5  36.5654  29.5163 i
 75.55  35.9157  29.5184 i
 75.6  29.6682  29.5206 i
 75.65  23.5313  29.5227 i
 75.7  22.3487  29.5248 i
 75.75  26.8522  29.5272 i
 75.8  40.586  29.5296 i
 75.85  34.9622  29.532 i
 75.9  24.131  29.5345 i
 75.95  29.9982  29.5371 i
 76  22.3329  29.5397 i
 76.05  34.2174  29.5425 i
 76.1  29.5554  29.5453 i
 76.15  27.1554  29.5481 i
 76.2  31.8356  29.5509 i
 76.25  31.5729  29.554 i
 76.3  27.7778  29.5572 i
 76.35  20.296  29.5602 i
 76.4  30.3608  29.5632 i
 76.45  24.4446  29.5666 i
 76.5  26.2308  29.5701 i
 76.55  31.5716  29.5734 i
 76.6  42.4408  29.5767 i
 76.65  21.6585  29.5803 i
 76.7  35.4218  29.5839 i
 76.75  20.9355  29.5876 i
 76.8  28.4623  29.5913 i
 76.85  29.3846  29.5951 i
 76.9  25.5126  29.5988 i
 76.95  19.0907  29.6029 i
 77  32.8176  29.6069 i
 77.05  37.1412  29.6109 i
 77.1  24.5723  29.6148 i
 77.15  23.7305  29.6191 i
 77.2  25.323  29.6235 i
 77.25  22.021  29.6277 i
 77.3  22.5742  29.6319 i
 77.35  33.0678  29.6364 i
 77.4  40.0624  29.641 i
 77.45  43.2275  29.6456 i
 77.5  29.5215  29.6501 i
 77.55  18.8333  29.6547 i
 77.6  23.8352  29.6594 i
 77.65  26.9583  29.6644 i
 77.7  30.5306  29.6693 i
 77.75  33.5778  29.6741 i
 77.8  30.1371  29.6789 i
 77.85  27.2908  29.6842 i
 77.9  23.8775  29.6895 i
 77.95  27.3337  29.6945 i
 78  33.5457  29.6995 i
 78.05  27.3906  29.7051 i
 78.1  31.1364  29.7106 i
 78.15  31.8519  29.716 i
 78.2  25.9059  29.7214 i
 78.25  28.6971  29.727 i
 78.3  27.398  29.7327 i
 78.35  29.4587  29.7385 i
 78.4  25.1465  29.7444 i
 78.45  35.9635  29.7502 i
 78.5  35.417  29.756 i
 78.55  25.3494  29.7622 i
 78.6  29.9619  29.7685 i
 78.65  24.0065  29.7745 i
 78.7  21.4521  29.7805 i
 78.75  27.4424  29.7872 i
 78.8  34.223  29.7938 i
 78.85  31.334  29.8002 i
 78.9  23.7581  29.8067 i
 78.95  31.5803  29.8135 i
 79  23.5001  29.8204 i
 79.05  37.7203  29.8274 i
 79.1  26.6516  29.8344 i
 79.15  34.0173  29.8416 i
 79.2  23.8466  29.8487 i
 79.25  29.1274  29.8564 i
 79.3  31.6022  29.864 i
 79.35  26.0335  29.8716 i
 79.4  33.4471  29.8791 i
 79.45  25.3779  29.888 i
 79.5  34.5618  29.8969 i
 79.55  27.273  29.9051 i
 79.6  22.4624  29.9133 i
 79.65  31.2974  29.9223 i
 79.7  30.3612  29.9313 i
 79.75  26.309  29.9406 i
 79.8  28.2208  29.95 i
 79.85  15.1065  29.9597 i
 79.9  27.0086  29.9695 i
 79.95  29.7142  29.9803 i
 80  26.5768  29.9912 i
 80.05  25.4044  30.0022 i
 80.1  27.7714  30.0133 i
 80.15  32.6968  30.026 i
 80.2  29.6922  30.0388 i
 80.25  22.3528  30.0522 i
 80.3  37.1451  30.0657 i
 80.35  24.4557  30.0812 i
 80.4  33.6397  30.0967 i
 80.45  30.134  30.1143 i
 80.5  26.3717  30.1319 i
 80.55  34.9917  30.1524 i
 80.6  26.1865  30.1729 i
 80.65  19.4033  30.1988 i
 80.7  29.1374  30.2247 i
 80.75  35.0041  30.2579 i
 80.8  26.566  30.2911 i
 80.85  30.4383  30.3398 i
 80.9  21.5156  30.3886 i
 80.95  36.0647  30.4558 i
 81  36.8213  30.523 i
 81.05  38.587  30.6064 i
 81.1  33.4695  30.6898 i
 81.15  24.3195  30.7946 i
 81.2  29.8197  30.8994 i
 81.25  25.3604  31.0453 i
 81.3  29.2934  31.1913 i
 81.35  29.7221  31.4172 i
 81.4  30.1811  31.6432 i
 81.45  29.4859  32.0207 i
 81.5  23.1939  32.3981 i
 81.55  26.5662  33.1021 i
 81.6  33.5122  33.8061 i
 81.65  33.5899  35.2792 i
 81.7  39.4048  36.7524 i
 81.75  36.3479  40.2179 i
 81.8  44.2479  43.6834 i
 81.85  45.3231  50.5806 i
 81.9  61.6348  60.7954 i
 81.95  66.3684  76.323 i
 82  101.885  96.7442 i
 82.05  120.429  119.412 i
 82.1  136.498  137.257 i
 82.15  129.37  142.204 i
 82.2  116.579  131.64 i
 82.25  101.161  110.541 i
 82.3  98.5084  87.5879 i
 82.35  83.6568  68.6588 i
 82.4  49.5487  55.3116 i
 82.45  40.9399  46.6468 i
 82.5  44.7177  41.2093 i
 82.55  37.4146  38.4284 i
 82.6  37.5848  35.6476 i
 82.65  38.316  34.4705 i
 82.7  31.0318  33.2934 i
 82.75  36.1296  32.7338 i
 82.8  31.334  32.1741 i
 82.85  30.5714  31.8782 i
 82.9  29.1972  31.5823 i
 82.95  33.3501  31.4097 i
 83  25.6083  31.237 i
 83.05  24.2522  31.1304 i
 83.1  26.9648  31.0237 i
 83.15  37.1545  30.9515 i
 83.2  31.5147  30.8793 i
 83.25  23.609  30.8265 i
 83.3  39.1568  30.7738 i
 83.35  37.4391  30.7349 i
 83.4  27.5873  30.6961 i
 83.45  32.844  30.6698 i
 83.5  27.2836  30.6436 i
 83.55  33.5801  30.628 i
 83.6  28.0506  30.6125 i
 83.65  31.9124  30.6022 i
 83.7  35.8457  30.5919 i
 83.75  27.1694  30.5859 i
 83.8  35.6738  30.5799 i
 83.85  24.6263  30.5764 i
 83.9  33.9874  30.573 i
 83.95  24.1252  30.5712 i
 84  27.9692  30.5693 i
 84.05  31.2566  30.5696 i
 84.1  42.1753  30.5698 i
 84.15  36.5322  30.5705 i
 84.2  33.9495  30.5711 i
 84.25  28.0954  30.5732 i
 84.3  43.7675  30.5753 i
 84.35  23.8535  30.5779 i
 84.4  32.5239  30.5804 i
 84.45  30.9639  30.5834 i
 84.5  36.9205  30.5865 i
 84.55  40.1491  30.5903 i
 84.6  23.3259  30.5941 i
 84.65  34.9483  30.5978 i
 84.7  33.3065  30.6015 i
 84.75  41.4072  30.6061 i
 84.8  24.7546  30.6106 i
 84.85  35.7823  30.615 i
 84.9  34.4979  30.6194 i
 84.95  21.4283  30.6241 i
 85  29.9722  30.6289 i
 85.05  27.6387  30.6339 i
 85.1  38.948  30.6389 i
 85.15  29.5517  30.6438 i
 85.2  37.0176  30.6486 i
 85.25  23.1476  30.654 i
 85.3  25.9555  30.6594 i
 85.35  25.7748  30.6645 i
 85.4  26.3186  30.6695 i
 85.45  19.5986  30.6749 i
 85.5  34.6609  30.6803 i
 85.55  35.5974  30.6857 i
 85.6  22.6048  30.6911 i
 85.65  29.9333  30.6964 i
 85.7  38.3327  30.7017 i
 85.75  32.1503  30.7073 i
 85.8  30.9165  30.7129 i
 85.85  33.3401  30.7182 i
 85.9  28.255  30.7235 i
 85.95  35.4707  30.729 i
 86  22.4758  30.7346 i
 86.05  26.4006  30.7401 i
 86.1  32.8515  30.7455 i
 86.15  19.1826  30.7509 i
 86.2  27.1328  30.7562 i
 86.25  30.4741  30.7618 i
 86.3  44.0558  30.7674 i
 86.35  30.0454  30.7726 i
 86.4  33.034  30.7779 i
 86.45  23.9251  30.7834 i
 86.5  29.7187  30.7889 i
 86.55  35.9337  30.7942 i
 86.6  31.5904  30.7995 i
 86.65  27.7721  30.8048 i
 86.7  27.0826  30.81 i
 86.75  26.6367  30.8154 i
 86.8  30.064  30.8208 i
 86.85  30.2556  30.8258 i
 86.9  28.1702  30.8309 i
 86.95  27.9059  30.8362 i
 87  23.6452  30.8415 i
 87.05  26.9194  30.8465 i
 87.1  32.3678  30.8516 i
 87.15  27.5957  30.8566 i
 87.2  24.2127  30.8617 i
 87.25  34.9644  30.8667 i
 87.3  21.8062  30.8718 i
 87.35  29.0959  30.8766 i
 87.4  33.1176  30.8814 i
 87.45  20.4837  30.8864 i
 87.5  29.3619  30.8914 i
 87.55  21.562  30.896 i
 87.6  26.8159  30.9007 i
 87.65  39.9785  30.9055 i
 87.7  33.0195  30.9102 i
 87.75  19.9285  30.9149 i
 87.8  18.0175  30.9195 i
 87.85  35.0791  30.924 i
 87.9  34.6949  30.9284 i
 87.95  33.5762  30.933 i
 88  19.8981  30.9376 i
 88.05  29.928  30.9419 i
 88.1  29.8828  30.9462 i
 88.15  34.9895  30.9505 i
 88.2  19.5239  30.9548 i
 88.25  40.1078  30.959 i
 88.3  37.7413  30.9633 i
 88.35  24.4274  30.9673 i
 88.4  26.1474  30.9713 i
 88.45  38.1028  30.9754 i
 88.5  22.9362  30.9795 i
 88.55  28.6778  30.9834 i
 88.6  31.8091  30.9872 i
 88.65  29.4178  30.991 i
 88.7  36.2395  30.9949 i
 88.75  32.8507  30.9986 i
 88.8  39.9805  31.0024 i
 88.85  33.2817  31.0059 i
 88.9  32.7426  31.0094 i
 88.95  36.2612  31.013 i
 89  30.1295  31.0166 i
 89.05  30.2802  31.0199 i
 89.1  25.4092  31.0232 i
 89.15  27.2316  31.0265 i
 89.2  26.6687  31.0298 i
 89.25  28.4616  31.033 i
 89.3  28.4824  31.0362 i
 89.35  30.9819  31.0392 i
 89.4  27.1812  31.0421 i
 89.45  22.8056  31.0452 i
 89.5  36.0105  31.0482 i
 89.55  25.9286  31.0509 i
 89.6  30.6004  31.0537 i
 89.65  30.2362  31.0564 i
 89.7  33.0402  31.0591 i
 89.75  27.8547  31.0617 i
 89.8  34.5142  31.0643 i
 89.85  25.108  31.0667 i
 89.9  33.488  31.069 i
 89.95  30.5833  31.0714 i
 90  27.7247  31.0738 i
 90.05  24.8678  31.076 i
 90.1  29.5499  31.0781 i
 90.15  32.3225  31.0801 i
 90.2  23.1427  31.0822 i
 90.25  36.478  31.0842 i
 90.3  30.1102  31.0861 i
 90.35  28.6511  31.0878 i
 90.4  29.5224  31.0895 i
 90.45  31.2822  31.0913 i
 90.5  30.3798  31.093 i
 90.55  23.6317  31.0944 i
 90.6  30.5591  31.0959 i
 90.65  30.9508  31.0973 i
 90.7  37.6037  31.0986 i
 90.75  30.8038  31.0999 i
 90.8  30.7781  31.1012 i
 90.85  33.1956  31.1022 i
 90.9  30.3343  31.1032 i
 90.95  36.4278  31.1042 i
 91  39.096  31.1052 i
 91.05  29.6067  31.1059 i
 91.1  27.7562  31.1067 i
 91.15  31.8677  31.1073 i
 91.2  29.9306  31.1079 i
 91.25  21.7978  31.1085 i
 91.3  21.1506  31.109 i
 91.35  27.8789  31.1092 i
 91.4  35.5133  31.1095 i
 91.45  35.759  31.1097 i
 91.5  35.6159  31.11 i
 91.55  29.0541  31.11 i
 91.6  23.9076  31.11 i
 91.65  36.2678  31.1099 i
 91.7  23.2372  31.1098 i
 91.75  34.4094  31.1096 i
 91.8  27.4364  31.1095 i
 91.85  22.7338  31.1091 i
 91.9  31.6901  31.1086 i
 91.95  30.3113  31.1082 i
 92  23.4362  31.1077 i
 92.05  35.088  31.1071 i
 92.1  36.3953  31.1065 i
 92.15  29.2014  31.1057 i
 92.2  31.6982  31.1049 i
 92.25  25.2557  31.1041 i
 92.3  18.2698  31.1033 i
 92.35  24.4485  31.1023 i
 92.4  26.0651  31.1012 i
 92.45  25.1614  31.1001 i
 92.5  29.5543  31.099 i
 92.55  26.2685  31.0978 i
 92.6  31.2645  31.0966 i
 92.65  32.1146  31.0952 i
 92.7  30.8466  31.0938 i
 92.75  23.5015  31.0924 i
 92.8  39.1437  31.091 i
 92.85  30.851  31.0894 i
 92.9  25.5286  31.0877 i
 92.95  25.2581  31.086 i
 93  33.5475  31.0843 i
 93.05  46.4138  31.0826 i
 93.1  26.1381  31.0808 i
 93.15  18.2047  31.0788 i
 93.2  24.5594  31.0768 i
 93.25  30.0272  31.0749 i
 93.3  28.4087  31.0729 i
 93.35  25.5464  31.0708 i
 93.4  32.0509  31.0687 i
 93.45  24.3519  31.067 i
 93.5  27.7326  31.0654 i
 93.55  31.6963  31.0631 i
 93.6  22.6785  31.0609 i
 93.65  36.0865  31.0584 i
 93.7  25.4728  31.0559 i
 93.75  34.3424  31.0535 i
 93.8  27.1779  31.051 i
 93.85  28.3975  31.0484 i
 93.9  29.4344  31.0458 i
 93.95  30.3721  31.0431 i
 94  31.4189  31.0403 i
 94.05  31.5581  31.0376 i
 94.1  23.8125  31.0349 i
 94.15  27.1168  31.032 i
 94.2  27.3919  31.0291 i
 94.25  30.9497  31.0262 i
 94.3  22.8182  31.0233 i
 94.35  35.9773  31.0203 i
 94.4  33.0566  31.0174 i
 94.45  26.2672  31.0142 i
 94.5  30.5745  31.0111 i
 94.55  28.6516  31.008 i
 94.6  42.677  31.0049 i
 94.65  26.7176  31.0017 i
 94.7  27.405  30.9985 i
 94.75  29.5711  30.9952 i
 94.8  27.2196  30.9919 i
 94.85  27.7437  30.9887 i
 94.9  31.5667  30.9855 i
 94.95  17.0894  30.9821 i
 95  29.6745  30.9787 i
 95.05  30.0801  30.9753 i
 95.1  28.8797  30.972 i
 95.15  33.8445  30.9686 i
 95.2  25.8509  30.9652 i
 95.25  35.6512  30.9617 i
 95.3  30.3331  30.9583 i
 95.35  38.8521  30.9549 i
 95.4  26.0552  30.9515 i
 95.45  34.2365  30.9481 i
 95.5  34.7213  30.9447 i
 95.55  29.3355  30.9412 i
 95.6  26.6861  30.9378 i
 95.65  36.6285  30.9345 i
 95.7  41.9414  30.9312 i
 95.75  22.23  30.9279 i
 95.8  29.329  30.9245 i
 95.85  24.7168  30.9213 i
 95.9  36.3453  30.9181 i
 95.95  26.7639  30.915 i
 96  30.2778  30.9119 i
 96.05  22.9908  30.9089 i
 96.1  32.1503  30.9059 i
 96.15  34.6081  30.9032 i
 96.2  30.5258  30.9005 i
 96.25  30.3414  30.8979 i
 96.3  32.8203  30.8953 i
 96.35  29.7915  30.8931 i
 96.4  31.0804  30.8908 i
 96.45  27.9235  30.8891 i
 96.5  20.4065  30.8873 i
 96.55  27.2414  30.8859 i
 96.6  22.0838  30.8845 i
 96.65  37.6112  30.8839 i
 96.7  31.9393  30.8833 i
 96.75  32.8718  30.8836 i
 96.8  32.7954  30.8838 i
 96.85  26.5024  30.8851 i
 96.9  26.3409  30.8863 i
 96.95  27.5566  30.8894 i
 97  24.756  30.8924 i
 97.05  28.6642  30.8974 i
 97.1  37.3922  30.9024 i
 97.15  21.9745  30.9107 i
 97.2  32.1405  30.919 i
 97.25  29.7337  30.9322 i
 97.3  35.7649  30.9455 i
 97.35  29.4281  30.9658 i
 97.4  34.7561  30.9861 i
 97.45  27.3384  31.0168 i
 97.5  33.9964  31.0476 i
 97.55  30.7243  31.0916 i
 97.6  43.6233  31.1356 i
 97.65  31.6978  31.1988 i
 97.7  27.9639  31.262 i
 97.75  31.8624  31.3581 i
 97.8  38.5394  31.4543 i
 97.85  38.0333  31.6094 i
 97.9  24.0279  31.7644 i
 97.95  35.3786  32.0318 i
 98  32.8459  32.2991 i
 98.05  31.3902  32.7924 i
 98.1  29.2421  33.2856 i
 98.15  27.2585  34.2518 i
 98.2  38.6487  35.2181 i
 98.25  46.7946  36.8338 i
 98.3  41.5212  39.1364 i
 98.35  43.7895  42.3775 i
 98.4  42.2253  46.812 i
 98.45  54.7614  52.654 i
 98.5  48.5128  59.5393 i
 98.55  66.8927  66.9788 i
 98.6  71.1961  73.6082 i
 98.65  80.0722  77.7564 i
 98.7  75.5033  78.4348 i
 98.75  75.6204  75.1965 i
 98.8  69.3713  69.2598 i
 98.85  72.5983  62.0112 i
 98.9  43.321  54.919 i
 98.95  42.211  48.8318 i
 99  40.0938  44.033 i
 99.05  46.8122  40.447 i
 99.1  40.2384  37.8485 i
 99.15  29.9154  36.2582 i
 99.2  42.0847  34.668 i
 99.25  37.8932  33.8479 i
 99.3  30.922  33.0279 i
 99.35  31.7908  32.5825 i
 99.4  27.3306  32.1371 i
 99.45  29.4282  31.8781 i
 99.5  31.0794  31.6192 i
 99.55  29.6346  31.4566 i
 99.6  28.3662  31.2939 i
 99.65  38.2321  31.1833 i
 99.7  23.361  31.0727 i
 99.75  27.1093  30.9916 i
 99.8  31.2139  30.9105 i
 99.85  28.2423  30.8476 i
 99.9  28.3932  30.7847 i
 99.95  23.2094  30.7369 i
 100  33.3585  30.6892 i
 100.05  28.4142  30.6542 i
 100.1  23.716  30.6193 i
 100.15  26.1728  30.593 i
 100.2  28.849  30.5667 i
 100.25  30.8106  30.5462 i
 100.3  32.1379  30.5257 i
 100.35  31.9125  30.5088 i
 100.4  23.8194  30.492 i
 100.45  33.0209  30.4773 i
 100.5  22.7506  30.4625 i
 100.55  32.8873  30.4497 i
 100.6  34.9173  30.4369 i
 100.65  20.1477  30.4253 i
 100.7  25.8383  30.4137 i
 100.75  30.8461  30.4029 i
 100.8  28.9031  30.392 i
 100.85  27.0474  30.3822 i
 100.9  26.8009  30.3723 i
 100.95  27.34  30.3629 i
 101  21.3838  30.3535 i
 101.05  31.4873  30.3445 i
 101.1  30.0174  30.3354 i
 101.15  31.8856  30.327 i
 101.2  34.6923  30.3186 i
 101.25  28.9296  30.3103 i
 101.3  36.3957  30.302 i
 101.35  32.2503  30.2941 i
 101.4  21.3934  30.2861 i
 101.45  28.5885  30.2785 i
 101.5  45.3176  30.2709 i
 101.55  31.1674  30.2633 i
 101.6  23.5972  30.2556 i
 101.65  38.1897  30.2483 i
 101.7  22.8716  30.241 i
 101.75  38.2739  30.2339 i
 101.8  25.9887  30.2268 i
 101.85  36.4101  30.2196 i
 101.9  35.7568  30.2125 i
 101.95  42.8928  30.2032 i
 102  39.6162  30.1964 i
 102.05  34.1104  30.1896 i
 102.1  22.2266  30.1828 i
 102.15  17.3709  30.176 i
 102.2  39.0887  30.1693 i
 102.25  31.6761  30.1627 i
 102.3  35.4867  30.1561 i
 102.35  28.3006  30.1496 i
 102.4  30.1992  30.1431 i
 102.45  27.5912  30.1366 i
 102.5  26.2446  30.1301 i
 102.55  36.3012  30.1238 i
 102.6  39.3481  30.1175 i
 102.65  29.005  30.1112 i
 102.7  29.0181  30.105 i
 102.75  33.359  30.0987 i
 102.8  28.15  30.0924 i
 102.85  30.8896  30.0863 i
 102.9  23.6548  30.0802 i
 102.95  27.8128  30.0742 i
 103  30.6713  30.0681 i
 103.05  31.5146  30.0621 i
 103.1  39.7672  30.056 i
 103.15  32.4934  30.0502 i
 103.2  34.5903  30.0443 i
 103.25  26.9161  30.0384 i
 103.3  39.4386  30.0325 i
 103.35  29.3362  30.0267 i
 103.4  19.4174  30.0209 i
 103.45  33.7636  30.0152 i
 103.5  39.132  30.0095 i
 103.55  39.8462  30.0038 i
 103.6  32.4046  29.9981 i
 103.65  25.8202  29.9925 i
 103.7  26.5509  29.9869 i
 103.75  47.1751  29.9814 i
 103.8  29.0623  29.9759 i
 103.85  23.4679  29.9704 i
 103.9  33.3141  29.965 i
 103.95  30.6707  29.9595 i
 104  25.3531  29.9541 i
 104.05  28.2121  29.9489 i
 104.1  24.5046  29.9436 i
 104.15  31.6378  29.9383 i
 104.2  21.1961  29.933 i
 104.25  27.2135  29.9278 i
 104.3  21.3484  29.9226 i
 104.35  39.9322  29.9175 i
 104.4  31.8761  29.9125 i
 104.45  25.0206  29.9074 i
 104.5  26.5122  29.9023 i
 104.55  16.7143  29.8974 i
 104.6  32.1456  29.8924 i
 104.65  30.1101  29.8875 i
 104.7  24.3812  29.8827 i
 104.75  17.4687  29.8778 i
 104.8  30.8319  29.873 i
 104.85  24.2486  29.8682 i
 104.9  25.3446  29.8635 i
 104.95  41.8019  29.8589 i
 105  47.26  29.8542 i
 105.05  24.3321  29.8496 i
 105.1  22.3823  29.845 i
 105.15  19.9874  29.8405 i
 105.2  35.6686  29.836 i
 105.25  37.5644  29.8316 i
 105.3  29.0725  29.8272 i
 105.35  40.135  29.8229 i
 105.4  40.6214  29.8185 i
 105.45  42.9509  29.8143 i
 105.5  29.8354  29.81 i
 105.55  37.7231  29.8059 i
 105.6  28.5464  29.8018 i
 105.65  25.309  29.7976 i
 105.7  20.9793  29.7935 i
 105.75  27.7922  29.7896 i
 105.8  30.6103  29.7856 i
 105.85  39.0026  29.7817 i
 105.9  21.4788  29.7778 i
 105.95  24.663  29.774 i
 106  25.6806  29.7702 i
 106.05  31.3754  29.7665 i
 106.1  25.0796  29.7628 i
 106.15  23.2061  29.7592 i
 106.2  40.7293  29.7556 i
 106.25  28.3716  29.752 i
 106.3  38.0375  29.7485 i
 106.35  24.3357  29.7451 i
 106.4  38.0354  29.7417 i
 106.45  22.8153  29.7384 i
 106.5  27.0842  29.7351 i
 106.55  22.5862  29.7318 i
 106.6  24.2408  29.7286 i
 106.65  24.3665  29.7255 i
 106.7  29.6344  29.7224 i
 106.75  24.4136  29.7194 i
 106.8  26.396  29.7164 i
 106.85  22.99  29.7135 i
 106.9  22.2255  29.7105 i
 106.95  39.5793  29.7077 i
 107  28.1172  29.7049 i
 107.05  21.7678  29.7022 i
 107.1  31.8224  29.6994 i
 107.15  30.1871  29.6966 i
 107.2  26.8  29.6939 i
 107.25  30.3516  29.6912 i
 107.3  35.5978  29.6885 i
 107.35  31.9832  29.6858 i
 107.4  35.4446  29.6831 i
 107.45  31.9147  29.6804 i
 107.5  39.541  29.6778 i
 107.55  32.3006  29.6752 i
 107.6  23.5083  29.6726 i
 107.65  24.0043  29.67 i
 107.7  30.9735  29.6674 i
 107.75  29.4406  29.6649 i
 107.8  27.5826  29.6623 i
 107.85  25.5866  29.6598 i
 107.9  19.2166  29.6573 i
 107.95  19.7116  29.6548 i
 108  28.8173  29.6523 i
 108.05  30.9659  29.6499 i
 108.1  28.7661  29.6474 i
 108.15  20.1148  29.645 i
 108.2  33.0448  29.6426 i
 108.25  31.8985  29.6402 i
 108.3  27.5828  29.6378 i
 108.35  28.747  29.6354 i
 108.4  30.5173  29.6331 i
 108.45  27.5212  29.6307 i
 108.5  21.0584  29.6284 i
 108.55  31.6777  29.6262 i
 108.6  28.2596  29.6239 i
 108.65  25.5812  29.6216 i
 108.7  24.1155  29.6193 i
 108.75  27.9848  29.6171 i
 108.8  33.1499  29.6149 i
 108.85  29.2696  29.6127 i
 108.9  33.6907  29.6105 i
 108.95  29.3111  29.6084 i
 109  20.8381  29.6062 i
 109.05  27.0681  29.6041 i
 109.1  22.4286  29.6019 i
 109.15  28.2553  29.5999 i
 109.2  36.3509  29.5978 i
 109.25  31.7069  29.5957 i
 109.3  25.834  29.5936 i
 109.35  36.1536  29.5916 i
 109.4  27.0958  29.5896 i
 109.45  37.3088  29.5876 i
 109.5  35.7049  29.5856 i
 109.55  28.8096  29.5837 i
 109.6  26.7656  29.5817 i
 109.65  24.795  29.5798 i
 109.7  27.5187  29.5779 i
 109.75  26.519  29.576 i
 109.8  27.1832  29.5741 i
 109.85  30.9253  29.5723 i
 109.9  30.8624  29.5704 i
 109.95  40.7425  29.5686 i
 110  24.9834  29.5668 i
 110.05  26.9308  29.565 i
 110.1  31.946  29.5633 i
 110.15  19.2454  29.5616 i
 110.2  28.3095  29.5598 i
 110.25  37.8743  29.5581 i
 110.3  26.44  29.5564 i
 110.35  29.8895  29.5548 i
 110.4  24.3115  29.5532 i
 110.45  27.0117  29.5516 i
 110.5  35.0594  29.55 i
 110.55  23.5163  29.5484 i
 110.6  28.8327  29.5468 i
 110.65  27.543  29.5453 i
 110.7  21.1889  29.5438 i
 110.75  21.6917  29.5423 i
 110.8  29.3321  29.5409 i
 110.85  31.4228  29.5394 i
 110.9  40.5645  29.538 i
 110.95  29.3978  29.5367 i
 111  34.2019  29.5353 i
 111.05  38.8828  29.534 i
 111.1  32.5638  29.5327 i
 111.15  27.775  29.5314 i
 111.2  32.7234  29.5302 i
 111.25  27.521  29.529 i
 111.3  32.544  29.5278 i
 111.35  27.5656  29.5267 i
 111.4  26.5276  29.5256 i
 111.45  19.4603  29.5245 i
 111.5  24.545  29.5235 i
 111.55  32.7891  29.5225 i
 111.6  30.4139  29.5215 i
 111.65  28.7661  29.5207 i
 111.7  30.2886  29.5198 i
 111.75  23.3828  29.519 i
 111.8  39.1568  29.5181 i
 111.85  27.5618  29.5174 i
 111.9  19.2843  29.5167 i
 111.95  27.1368  29.5161 i
 112  34.8496  29.5156 i
 112.05  34.2439  29.5151 i
 112.1  26.3826  29.5146 i
 112.15  29.8169  29.5142 i
 112.2  30.6762  29.5138 i
 112.25  22.6697  29.5136 i
 112.3  33.6066  29.5135 i
 112.35  30.1488  29.5134 i
 112.4  33.9628  29.5134 i
 112.45  31.6345  29.5135 i
 112.5  24.1749  29.5136 i
 112.55  26.1375  29.5139 i
 112.6  28.5285  29.5143 i
 112.65  25.5314  29.5149 i
 112.7  35.3711  29.5155 i
 112.75  38.3287  29.5163 i
 112.8  42.4174  29.5171 i
 112.85  25.8328  29.5183 i
 112.9  28.9769  29.5194 i
 112.95  31.1136  29.521 i
 113  25.9778  29.5225 i
 113.05  29.7204  29.5244 i
 113.1  23.536  29.5264 i
 113.15  26.8429  29.5288 i
 113.2  24.0542  29.5313 i
 113.25  34.1092  29.5344 i
 113.3  35.4924  29.5374 i
 113.35  30.321  29.5412 i
 113.4  24.3837  29.545 i
 113.45  30.1437  29.5497 i
 113.5  34.3172  29.5544 i
 113.55  31.7998  29.5602 i
 113.6  27.2309  29.566 i
 113.65  28.6749  29.5731 i
 113.7  35.0585  29.5803 i
 113.75  23.3503  29.5892 i
 113.8  36.5353  29.598 i
 113.85  26.1423  29.6092 i
 113.9  45.9966  29.6203 i
 113.95  27.01  29.6344 i
 114  35.3533  29.6484 i
 114.05  25.1757  29.6663 i
 114.1  34.2794  29.6842 i
 114.15  18.7657  29.7073 i
 114.2  37.3744  29.7304 i
 114.25  31.3847  29.7606 i
 114.3  21.4744  29.7909 i
 114.35  31.2563  29.831 i
 114.4  34.4112  29.8711 i
 114.45  34.279  29.9251 i
 114.5  29.0002  29.9792 i
 114.55  36.7739  30.053 i
 114.6  21.8436  30.1269 i
 114.65  31.3195  30.2294 i
 114.7  38.005  30.3319 i
 114.75  27.1134  30.4764 i
 114.8  35.3459  30.6209 i
 114.85  33.811  30.8283 i
 114.9  33.0789  31.0358 i
 114.95  28.7924  31.3385 i
 115  28.7208  31.6413 i
 115.05  31.9903  32.0891 i
 115.1  31.5828  32.5368 i
 115.15  47.2803  33.1365 i
 115.2  32.6076  33.8671 i
 115.25  39.8123  34.7543 i
 115.3  43.8753  35.8266 i
 115.35  30.5868  37.1126 i
 115.4  51.583  38.6392 i
 115.45  38.7725  40.4274 i
 115.5  53.6881  42.4867 i
 115.55  45.7983  44.8223 i
 115.6  49.525  47.3628 i
 115.65  37.1398  50.0846 i
 115.7  62.837  52.8787 i
 115.75  54.3836  55.6048 i
 115.8  54.6573  58.1442 i
 115.85  45.757  60.2676 i
 115.9  73.3778  61.9185 i
 115.95  49.9747  62.8806 i
 116  67.2241  63.1045 i
 116.05  60.2932  62.573 i
 116.1  70.8192  61.3325 i
 116.15  61.5573  59.486 i
 116.2  59.0194  57.1759 i
 116.25  39.8239  54.564 i
 116.3  50.4601  51.8105 i
 116.35  60.577  49.0635 i
 116.4  49.5823  46.417 i
 116.45  46.0057  43.9705 i
 116.5  48.65  41.7659 i
 116.55  43.4041  39.8244 i
 116.6  39.5382  38.1461 i
 116.65  39.7907  36.83 i
 116.7  35.3464  35.5139 i
 116.75  29.685  34.5958 i
 116.8  33.4897  33.6778 i
 116.85  28.4576  33.0506 i
 116.9  35.5479  32.4234 i
 116.95  32.8921  31.997 i
 117  36.3807  31.5706 i
 117.05  24.9011  31.2787 i
 117.1  23.6266  30.9868 i
 117.15  37.3518  30.7842 i
 117.2  36.2812  30.5816 i
 117.25  31.41  30.4386 i
 117.3  29.2326  30.2956 i
 117.35  29.0272  30.1928 i
 117.4  27.3604  30.09 i
 117.45  38.8756  30.0148 i
 117.5  32.8299  29.9397 i
 117.55  28.7786  29.8838 i
 117.6  30.8845  29.828 i
 117.65  25.6175  29.7858 i
 117.7  30.9147  29.7436 i
 117.75  34.956  29.7111 i
 117.8  41.0294  29.6787 i
 117.85  33.9712  29.6533 i
 117.9  34.8473  29.6279 i
 117.95  39.3038  29.6077 i
 118  30.9608  29.5876 i
 118.05  25.7414  29.5712 i
 118.1  45.3834  29.5549 i
 118.15  37.2794  29.5409 i
 118.2  39.5849  29.5281 i
 118.25  28.0193  29.517 i
 118.3  26.5062  29.5058 i
 118.35  26.5964  29.4965 i
 118.4  39.6853  29.4871 i
 118.45  30.6464  29.4791 i
 118.5  30.7968  29.4711 i
 118.55  27.7496  29.4642 i
 118.6  21.1036  29.4573 i
 118.65  37.8859  29.4514 i
 118.7  23.9468  29.4454 i
 118.75  31.1005  29.4402 i
 118.8  32.6595  29.435 i
 118.85  27.4698  29.4303 i
 118.9  32.8912  29.4257 i
 118.95  26.1458  29.4216 i
 119  29.658  29.4175 i
 119.05  31.3475  29.4139 i
 119.1  28.9874  29.4102 i
 119.15  25.9415  29.4069 i
 119.2  21.7026  29.4036 i
 119.25  30.49  29.4006 i
 119.3  23.0786  29.3976 i
 119.35  27.2593  29.3949 i
 119.4  22.5155  29.3922 i
 119.45  27.6432  29.3897 i
 119.5  28.5978  29.3872 i
 119.55  35.3762  29.3849 i
 119.6  27.9594  29.3826 i
 119.65  33.7289  29.3805 i
 119.7  33.8478  29.3784 i
 119.75  25.7687  29.3765 i
 119.8  25.4911  29.3745 i
 119.85  22.2742  29.3727 i
 119.9  39.7933  29.3709 i
 119.95  32.999  29.3692 i
 120  30.1884  29.3675 i
 120.05  37.766  29.3659 i
 120.1  21.4606  29.3643 i
 120.15  24.7242  29.3628 i
 120.2  31.9061  29.3613 i
 120.25  28.7016  29.3599 i
 120.3  35.768  29.3585 i
 120.35  34.4003  29.3572 i
 120.4  27.1099  29.3559 i
 120.45  29.0092  29.3546 i
 120.5  35.0581  29.3534 i
 120.55  29.139  29.3522 i
 120.6  42.8076  29.3509 i
 120.65  22.6898  29.3498 i
 120.7  29.3984  29.3487 i
 120.75  32.067  29.3476 i
 120.8  34.4497  29.3465 i
 120.85  33.4432  29.3455 i
 120.9  34.0621  29.3444 i
 120.95  23.1108  29.3434 i
 121  37.1381  29.3424 i
 121.05  30.1419  29.3414 i
 121.1  41.2751  29.3405 i
 121.15  29.6901  29.3396 i
 121.2  39.175  29.3387 i
 121.25  47.0231  29.3378 i
 121.3  27.9437  29.3369 i
 121.35  23.6103  29.336 i
 121.4  22.6807  29.3351 i
 121.45  40.6551  29.3343 i
 121.5  32.8817  29.3335 i
 121.55  27.2516  29.3327 i
 121.6  26.06  29.3319 i
 121.65  30.5408  29.3311 i
 121.7  27.1518  29.3303 i
 121.75  38.0932  29.3295 i
 121.8  36.7441  29.3288 i
 121.85  26.2468  29.328 i
 121.9  27.3346  29.3273 i
 121.95  31.3422  29.3266 i
 122  27.8875  29.3259 i
 122.05  34.0835  29.3252 i
 122.1  24.0979  29.3244 i
 122.15  26.8836  29.3238 i
 122.2  24.6966  29.3231 i
 122.25  24.3978  29.3224 i
 122.3  28.9314  29.3217 i
 122.35  24.4264  29.3211 i
 122.4  31.1286  29.3204 i
 122.45  34.0013  29.3198 i
 122.5  33.177  29.3191 i
 122.55  34.751  29.3185 i
 122.6  33.8592  29.3178 i
 122.65  22.607  29.3172 i
 122.7  27.1374  29.3166 i
 122.75  14.7435  29.316 i
 122.8  24.0333  29.3154 i
 122.85  36.8151  29.3142 i
 122.9  37.0123  29.313 i
 122.95  30.7454  29.3124 i
 123  22.5458  29.3118 i
 123.05  34.4369  29.3112 i
 123.1  27.5274  29.3106 i
 123.15  37.155  29.3101 i
 123.2  31.1323  29.3095 i
 123.25  27.2275  29.3089 i
 123.3  27.0982  29.3083 i
 123.35  24.061  29.3078 i
 123.4  35.1475  29.3072 i
 123.45  34.5771  29.3066 i
 123.5  26.2534  29.3061 i
 123.55  33.657  29.3055 i
 123.6  28.6978  29.3049 i
 123.65  33.0113  29.3044 i
 123.7  21.023  29.3038 i
 123.75  20.6821  29.3033 i
 123.8  25.8079  29.3027 i
 123.85  20.1256  29.3022 i
 123.9  26.9594  29.3016 i
 123.95  32.3372  29.3011 i
 124  29.3606  29.3006 i
 124.05  26.3226  29.3 i
 124.1  38.3105  29.2995 i
 124.15  30.9073  29.2989 i
 124.2  32.5154  29.2984 i
 124.25  29.7796  29.2979 i
 124.3  28.347  29.2973 i
 124.35  33.5511  29.2968 i
 124.4  33.2563  29.2963 i
 124.45  22.7845  29.2957 i
 124.5  21.9649  29.2952 i
 124.55  26.5638  29.2947 i
 124.6  23.1829  29.2941 i
 124.65  36.0042  29.2936 i
 124.7  23.9173  29.2931 i
 124.75  29.3105  29.2925 i
 124.8  19.3202  29.292 i
 124.85  30.9933  29.2915 i
 124.9  34.5839  29.2909 i
 124.95  42.2307  29.2904 i
 125  29.7877  29.2899 i
 125.05  30.4654  29.2893 i
 125.1  31.3691  29.2888 i
 125.15  27.0175  29.2883 i
 125.2  27.7883  29.2877 i
 125.25  31.7148  29.2872 i
 125.3  33.3601  29.2867 i
 125.35  28.4553  29.2861 i
 125.4  32.6989  29.2856 i
 125.45  38.2369  29.285 i
 125.5  21.8364  29.2845 i
 125.55  28.5755  29.284 i
 125.6  30.9371  29.2834 i
 125.65  29.8047  29.2829 i
 125.7  33.7662  29.2823 i
 125.75  28.434  29.2818 i
 125.8  39.0857  29.2812 i
 125.85  30.9  29.2807 i
 125.9  28.7928  29.2801 i
 125.95  22.2436  29.2796 i
 126  29.1828  29.279 i
 126.05  36.6524  29.2785 i
 126.1  30.1637  29.2779 i
 126.15  43.7875  29.2773 i
 126.2  41.2272  29.2768 i
 126.25  32.7142  29.2762 i
 126.3  35.038  29.2756 i
 126.35  24.8497  29.2751 i
 126.4  30.3989  29.2745 i
 126.45  33.7499  29.2739 i
 126.5  30.9766  29.2734 i
 126.55  25.6488  29.2728 i
 126.6  19.7951  29.2722 i
 126.65  23.6886  29.2716 i
 126.7  30.4921  29.271 i
 126.75  21.8865  29.2704 i
 126.8  35.6876  29.2698 i
 126.85  19.5554  29.2692 i
 126.9  27.888  29.2686 i
 126.95  37.2122  29.268 i
 127  25.3326  29.2674 i
 127.05  29.1828  29.2668 i
 127.1  23.3568  29.2662 i
 127.15  38.2102  29.2656 i
 127.2  29.2873  29.265 i
 127.25  29.7607  29.2644 i
 127.3  27.1686  29.2638 i
 127.35  30.702  29.2631 i
 127.4  36.2843  29.2625 i
 127.45  26.7754  29.2619 i
 127.5  35.2111  29.2612 i
 127.55  28.2422  29.2606 i
 127.6  28.3986  29.26 i
 127.65  29.1487  29.2593 i
 127.7  24.2615  29.2587 i
 127.75  32.7333  29.258 i
 127.8  25.5028  29.2574 i
 127.85  28.1185  29.2567 i
 127.9  26.4908  29.256 i
 127.95  33.4485  29.2554 i
 128  37.4271  29.2547 i
 128.05  23.1374  29.254 i
 128.1  39.2891  29.2533 i
 128.15  22.3641  29.2526 i
 128.2  32.6588  29.2519 i
 128.25  29.3541  29.2513 i
 128.3  37.5068  29.2506 i
 128.35  23.9618  29.2499 i
 128.4  23.0138  29.2491 i
 128.45  32.7167  29.2484 i
 128.5  32.7432  29.2477 i
 128.55  34.5116  29.247 i
 128.6  25.1439  29.2463 i
 128.65  30.8361  29.2455 i
 128.7  33.1641  29.2448 i
 128.75  21.7739  29.2441 i
 128.8  20.0551  29.2433 i
 128.85  29.8  29.2426 i
 128.9  27.824  29.2418 i
 128.95  37.0015  29.2411 i
 129  28.5876  29.2403 i
 129.05  36.264  29.2395 i
 129.1  33.463  29.2388 i
 129.15  31.2826  29.238 i
 129.2  24.0912  29.2372 i
 129.25  23.5793  29.2364 i
 129.3  25.138  29.2356 i
 129.35  35.962  29.2348 i
 129.4  34.8788  29.234 i
 129.45  21.3938  29.2332 i
 129.5  28.8312  29.2324 i
 129.55  31.9416  29.2315 i
 129.6  24.7985  29.2307 i
 129.65  24.8135  29.2299 i
 129.7  26.4077  29.229 i
 129.75  32.2213  29.2282 i
 129.8  34.2723  29.2274 i
 129.85  25.9606  29.2265 i
 129.9  17.4868  29.2256 i
 129.95  33.339  29.2369 i
 130  26.4511  29.2481 i

