
#Surface 0 of 1 surfaces

#IsoCurve 0, 1801 points
#x y z type
 40  35.7513  0 i
 40.05  27.8124  0 i
 40.1  33.3057  0 i
 40.15  43.604  0 i
 40.2  39.6789  0 i
 40.25  29.0166  0 i
 40.3  47.0008  0 i
 40.35  40.2043  0 i
 40.4  48.8365  0 i
 40.45  37.7487  0 i
 40.5  45.11  0 i
 40.55  39.733  0 i
 40.6  38.8857  0 i
 40.65  44.6445  0 i
 40.7  37.9716  0 i
 40.75  39.786  0 i
 40.8  39.8725  0 i
 40.85  33.9419  0 i
 40.9  34.939  0 i
 40.95  35.7616  0 i
 41  37.8212  0 i
 41.05  28.0221  0 i
 41.1  45.6919  0 i
 41.15  33.5047  0 i
 41.2  40.2128  0 i
 41.25  36.743  0 i
 41.3  42.4488  0 i
 41.35  35.8084  0 i
 41.4  24.4025  0 i
 41.45  32.2736  0 i
 41.5  32.7526  0 i
 41.55  32.3617  0 i
 41.6  36.7348  0 i
 41.65  29.3242  0 i
 41.7  36.2158  0 i
 41.75  25.3882  0 i
 41.8  37.5206  0 i
 41.85  42.4013  0 i
 41.9  37.2089  0 i
 41.95  42.0264  0 i
 42  41.3039  0 i
 42.05  43.4  0 i
 42.1  32.3544  0 i
 42.15  32.337  0 i
 42.2  30.9037  0 i
 42.25  33.4249  0 i
 42.3  37.7864  0 i
 42.35  38.0956  0 i
 42.4  45.82  0 i
 42.45  49.9409  0 i
 42.5  32.4241  0 i
 42.55  34.3285  0 i
 42.6  40.5093  0 i
 42.65  40.1913  0 i
 42.7  30.2416  0 i
 42.75  36.9278  0 i
 42.8  29.978  0 i
 42.85  35.7435  0 i
 42.9  32.3486  0 i
 42.95  38.7319  0 i
 43  28.8372  0 i
 43.05  33.1034  0 i
 43.1  32.7966  0 i
 43.15  37.8975  0 i
 43.2  38.3961  0 i
 43.25  34.8793  0 i
 43.3  41.2576  0 i
 43.35  35.4592  0 i
 43.4  32.6799  0 i
 43.45  36.9683  0 i
 43.5  31.5727  0 i
 43.55  31.2618  0 i
 43.6  39.6785  0 i
 43.65  36.5252  0 i
 43.7  41.8051  0 i
 43.75  45.521  0 i
 43.8  32.4713  0 i
 43.85  39.4062  0 i
 43.9  35.4304  0 i
 43.95  41.9707  0 i
 44  33.0128  0 i
 44.05  43.1857  0 i
 44.1  58.3227  0 i
 44.15  49.6885  0 i
 44.2  68.9944  0 i
 44.25  82.1281  0 i
 44.3  92.7992  0 i
 44.35  145.798  0 i
 44.4  195.886  0 i
 44.45  384.132  0 i
 44.5  671.664  0 i
 44.55  1029.33  0 i
 44.6  1296.64  0 i
 44.65  1127.75  0 i
 44.7  733.888  0 i
 44.75  341.792  0 i
 44.8  162.704  0 i
 44.85  106.894  0 i
 44.9  74.0375  0 i
 44.95  60.9656  0 i
 45  38.5067  0 i
 45.05  45.68  0 i
 45.1  43.7203  0 i
 45.15  34.9017  0 i
 45.2  30.1415  0 i
 45.25  37.598  0 i
 45.3  42.0903  0 i
 45.35  49.812  0 i
 45.4  48.0788  0 i
 45.45  36.9736  0 i
 45.5  30.7851  0 i
 45.55  35.4401  0 i
 45.6  38.0777  0 i
 45.65  39.4954  0 i
 45.7  34.9515  0 i
 45.75  29.3189  0 i
 45.8  48.2149  0 i
 45.85  31.5273  0 i
 45.9  32.6702  0 i
 45.95  27.9923  0 i
 46  32.8117  0 i
 46.05  34.9856  0 i
 46.1  33.3089  0 i
 46.15  24.9094  0 i
 46.2  56.7959  0 i
 46.25  41.2407  0 i
 46.3  35.3517  0 i
 46.35  38.0534  0 i
 46.4  26.8436  0 i
 46.45  26.642  0 i
 46.5  32.4524  0 i
 46.55  30.3361  0 i
 46.6  27.6405  0 i
 46.65  39.8099  0 i
 46.7  37.9357  0 i
 46.75  34.3337  0 i
 46.8  40.174  0 i
 46.85  35.1681  0 i
 46.9  31.6383  0 i
 46.95  31.8841  0 i
 47  30.9062  0 i
 47.05  28.3384  0 i
 47.1  40.3644  0 i
 47.15  40.6099  0 i
 47.2  27.8974  0 i
 47.25  32.0591  0 i
 47.3  41.7535  0 i
 47.35  33.1747  0 i
 47.4  23.1993  0 i
 47.45  26.8902  0 i
 47.5  32.1362  0 i
 47.55  30.161  0 i
 47.6  30.3247  0 i
 47.65  29.6852  0 i
 47.7  36.3329  0 i
 47.75  29.6536  0 i
 47.8  34.6283  0 i
 47.85  29.809  0 i
 47.9  26.8299  0 i
 47.95  34.2372  0 i
 48  37.2592  0 i
 48.05  27.1022  0 i
 48.1  28.6279  0 i
 48.15  36.4289  0 i
 48.2  31.1261  0 i
 48.25  30.542  0 i
 48.3  42.3912  0 i
 48.35  25.0275  0 i
 48.4  33.2329  0 i
 48.45  25.8128  0 i
 48.5  30.8788  0 i
 48.55  26.5751  0 i
 48.6  33.7954  0 i
 48.65  31.1263  0 i
 48.7  31.1952  0 i
 48.75  41.5056  0 i
 48.8  31.5156  0 i
 48.85  28.8639  0 i
 48.9  32.5916  0 i
 48.95  29.1725  0 i
 49  32.4013  0 i
 49.05  47.7006  0 i
 49.1  33.9135  0 i
 49.15  37.0792  0 i
 49.2  33.1603  0 i
 49.25  27.6216  0 i
 49.3  35.9273  0 i
 49.35  39.9487  0 i
 49.4  42.3413  0 i
 49.45  42.3284  0 i
 49.5  21.3045  0 i
 49.55  30.835  0 i
 49.6  30.7486  0 i
 49.65  26.193  0 i
 49.7  35.4175  0 i
 49.75  38.847  0 i
 49.8  26.7643  0 i
 49.85  37.6654  0 i
 49.9  31.0963  0 i
 49.95  31.2172  0 i
 50  35.8137  0 i
 50.05  30.6031  0 i
 50.1  38.1013  0 i
 50.15  34.8311  0 i
 50.2  26.0939  0 i
 50.25  34.1449  0 i
 50.3  39.4498  0 i
 50.35  33.679  0 i
 50.4  52.9223  0 i
 50.45  28.6434  0 i
 50.5  31.9059  0 i
 50.55  30.0668  0 i
 50.6  25.8589  0 i
 50.65  22.7012  0 i
 50.7  29.6551  0 i
 50.75  32.697  0 i
 50.8  34.9488  0 i
 50.85  39.0847  0 i
 50.9  24.8127  0 i
 50.95  41.8669  0 i
 51  20.653  0 i
 51.05  26.8232  0 i
 51.1  28.228  0 i
 51.15  35.2963  0 i
 51.2  33.4654  0 i
 51.25  30.3096  0 i
 51.3  31.0741  0 i
 51.35  36.5384  0 i
 51.4  27.1092  0 i
 51.45  28.1092  0 i
 51.5  39.9288  0 i
 51.55  39.8125  0 i
 51.6  32.0827  0 i
 51.65  29.9113  0 i
 51.7  37.7805  0 i
 51.75  35.0768  0 i
 51.8  33.2024  0 i
 51.85  31.3326  0 i
 51.9  30.9546  0 i
 51.95  32.5172  0 i
 52  34.3183  0 i
 52.05  38.1175  0 i
 52.1  24.1692  0 i
 52.15  31.9594  0 i
 52.2  14.9076  0 i
 52.25  31.3282  0 i
 52.3  26.4091  0 i
 52.35  30.2476  0 i
 52.4  30.834  0 i
 52.45  30.9634  0 i
 52.5  41.2778  0 i
 52.55  26.7338  0 i
 52.6  35.2165  0 i
 52.65  31.0891  0 i
 52.7  32.1526  0 i
 52.75  30.3683  0 i
 52.8  30.8225  0 i
 52.85  42.2785  0 i
 52.9  28.3489  0 i
 52.95  41.2484  0 i
 53  33.9183  0 i
 53.05  30.3135  0 i
 53.1  37.2271  0 i
 53.15  31.7736  0 i
 53.2  27.4638  0 i
 53.25  34.0459  0 i
 53.3  35.7707  0 i
 53.35  25.9088  0 i
 53.4  24.5552  0 i
 53.45  38.9919  0 i
 53.5  32.8547  0 i
 53.55  28.174  0 i
 53.6  32.181  0 i
 53.65  28.938  0 i
 53.7  38.2635  0 i
 53.75  35.2006  0 i
 53.8  32.1217  0 i
 53.85  32.3515  0 i
 53.9  28.8942  0 i
 53.95  32.4603  0 i
 54  28.8415  0 i
 54.05  27.0827  0 i
 54.1  25.0138  0 i
 54.15  30.5457  0 i
 54.2  33.3785  0 i
 54.25  31.3304  0 i
 54.3  32.7687  0 i
 54.35  24.9539  0 i
 54.4  37.2173  0 i
 54.45  40.1425  0 i
 54.5  30.2349  0 i
 54.55  30.5061  0 i
 54.6  39.6575  0 i
 54.65  30.0118  0 i
 54.7  27.0099  0 i
 54.75  40.8148  0 i
 54.8  29.2384  0 i
 54.85  29.7901  0 i
 54.9  35.5928  0 i
 54.95  39.0015  0 i
 55  36.6172  0 i
 55.05  32.2139  0 i
 55.1  32.0769  0 i
 55.15  24.8464  0 i
 55.2  33.7918  0 i
 55.25  27.9587  0 i
 55.3  31.6822  0 i
 55.35  26.0164  0 i
 55.4  36.7375  0 i
 55.45  26.8933  0 i
 55.5  31.3372  0 i
 55.55  26.9693  0 i
 55.6  29.7985  0 i
 55.65  38.8932  0 i
 55.7  39.7432  0 i
 55.75  41.0438  0 i
 55.8  33.9668  0 i
 55.85  32.3765  0 i
 55.9  37.3069  0 i
 55.95  38.5272  0 i
 56  26.3266  0 i
 56.05  42.5789  0 i
 56.1  30.6293  0 i
 56.15  44.5172  0 i
 56.2  27.4684  0 i
 56.25  29.9458  0 i
 56.3  30.8451  0 i
 56.35  26.6108  0 i
 56.4  25.9593  0 i
 56.45  37.712  0 i
 56.5  23.8558  0 i
 56.55  36.0814  0 i
 56.6  26.9164  0 i
 56.65  33.2366  0 i
 56.7  35.7735  0 i
 56.75  29.7467  0 i
 56.8  29.0501  0 i
 56.85  35.1989  0 i
 56.9  30.8904  0 i
 56.95  38.1222  0 i
 57  34.4175  0 i
 57.05  31.8791  0 i
 57.1  27.8594  0 i
 57.15  23.6243  0 i
 57.2  37.6394  0 i
 57.25  28.8851  0 i
 57.3  30.8474  0 i
 57.35  31.7365  0 i
 57.4  34.1827  0 i
 57.45  27.6401  0 i
 57.5  34.383  0 i
 57.55  37.6876  0 i
 57.6  28.4172  0 i
 57.65  27.0055  0 i
 57.7  36.9548  0 i
 57.75  32.324  0 i
 57.8  41.5495  0 i
 57.85  25.8451  0 i
 57.9  25.3139  0 i
 57.95  32.312  0 i
 58  32.8586  0 i
 58.05  33.0643  0 i
 58.1  26.064  0 i
 58.15  22.9023  0 i
 58.2  33.5287  0 i
 58.25  31.5388  0 i
 58.3  23.654  0 i
 58.35  36.8512  0 i
 58.4  26.7129  0 i
 58.45  25.1529  0 i
 58.5  39.3168  0 i
 58.55  28.3056  0 i
 58.6  29.4649  0 i
 58.65  30.0441  0 i
 58.7  30.8874  0 i
 58.75  30.071  0 i
 58.8  20.9554  0 i
 58.85  23.5247  0 i
 58.9  23.6052  0 i
 58.95  32.4062  0 i
 59  23.5666  0 i
 59.05  36.0488  0 i
 59.1  21.8841  0 i
 59.15  39.3927  0 i
 59.2  22.5506  0 i
 59.25  28.3344  0 i
 59.3  33.953  0 i
 59.35  28.0074  0 i
 59.4  49.9019  0 i
 59.45  26.2561  0 i
 59.5  21.7721  0 i
 59.55  34.8459  0 i
 59.6  20.9195  0 i
 59.65  21.149  0 i
 59.7  32.2364  0 i
 59.75  21.6358  0 i
 59.8  30.0564  0 i
 59.85  26.3289  0 i
 59.9  26.0153  0 i
 59.95  21.7891  0 i
 60  39.4171  0 i
 60.05  35.8491  0 i
 60.1  31.0056  0 i
 60.15  35.0116  0 i
 60.2  33.2971  0 i
 60.25  30.3303  0 i
 60.3  26.2863  0 i
 60.35  35.0762  0 i
 60.4  36.8164  0 i
 60.45  20.8321  0 i
 60.5  27.257  0 i
 60.55  34.5821  0 i
 60.6  24.6815  0 i
 60.65  25.7916  0 i
 60.7  32.0896  0 i
 60.75  22.3185  0 i
 60.8  29.6256  0 i
 60.85  40.6115  0 i
 60.9  34.9611  0 i
 60.95  36.1427  0 i
 61  29.9413  0 i
 61.05  30.2179  0 i
 61.1  36.1775  0 i
 61.15  20.8506  0 i
 61.2  30.7426  0 i
 61.25  37.6203  0 i
 61.3  31.0834  0 i
 61.35  30.1803  0 i
 61.4  26.3021  0 i
 61.45  35.2643  0 i
 61.5  39.1231  0 i
 61.55  32.3637  0 i
 61.6  24.2289  0 i
 61.65  29.747  0 i
 61.7  33.2635  0 i
 61.75  38.9357  0 i
 61.8  35.0353  0 i
 61.85  20.6225  0 i
 61.9  34.5546  0 i
 61.95  26.2416  0 i
 62  25.4  0 i
 62.05  32.46  0 i
 62.1  25.4868  0 i
 62.15  29.5012  0 i
 62.2  31.8108  0 i
 62.25  30.4076  0 i
 62.3  33.3116  0 i
 62.35  31.5653  0 i
 62.4  37.6418  0 i
 62.45  29.0334  0 i
 62.5  29.8384  0 i
 62.55  31.9846  0 i
 62.6  22.4879  0 i
 62.65  31.924  0 i
 62.7  30.302  0 i
 62.75  27.4764  0 i
 62.8  32.6766  0 i
 62.85  39.0642  0 i
 62.9  27.4699  0 i
 62.95  39.5411  0 i
 63  33.4402  0 i
 63.05  34.6703  0 i
 63.1  25.1677  0 i
 63.15  26.1824  0 i
 63.2  31.685  0 i
 63.25  27.209  0 i
 63.3  35.7416  0 i
 63.35  24.9382  0 i
 63.4  32.5497  0 i
 63.45  33.7823  0 i
 63.5  30.7997  0 i
 63.55  35.7514  0 i
 63.6  29.573  0 i
 63.65  28.6674  0 i
 63.7  25.0406  0 i
 63.75  26.2163  0 i
 63.8  26.6402  0 i
 63.85  23.129  0 i
 63.9  22.1917  0 i
 63.95  36.1319  0 i
 64  29.6122  0 i
 64.05  30.0266  0 i
 64.1  35.2628  0 i
 64.15  26.3847  0 i
 64.2  27.3255  0 i
 64.25  31.7609  0 i
 64.3  39.9187  0 i
 64.35  34.124  0 i
 64.4  41.3012  0 i
 64.45  38.8297  0 i
 64.5  53.3835  0 i
 64.55  59.7337  0 i
 64.6  86.9432  0 i
 64.65  85.298  0 i
 64.7  115.518  0 i
 64.75  153.365  0 i
 64.8  140.5  0 i
 64.85  172.945  0 i
 64.9  202.576  0 i
 64.95  192.928  0 i
 65  152.013  0 i
 65.05  120.426  0 i
 65.1  105.391  0 i
 65.15  71.8336  0 i
 65.2  57.7928  0 i
 65.25  61.6551  0 i
 65.3  42.8541  0 i
 65.35  33.1069  0 i
 65.4  34.8873  0 i
 65.45  31.7185  0 i
 65.5  33.6885  0 i
 65.55  41.4134  0 i
 65.6  40.1252  0 i
 65.65  29.6639  0 i
 65.7  28.2186  0 i
 65.75  30.7077  0 i
 65.8  36.8256  0 i
 65.85  38.1372  0 i
 65.9  28.3354  0 i
 65.95  29.6052  0 i
 66  41.2195  0 i
 66.05  31.1085  0 i
 66.1  31.3383  0 i
 66.15  21.679  0 i
 66.2  34.3138  0 i
 66.25  24.8319  0 i
 66.3  20.704  0 i
 66.35  31.594  0 i
 66.4  47.4917  0 i
 66.45  29.663  0 i
 66.5  41.3971  0 i
 66.55  33.4343  0 i
 66.6  22.3277  0 i
 66.65  42.9936  0 i
 66.7  34.2689  0 i
 66.75  39.7931  0 i
 66.8  33.5971  0 i
 66.85  38.897  0 i
 66.9  30.5015  0 i
 66.95  34.9516  0 i
 67  33.7762  0 i
 67.05  34.4401  0 i
 67.1  33.3125  0 i
 67.15  40.5114  0 i
 67.2  29.6025  0 i
 67.25  28.874  0 i
 67.3  23.9591  0 i
 67.35  28.2035  0 i
 67.4  31.6863  0 i
 67.45  39.5832  0 i
 67.5  35.7262  0 i
 67.55  29.6174  0 i
 67.6  20.1669  0 i
 67.65  31.0503  0 i
 67.7  39.0318  0 i
 67.75  44.3349  0 i
 67.8  29.4721  0 i
 67.85  38.1786  0 i
 67.9  39.7186  0 i
 67.95  30.7108  0 i
 68  36.9792  0 i
 68.05  28.4284  0 i
 68.1  31.3315  0 i
 68.15  32.661  0 i
 68.2  25.5896  0 i
 68.25  30.2593  0 i
 68.3  31.7688  0 i
 68.35  22.6064  0 i
 68.4  21.0183  0 i
 68.45  27.6115  0 i
 68.5  31.1249  0 i
 68.55  36.6847  0 i
 68.6  29.6738  0 i
 68.65  30.7252  0 i
 68.7  28.9883  0 i
 68.75  28.4575  0 i
 68.8  26.0603  0 i
 68.85  29.247  0 i
 68.9  42.8133  0 i
 68.95  30.1978  0 i
 69  21.4788  0 i
 69.05  29.6737  0 i
 69.1  30.3992  0 i
 69.15  29.0153  0 i
 69.2  28.1641  0 i
 69.25  26.0047  0 i
 69.3  29.4569  0 i
 69.35  27.5069  0 i
 69.4  31.502  0 i
 69.45  20.088  0 i
 69.5  28.2258  0 i
 69.55  25.6754  0 i
 69.6  38.5221  0 i
 69.65  35.6819  0 i
 69.7  21.3928  0 i
 69.75  22.3103  0 i
 69.8  22.3937  0 i
 69.85  34.3311  0 i
 69.9  26.985  0 i
 69.95  25.5893  0 i
 70  19.6229  0 i
 70.05  35.7085  0 i
 70.1  24.8075  0 i
 70.15  31.4424  0 i
 70.2  27.4019  0 i
 70.25  36.2483  0 i
 70.3  29.5109  0 i
 70.35  24.0459  0 i
 70.4  21.0488  0 i
 70.45  37.8123  0 i
 70.5  37.3351  0 i
 70.55  24.4884  0 i
 70.6  42.1743  0 i
 70.65  35.4281  0 i
 70.7  18.672  0 i
 70.75  19.8216  0 i
 70.8  25.9222  0 i
 70.85  34.4737  0 i
 70.9  30.1948  0 i
 70.95  22.4865  0 i
 71  37.199  0 i
 71.05  25.1277  0 i
 71.1  24.8409  0 i
 71.15  37.9055  0 i
 71.2  27.8209  0 i
 71.25  24.549  0 i
 71.3  31.7864  0 i
 71.35  23.5279  0 i
 71.4  22.7875  0 i
 71.45  38.4347  0 i
 71.5  23.6305  0 i
 71.55  28.6916  0 i
 71.6  41.5033  0 i
 71.65  33.1882  0 i
 71.7  29.2291  0 i
 71.75  31.9454  0 i
 71.8  26.1397  0 i
 71.85  29.7498  0 i
 71.9  36.2833  0 i
 71.95  31.1674  0 i
 72  30.6196  0 i
 72.05  24.542  0 i
 72.1  22.4718  0 i
 72.15  30.6308  0 i
 72.2  33.7547  0 i
 72.25  32.6359  0 i
 72.3  30.2798  0 i
 72.35  30.1689  0 i
 72.4  27.8917  0 i
 72.45  29.9075  0 i
 72.5  30.5877  0 i
 72.55  28.4425  0 i
 72.6  26.9036  0 i
 72.65  21.4155  0 i
 72.7  30.5353  0 i
 72.75  24.1507  0 i
 72.8  23.5087  0 i
 72.85  36.9897  0 i
 72.9  35.5267  0 i
 72.95  24.1694  0 i
 73  33.5215  0 i
 73.05  26.974  0 i
 73.1  20.79  0 i
 73.15  39.217  0 i
 73.2  18.363  0 i
 73.25  29.4406  0 i
 73.3  31.3509  0 i
 73.35  33.2161  0 i
 73.4  40.6567  0 i
 73.45  45.0463  0 i
 73.5  24.749  0 i
 73.55  28.8994  0 i
 73.6  26.9629  0 i
 73.65  20.657  0 i
 73.7  23.4077  0 i
 73.75  23.7433  0 i
 73.8  28.314  0 i
 73.85  43.8754  0 i
 73.9  18.3241  0 i
 73.95  36.8931  0 i
 74  27.8348  0 i
 74.05  26.5733  0 i
 74.1  26.8319  0 i
 74.15  25.7566  0 i
 74.2  17.145  0 i
 74.25  35.1148  0 i
 74.3  24.6456  0 i
 74.35  37.8426  0 i
 74.4  32.8779  0 i
 74.45  32.3832  0 i
 74.5  22.6557  0 i
 74.55  21.1454  0 i
 74.6  25.6752  0 i
 74.65  25.0611  0 i
 74.7  30.7618  0 i
 74.75  32.7171  0 i
 74.8  36.1734  0 i
 74.85  38.971  0 i
 74.9  28.8931  0 i
 74.95  22.8074  0 i
 75  34.1997  0 i
 75.05  24.4123  0 i
 75.1  29.6884  0 i
 75.15  37.5334  0 i
 75.2  33.0236  0 i
 75.25  39.282  0 i
 75.3  22.7225  0 i
 75.35  36.0635  0 i
 75.4  27.5428  0 i
 75.45  39.0751  0 i
 75.5  36.5654  0 i
 75.55  35.9157  0 i
 75.6  29.6682  0 i
 75.65  23.5313  0 i
 75.7  22.3487  0 i
 75.75  26.8522  0 i
 75.8  40.586  0 i
 75.85  34.9622  0 i
 75.9  24.131  0 i
 75.95  29.9982  0 i
 76  22.3329  0 i
 76.05  34.2174  0 i
 76.1  29.5554  0 i
 76.15  27.1554  0 i
 76.2  31.8356  0 i
 76.25  31.5729  0 i
 76.3  27.7778  0 i
 76.35  20.296  0 i
 76.4  30.3608  0 i
 76.45  24.4446  0 i
 76.5  26.2308  0 i
 76.55  31.5716  0 i
 76.6  42.4408  0 i
 76.65  21.6585  0 i
 76.7  35.4218  0 i
 76.75  20.9355  0 i
 76.8  28.4623  0 i
 76.85  29.3846  0 i
 76.9  25.5126  0 i
 76.95  19.0907  0 i
 77  32.8176  0 i
 77.05  37.1412  0 i
 77.1  24.5723  0 i
 77.15  23.7305  0 i
 77.2  25.323  0 i
 77.25  22.021  0 i
 77.3  22.5742  0 i
 77.35  33.0678  0 i
 77.4  40.0624  0 i
 77.45  43.2275  0 i
 77.5  29.5215  0 i
 77.55  18.8333  0 i
 77.6  23.8352  0 i
 77.65  26.9583  0 i
 77.7  30.5306  0 i
 77.75  33.5778  0 i
 77.8  30.1371  0 i
 77.85  27.2908  0 i
 77.9  23.8775  0 i
 77.95  27.3337  0 i
 78  33.5457  0 i
 78.05  27.3906  0 i
 78.1  31.1364  0 i
 78.15  31.8519  0 i
 78.2  25.9059  0 i
 78.25  28.6971  0 i
 78.3  27.398  0 i
 78.35  29.4587  0 i
 78.4  25.1465  0 i
 78.45  35.9635  0 i
 78.5  35.417  0 i
 78.55  25.3494  0 i
 78.6  29.9619  0 i
 78.65  24.0065  0 i
 78.7  21.4521  0 i
 78.75  27.4424  0 i
 78.8  34.223  0 i
 78.85  31.334  0 i
 78.9  23.7581  0 i
 78.95  31.5803  0 i
 79  23.5001  0 i
 79.05  37.7203  0 i
 79.1  26.6516  0 i
 79.15  34.0173  0 i
 79.2  23.8466  0 i
 79.25  29.1274  0 i
 79.3  31.6022  0 i
 79.35  26.0335  0 i
 79.4  33.4471  0 i
 79.45  25.3779  0 i
 79.5  34.5618  0 i
 79.55  27.273  0 i
 79.6  22.4624  0 i
 79.65  31.2974  0 i
 79.7  30.3612  0 i
 79.75  26.309  0 i
 79.8  28.2208  0 i
 79.85  15.1065  0 i
 79.9  27.0086  0 i
 79.95  29.7142  0 i
 80  26.5768  0 i
 80.05  25.4044  0 i
 80.1  27.7714  0 i
 80.15  32.6968  0 i
 80.2  29.6922  0 i
 80.25  22.3528  0 i
 80.3  37.1451  0 i
 80.35  24.4557  0 i
 80.4  33.6397  0 i
 80.45  30.134  0 i
 80.5  26.3717  0 i
 80.55  34.9917  0 i
 80.6  26.1865  0 i
 80.65  19.4033  0 i
 80.7  29.1374  0 i
 80.75  35.0041  0 i
 80.8  26.566  0 i
 80.85  30.4383  0 i
 80.9  21.5156  0 i
 80.95  36.0647  0 i
 81  36.8213  0 i
 81.05  38.587  0 i
 81.1  33.4695  0 i
 81.15  24.3195  0 i
 81.2  29.8197  0 i
 81.25  25.3604  0 i
 81.3  29.2934  0 i
 81.35  29.7221  0 i
 81.4  30.1811  0 i
 81.45  29.4859  0 i
 81.5  23.1939  0 i
 81.55  26.5662  0 i
 81.6  33.5122  0 i
 81.65  33.5899  0 i
 81.7  39.4048  0 i
 81.75  36.3479  0 i
 81.8  44.2479  0 i
 81.85  45.3231  0 i
 81.9  61.6348  0 i
 81.95  66.3684  0 i
 82  101.885  0 i
 82.05  120.429  0 i
 82.1  136.498  0 i
 82.15  129.37  0 i
 82.2  116.579  0 i
 82.25  101.161  0 i
 82.3  98.5084  0 i
 82.35  83.6568  0 i
 82.4  49.5487  0 i
 82.45  40.9399  0 i
 82.5  44.7177  0 i
 82.55  37.4146  0 i
 82.6  37.5848  0 i
 82.65  38.316  0 i
 82.7  31.0318  0 i
 82.75  36.1296  0 i
 82.8  31.334  0 i
 82.85  30.5714  0 i
 82.9  29.1972  0 i
 82.95  33.3501  0 i
 83  25.6083  0 i
 83.05  24.2522  0 i
 83.1  26.9648  0 i
 83.15  37.1545  0 i
 83.2  31.5147  0 i
 83.25  23.609  0 i
 83.3  39.1568  0 i
 83.35  37.4391  0 i
 83.4  27.5873  0 i
 83.45  32.844  0 i
 83.5  27.2836  0 i
 83.55  33.5801  0 i
 83.6  28.0506  0 i
 83.65  31.9124  0 i
 83.7  35.8457  0 i
 83.75  27.1694  0 i
 83.8  35.6738  0 i
 83.85  24.6263  0 i
 83.9  33.9874  0 i
 83.95  24.1252  0 i
 84  27.9692  0 i
 84.05  31.2566  0 i
 84.1  42.1753  0 i
 84.15  36.5322  0 i
 84.2  33.9495  0 i
 84.25  28.0954  0 i
 84.3  43.7675  0 i
 84.35  23.8535  0 i
 84.4  32.5239  0 i
 84.45  30.9639  0 i
 84.5  36.9205  0 i
 84.55  40.1491  0 i
 84.6  23.3259  0 i
 84.65  34.9483  0 i
 84.7  33.3065  0 i
 84.75  41.4072  0 i
 84.8  24.7546  0 i
 84.85  35.7823  0 i
 84.9  34.4979  0 i
 84.95  21.4283  0 i
 85  29.9722  0 i
 85.05  27.6387  0 i
 85.1  38.948  0 i
 85.15  29.5517  0 i
 85.2  37.0176  0 i
 85.25  23.1476  0 i
 85.3  25.9555  0 i
 85.35  25.7748  0 i
 85.4  26.3186  0 i
 85.45  19.5986  0 i
 85.5  34.6609  0 i
 85.55  35.5974  0 i
 85.6  22.6048  0 i
 85.65  29.9333  0 i
 85.7  38.3327  0 i
 85.75  32.1503  0 i
 85.8  30.9165  0 i
 85.85  33.3401  0 i
 85.9  28.255  0 i
 85.95  35.4707  0 i
 86  22.4758  0 i
 86.05  26.4006  0 i
 86.1  32.8515  0 i
 86.15  19.1826  0 i
 86.2  27.1328  0 i
 86.25  30.4741  0 i
 86.3  44.0558  0 i
 86.35  30.0454  0 i
 86.4  33.034  0 i
 86.45  23.9251  0 i
 86.5  29.7187  0 i
 86.55  35.9337  0 i
 86.6  31.5904  0 i
 86.65  27.7721  0 i
 86.7  27.0826  0 i
 86.75  26.6367  0 i
 86.8  30.064  0 i
 86.85  30.2556  0 i
 86.9  28.1702  0 i
 86.95  27.9059  0 i
 87  23.6452  0 i
 87.05  26.9194  0 i
 87.1  32.3678  0 i
 87.15  27.5957  0 i
 87.2  24.2127  0 i
 87.25  34.9644  0 i
 87.3  21.8062  0 i
 87.35  29.0959  0 i
 87.4  33.1176  0 i
 87.45  20.4837  0 i
 87.5  29.3619  0 i
 87.55  21.562  0 i
 87.6  26.8159  0 i
 87.65  39.9785  0 i
 87.7  33.0195  0 i
 87.75  19.9285  0 i
 87.8  18.0175  0 i
 87.85  35.0791  0 i
 87.9  34.6949  0 i
 87.95  33.5762  0 i
 88  19.8981  0 i
 88.05  29.928  0 i
 88.1  29.8828  0 i
 88.15  34.9895  0 i
 88.2  19.5239  0 i
 88.25  40.1078  0 i
 88.3  37.7413  0 i
 88.35  24.4274  0 i
 88.4  26.1474  0 i
 88.45  38.1028  0 i
 88.5  22.9362  0 i
 88.55  28.6778  0 i
 88.6  31.8091  0 i
 88.65  29.4178  0 i
 88.7  36.2395  0 i
 88.75  32.8507  0 i
 88.8  39.9805  0 i
 88.85  33.2817  0 i
 88.9  32.7426  0 i
 88.95  36.2612  0 i
 89  30.1295  0 i
 89.05  30.2802  0 i
 89.1  25.4092  0 i
 89.15  27.2316  0 i
 89.2  26.6687  0 i
 89.25  28.4616  0 i
 89.3  28.4824  0 i
 89.35  30.9819  0 i
 89.4  27.1812  0 i
 89.45  22.8056  0 i
 89.5  36.0105  0 i
 89.55  25.9286  0 i
 89.6  30.6004  0 i
 89.65  30.2362  0 i
 89.7  33.0402  0 i
 89.75  27.8547  0 i
 89.8  34.5142  0 i
 89.85  25.108  0 i
 89.9  33.488  0 i
 89.95  30.5833  0 i
 90  27.7247  0 i
 90.05  24.8678  0 i
 90.1  29.5499  0 i
 90.15  32.3225  0 i
 90.2  23.1427  0 i
 90.25  36.478  0 i
 90.3  30.1102  0 i
 90.35  28.6511  0 i
 90.4  29.5224  0 i
 90.45  31.2822  0 i
 90.5  30.3798  0 i
 90.55  23.6317  0 i
 90.6  30.5591  0 i
 90.65  30.9508  0 i
 90.7  37.6037  0 i
 90.75  30.8038  0 i
 90.8  30.7781  0 i
 90.85  33.1956  0 i
 90.9  30.3343  0 i
 90.95  36.4278  0 i
 91  39.096  0 i
 91.05  29.6067  0 i
 91.1  27.7562  0 i
 91.15  31.8677  0 i
 91.2  29.9306  0 i
 91.25  21.7978  0 i
 91.3  21.1506  0 i
 91.35  27.8789  0 i
 91.4  35.5133  0 i
 91.45  35.759  0 i
 91.5  35.6159  0 i
 91.55  29.0541  0 i
 91.6  23.9076  0 i
 91.65  36.2678  0 i
 91.7  23.2372  0 i
 91.75  34.4094  0 i
 91.8  27.4364  0 i
 91.85  22.7338  0 i
 91.9  31.6901  0 i
 91.95  30.3113  0 i
 92  23.4362  0 i
 92.05  35.088  0 i
 92.1  36.3953  0 i
 92.15  29.2014  0 i
 92.2  31.6982  0 i
 92.25  25.2557  0 i
 92.3  18.2698  0 i
 92.35  24.4485  0 i
 92.4  26.0651  0 i
 92.45  25.1614  0 i
 92.5  29.5543  0 i
 92.55  26.2685  0 i
 92.6  31.2645  0 i
 92.65  32.1146  0 i
 92.7  30.8466  0 i
 92.75  23.5015  0 i
 92.8  39.1437  0 i
 92.85  30.851  0 i
 92.9  25.5286  0 i
 92.95  25.2581  0 i
 93  33.5475  0 i
 93.05  46.4138  0 i
 93.1  26.1381  0 i
 93.15  18.2047  0 i
 93.2  24.5594  0 i
 93.25  30.0272  0 i
 93.3  28.4087  0 i
 93.35  25.5464  0 i
 93.4  32.0509  0 i
 93.45  24.3519  0 i
 93.5  27.7326  0 i
 93.55  31.6963  0 i
 93.6  22.6785  0 i
 93.65  36.0865  0 i
 93.7  25.4728  0 i
 93.75  34.3424  0 i
 93.8  27.1779  0 i
 93.85  28.3975  0 i
 93.9  29.4344  0 i
 93.95  30.3721  0 i
 94  31.4189  0 i
 94.05  31.5581  0 i
 94.1  23.8125  0 i
 94.15  27.1168  0 i
 94.2  27.3919  0 i
 94.25  30.9497  0 i
 94.3  22.8182  0 i
 94.35  35.9773  0 i
 94.4  33.0566  0 i
 94.45  26.2672  0 i
 94.5  30.5745  0 i
 94.55  28.6516  0 i
 94.6  42.677  0 i
 94.65  26.7176  0 i
 94.7  27.405  0 i
 94.75  29.5711  0 i
 94.8  27.2196  0 i
 94.85  27.7437  0 i
 94.9  31.5667  0 i
 94.95  17.0894  0 i
 95  29.6745  0 i
 95.05  30.0801  0 i
 95.1  28.8797  0 i
 95.15  33.8445  0 i
 95.2  25.8509  0 i
 95.25  35.6512  0 i
 95.3  30.3331  0 i
 95.35  38.8521  0 i
 95.4  26.0552  0 i
 95.45  34.2365  0 i
 95.5  34.7213  0 i
 95.55  29.3355  0 i
 95.6  26.6861  0 i
 95.65  36.6285  0 i
 95.7  41.9414  0 i
 95.75  22.23  0 i
 95.8  29.329  0 i
 95.85  24.7168  0 i
 95.9  36.3453  0 i
 95.95  26.7639  0 i
 96  30.2778  0 i
 96.05  22.9908  0 i
 96.1  32.1503  0 i
 96.15  34.6081  0 i
 96.2  30.5258  0 i
 96.25  30.3414  0 i
 96.3  32.8203  0 i
 96.35  29.7915  0 i
 96.4  31.0804  0 i
 96.45  27.9235  0 i
 96.5  20.4065  0 i
 96.55  27.2414  0 i
 96.6  22.0838  0 i
 96.65  37.6112  0 i
 96.7  31.9393  0 i
 96.75  32.8718  0 i
 96.8  32.7954  0 i
 96.85  26.5024  0 i
 96.9  26.3409  0 i
 96.95  27.5566  0 i
 97  24.756  0 i
 97.05  28.6642  0 i
 97.1  37.3922  0 i
 97.15  21.9745  0 i
 97.2  32.1405  0 i
 97.25  29.7337  0 i
 97.3  35.7649  0 i
 97.35  29.4281  0 i
 97.4  34.7561  0 i
 97.45  27.3384  0 i
 97.5  33.9964  0 i
 97.55  30.7243  0 i
 97.6  43.6233  0 i
 97.65  31.6978  0 i
 97.7  27.9639  0 i
 97.75  31.8624  0 i
 97.8  38.5394  0 i
 97.85  38.0333  0 i
 97.9  24.0279  0 i
 97.95  35.3786  0 i
 98  32.8459  0 i
 98.05  31.3902  0 i
 98.1  29.2421  0 i
 98.15  27.2585  0 i
 98.2  38.6487  0 i
 98.25  46.7946  0 i
 98.3  41.5212  0 i
 98.35  43.7895  0 i
 98.4  42.2253  0 i
 98.45  54.7614  0 i
 98.5  48.5128  0 i
 98.55  66.8927  0 i
 98.6  71.1961  0 i
 98.65  80.0722  0 i
 98.7  75.5033  0 i
 98.75  75.6204  0 i
 98.8  69.3713  0 i
 98.85  72.5983  0 i
 98.9  43.321  0 i
 98.95  42.211  0 i
 99  40.0938  0 i
 99.05  46.8122  0 i
 99.1  40.2384  0 i
 99.15  29.9154  0 i
 99.2  42.0847  0 i
 99.25  37.8932  0 i
 99.3  30.922  0 i
 99.35  31.7908  0 i
 99.4  27.3306  0 i
 99.45  29.4282  0 i
 99.5  31.0794  0 i
 99.55  29.6346  0 i
 99.6  28.3662  0 i
 99.65  38.2321  0 i
 99.7  23.361  0 i
 99.75  27.1093  0 i
 99.8  31.2139  0 i
 99.85  28.2423  0 i
 99.9  28.3932  0 i
 99.95  23.2094  0 i
 100  33.3585  0 i
 100.05  28.4142  0 i
 100.1  23.716  0 i
 100.15  26.1728  0 i
 100.2  28.849  0 i
 100.25  30.8106  0 i
 100.3  32.1379  0 i
 100.35  31.9125  0 i
 100.4  23.8194  0 i
 100.45  33.0209  0 i
 100.5  22.7506  0 i
 100.55  32.8873  0 i
 100.6  34.9173  0 i
 100.65  20.1477  0 i
 100.7  25.8383  0 i
 100.75  30.8461  0 i
 100.8  28.9031  0 i
 100.85  27.0474  0 i
 100.9  26.8009  0 i
 100.95  27.34  0 i
 101  21.3838  0 i
 101.05  31.4873  0 i
 101.1  30.0174  0 i
 101.15  31.8856  0 i
 101.2  34.6923  0 i
 101.25  28.9296  0 i
 101.3  36.3957  0 i
 101.35  32.2503  0 i
 101.4  21.3934  0 i
 101.45  28.5885  0 i
 101.5  45.3176  0 i
 101.55  31.1674  0 i
 101.6  23.5972  0 i
 101.65  38.1897  0 i
 101.7  22.8716  0 i
 101.75  38.2739  0 i
 101.8  25.9887  0 i
 101.85  36.4101  0 i
 101.9  35.7568  0 i
 101.95  42.8928  0 i
 102  39.6162  0 i
 102.05  34.1104  0 i
 102.1  22.2266  0 i
 102.15  17.3709  0 i
 102.2  39.0887  0 i
 102.25  31.6761  0 i
 102.3  35.4867  0 i
 102.35  28.3006  0 i
 102.4  30.1992  0 i
 102.45  27.5912  0 i
 102.5  26.2446  0 i
 102.55  36.3012  0 i
 102.6  39.3481  0 i
 102.65  29.005  0 i
 102.7  29.0181  0 i
 102.75  33.359  0 i
 102.8  28.15  0 i
 102.85  30.8896  0 i
 102.9  23.6548  0 i
 102.95  27.8128  0 i
 103  30.6713  0 i
 103.05  31.5146  0 i
 103.1  39.7672  0 i
 103.15  32.4934  0 i
 103.2  34.5903  0 i
 103.25  26.9161  0 i
 103.3  39.4386  0 i
 103.35  29.3362  0 i
 103.4  19.4174  0 i
 103.45  33.7636  0 i
 103.5  39.132  0 i
 103.55  39.8462  0 i
 103.6  32.4046  0 i
 103.65  25.8202  0 i
 103.7  26.5509  0 i
 103.75  47.1751  0 i
 103.8  29.0623  0 i
 103.85  23.4679  0 i
 103.9  33.3141  0 i
 103.95  30.6707  0 i
 104  25.3531  0 i
 104.05  28.2121  0 i
 104.1  24.5046  0 i
 104.15  31.6378  0 i
 104.2  21.1961  0 i
 104.25  27.2135  0 i
 104.3  21.3484  0 i
 104.35  39.9322  0 i
 104.4  31.8761  0 i
 104.45  25.0206  0 i
 104.5  26.5122  0 i
 104.55  16.7143  0 i
 104.6  32.1456  0 i
 104.65  30.1101  0 i
 104.7  24.3812  0 i
 104.75  17.4687  0 i
 104.8  30.8319  0 i
 104.85  24.2486  0 i
 104.9  25.3446  0 i
 104.95  41.8019  0 i
 105  47.26  0 i
 105.05  24.3321  0 i
 105.1  22.3823  0 i
 105.15  19.9874  0 i
 105.2  35.6686  0 i
 105.25  37.5644  0 i
 105.3  29.0725  0 i
 105.35  40.135  0 i
 105.4  40.6214  0 i
 105.45  42.9509  0 i
 105.5  29.8354  0 i
 105.55  37.7231  0 i
 105.6  28.5464  0 i
 105.65  25.309  0 i
 105.7  20.9793  0 i
 105.75  27.7922  0 i
 105.8  30.6103  0 i
 105.85  39.0026  0 i
 105.9  21.4788  0 i
 105.95  24.663  0 i
 106  25.6806  0 i
 106.05  31.3754  0 i
 106.1  25.0796  0 i
 106.15  23.2061  0 i
 106.2  40.7293  0 i
 106.25  28.3716  0 i
 106.3  38.0375  0 i
 106.35  24.3357  0 i
 106.4  38.0354  0 i
 106.45  22.8153  0 i
 106.5  27.0842  0 i
 106.55  22.5862  0 i
 106.6  24.2408  0 i
 106.65  24.3665  0 i
 106.7  29.6344  0 i
 106.75  24.4136  0 i
 106.8  26.396  0 i
 106.85  22.99  0 i
 106.9  22.2255  0 i
 106.95  39.5793  0 i
 107  28.1172  0 i
 107.05  21.7678  0 i
 107.1  31.8224  0 i
 107.15  30.1871  0 i
 107.2  26.8  0 i
 107.25  30.3516  0 i
 107.3  35.5978  0 i
 107.35  31.9832  0 i
 107.4  35.4446  0 i
 107.45  31.9147  0 i
 107.5  39.541  0 i
 107.55  32.3006  0 i
 107.6  23.5083  0 i
 107.65  24.0043  0 i
 107.7  30.9735  0 i
 107.75  29.4406  0 i
 107.8  27.5826  0 i
 107.85  25.5866  0 i
 107.9  19.2166  0 i
 107.95  19.7116  0 i
 108  28.8173  0 i
 108.05  30.9659  0 i
 108.1  28.7661  0 i
 108.15  20.1148  0 i
 108.2  33.0448  0 i
 108.25  31.8985  0 i
 108.3  27.5828  0 i
 108.35  28.747  0 i
 108.4  30.5173  0 i
 108.45  27.5212  0 i
 108.5  21.0584  0 i
 108.55  31.6777  0 i
 108.6  28.2596  0 i
 108.65  25.5812  0 i
 108.7  24.1155  0 i
 108.75  27.9848  0 i
 108.8  33.1499  0 i
 108.85  29.2696  0 i
 108.9  33.6907  0 i
 108.95  29.3111  0 i
 109  20.8381  0 i
 109.05  27.0681  0 i
 109.1  22.4286  0 i
 109.15  28.2553  0 i
 109.2  36.3509  0 i
 109.25  31.7069  0 i
 109.3  25.834  0 i
 109.35  36.1536  0 i
 109.4  27.0958  0 i
 109.45  37.3088  0 i
 109.5  35.7049  0 i
 109.55  28.8096  0 i
 109.6  26.7656  0 i
 109.65  24.795  0 i
 109.7  27.5187  0 i
 109.75  26.519  0 i
 109.8  27.1832  0 i
 109.85  30.9253  0 i
 109.9  30.8624  0 i
 109.95  40.7425  0 i
 110  24.9834  0 i
 110.05  26.9308  0 i
 110.1  31.946  0 i
 110.15  19.2454  0 i
 110.2  28.3095  0 i
 110.25  37.8743  0 i
 110.3  26.44  0 i
 110.35  29.8895  0 i
 110.4  24.3115  0 i
 110.45  27.0117  0 i
 110.5  35.0594  0 i
 110.55  23.5163  0 i
 110.6  28.8327  0 i
 110.65  27.543  0 i
 110.7  21.1889  0 i
 110.75  21.6917  0 i
 110.8  29.3321  0 i
 110.85  31.4228  0 i
 110.9  40.5645  0 i
 110.95  29.3978  0 i
 111  34.2019  0 i
 111.05  38.8828  0 i
 111.1  32.5638  0 i
 111.15  27.775  0 i
 111.2  32.7234  0 i
 111.25  27.521  0 i
 111.3  32.544  0 i
 111.35  27.5656  0 i
 111.4  26.5276  0 i
 111.45  19.4603  0 i
 111.5  24.545  0 i
 111.55  32.7891  0 i
 111.6  30.4139  0 i
 111.65  28.7661  0 i
 111.7  30.2886  0 i
 111.75  23.3828  0 i
 111.8  39.1568  0 i
 111.85  27.5618  0 i
 111.9  19.2843  0 i
 111.95  27.1368  0 i
 112  34.8496  0 i
 112.05  34.2439  0 i
 112.1  26.3826  0 i
 112.15  29.8169  0 i
 112.2  30.6762  0 i
 112.25  22.6697  0 i
 112.3  33.6066  0 i
 112.35  30.1488  0 i
 112.4  33.9628  0 i
 112.45  31.6345  0 i
 112.5  24.1749  0 i
 112.55  26.1375  0 i
 112.6  28.5285  0 i
 112.65  25.5314  0 i
 112.7  35.3711  0 i
 112.75  38.3287  0 i
 112.8  42.4174  0 i
 112.85  25.8328  0 i
 112.9  28.9769  0 i
 112.95  31.1136  0 i
 113  25.9778  0 i
 113.05  29.7204  0 i
 113.1  23.536  0 i
 113.15  26.8429  0 i
 113.2  24.0542  0 i
 113.25  34.1092  0 i
 113.3  35.4924  0 i
 113.35  30.321  0 i
 113.4  24.3837  0 i
 113.45  30.1437  0 i
 113.5  34.3172  0 i
 113.55  31.7998  0 i
 113.6  27.2309  0 i
 113.65  28.6749  0 i
 113.7  35.0585  0 i
 113.75  23.3503  0 i
 113.8  36.5353  0 i
 113.85  26.1423  0 i
 113.9  45.9966  0 i
 113.95  27.01  0 i
 114  35.3533  0 i
 114.05  25.1757  0 i
 114.1  34.2794  0 i
 114.15  18.7657  0 i
 114.2  37.3744  0 i
 114.25  31.3847  0 i
 114.3  21.4744  0 i
 114.35  31.2563  0 i
 114.4  34.4112  0 i
 114.45  34.279  0 i
 114.5  29.0002  0 i
 114.55  36.7739  0 i
 114.6  21.8436  0 i
 114.65  31.3195  0 i
 114.7  38.005  0 i
 114.75  27.1134  0 i
 114.8  35.3459  0 i
 114.85  33.811  0 i
 114.9  33.0789  0 i
 114.95  28.7924  0 i
 115  28.7208  0 i
 115.05  31.9903  0 i
 115.1  31.5828  0 i
 115.15  47.2803  0 i
 115.2  32.6076  0 i
 115.25  39.8123  0 i
 115.3  43.8753  0 i
 115.35  30.5868  0 i
 115.4  51.583  0 i
 115.45  38.7725  0 i
 115.5  53.6881  0 i
 115.55  45.7983  0 i
 115.6  49.525  0 i
 115.65  37.1398  0 i
 115.7  62.837  0 i
 115.75  54.3836  0 i
 115.8  54.6573  0 i
 115.85  45.757  0 i
 115.9  73.3778  0 i
 115.95  49.9747  0 i
 116  67.2241  0 i
 116.05  60.2932  0 i
 116.1  70.8192  0 i
 116.15  61.5573  0 i
 116.2  59.0194  0 i
 116.25  39.8239  0 i
 116.3  50.4601  0 i
 116.35  60.577  0 i
 116.4  49.5823  0 i
 116.45  46.0057  0 i
 116.5  48.65  0 i
 116.55  43.4041  0 i
 116.6  39.5382  0 i
 116.65  39.7907  0 i
 116.7  35.3464  0 i
 116.75  29.685  0 i
 116.8  33.4897  0 i
 116.85  28.4576  0 i
 116.9  35.5479  0 i
 116.95  32.8921  0 i
 117  36.3807  0 i
 117.05  24.9011  0 i
 117.1  23.6266  0 i
 117.15  37.3518  0 i
 117.2  36.2812  0 i
 117.25  31.41  0 i
 117.3  29.2326  0 i
 117.35  29.0272  0 i
 117.4  27.3604  0 i
 117.45  38.8756  0 i
 117.5  32.8299  0 i
 117.55  28.7786  0 i
 117.6  30.8845  0 i
 117.65  25.6175  0 i
 117.7  30.9147  0 i
 117.75  34.956  0 i
 117.8  41.0294  0 i
 117.85  33.9712  0 i
 117.9  34.8473  0 i
 117.95  39.3038  0 i
 118  30.9608  0 i
 118.05  25.7414  0 i
 118.1  45.3834  0 i
 118.15  37.2794  0 i
 118.2  39.5849  0 i
 118.25  28.0193  0 i
 118.3  26.5062  0 i
 118.35  26.5964  0 i
 118.4  39.6853  0 i
 118.45  30.6464  0 i
 118.5  30.7968  0 i
 118.55  27.7496  0 i
 118.6  21.1036  0 i
 118.65  37.8859  0 i
 118.7  23.9468  0 i
 118.75  31.1005  0 i
 118.8  32.6595  0 i
 118.85  27.4698  0 i
 118.9  32.8912  0 i
 118.95  26.1458  0 i
 119  29.658  0 i
 119.05  31.3475  0 i
 119.1  28.9874  0 i
 119.15  25.9415  0 i
 119.2  21.7026  0 i
 119.25  30.49  0 i
 119.3  23.0786  0 i
 119.35  27.2593  0 i
 119.4  22.5155  0 i
 119.45  27.6432  0 i
 119.5  28.5978  0 i
 119.55  35.3762  0 i
 119.6  27.9594  0 i
 119.65  33.7289  0 i
 119.7  33.8478  0 i
 119.75  25.7687  0 i
 119.8  25.4911  0 i
 119.85  22.2742  0 i
 119.9  39.7933  0 i
 119.95  32.999  0 i
 120  30.1884  0 i
 120.05  37.766  0 i
 120.1  21.4606  0 i
 120.15  24.7242  0 i
 120.2  31.9061  0 i
 120.25  28.7016  0 i
 120.3  35.768  0 i
 120.35  34.4003  0 i
 120.4  27.1099  0 i
 120.45  29.0092  0 i
 120.5  35.0581  0 i
 120.55  29.139  0 i
 120.6  42.8076  0 i
 120.65  22.6898  0 i
 120.7  29.3984  0 i
 120.75  32.067  0 i
 120.8  34.4497  0 i
 120.85  33.4432  0 i
 120.9  34.0621  0 i
 120.95  23.1108  0 i
 121  37.1381  0 i
 121.05  30.1419  0 i
 121.1  41.2751  0 i
 121.15  29.6901  0 i
 121.2  39.175  0 i
 121.25  47.0231  0 i
 121.3  27.9437  0 i
 121.35  23.6103  0 i
 121.4  22.6807  0 i
 121.45  40.6551  0 i
 121.5  32.8817  0 i
 121.55  27.2516  0 i
 121.6  26.06  0 i
 121.65  30.5408  0 i
 121.7  27.1518  0 i
 121.75  38.0932  0 i
 121.8  36.7441  0 i
 121.85  26.2468  0 i
 121.9  27.3346  0 i
 121.95  31.3422  0 i
 122  27.8875  0 i
 122.05  34.0835  0 i
 122.1  24.0979  0 i
 122.15  26.8836  0 i
 122.2  24.6966  0 i
 122.25  24.3978  0 i
 122.3  28.9314  0 i
 122.35  24.4264  0 i
 122.4  31.1286  0 i
 122.45  34.0013  0 i
 122.5  33.177  0 i
 122.55  34.751  0 i
 122.6  33.8592  0 i
 122.65  22.607  0 i
 122.7  27.1374  0 i
 122.75  14.7435  0 i
 122.8  24.0333  0 i
 122.85  36.8151  0 i
 122.9  37.0123  0 i
 122.95  30.7454  0 i
 123  22.5458  0 i
 123.05  34.4369  0 i
 123.1  27.5274  0 i
 123.15  37.155  0 i
 123.2  31.1323  0 i
 123.25  27.2275  0 i
 123.3  27.0982  0 i
 123.35  24.061  0 i
 123.4  35.1475  0 i
 123.45  34.5771  0 i
 123.5  26.2534  0 i
 123.55  33.657  0 i
 123.6  28.6978  0 i
 123.65  33.0113  0 i
 123.7  21.023  0 i
 123.75  20.6821  0 i
 123.8  25.8079  0 i
 123.85  20.1256  0 i
 123.9  26.9594  0 i
 123.95  32.3372  0 i
 124  29.3606  0 i
 124.05  26.3226  0 i
 124.1  38.3105  0 i
 124.15  30.9073  0 i
 124.2  32.5154  0 i
 124.25  29.7796  0 i
 124.3  28.347  0 i
 124.35  33.5511  0 i
 124.4  33.2563  0 i
 124.45  22.7845  0 i
 124.5  21.9649  0 i
 124.55  26.5638  0 i
 124.6  23.1829  0 i
 124.65  36.0042  0 i
 124.7  23.9173  0 i
 124.75  29.3105  0 i
 124.8  19.3202  0 i
 124.85  30.9933  0 i
 124.9  34.5839  0 i
 124.95  42.2307  0 i
 125  29.7877  0 i
 125.05  30.4654  0 i
 125.1  31.3691  0 i
 125.15  27.0175  0 i
 125.2  27.7883  0 i
 125.25  31.7148  0 i
 125.3  33.3601  0 i
 125.35  28.4553  0 i
 125.4  32.6989  0 i
 125.45  38.2369  0 i
 125.5  21.8364  0 i
 125.55  28.5755  0 i
 125.6  30.9371  0 i
 125.65  29.8047  0 i
 125.7  33.7662  0 i
 125.75  28.434  0 i
 125.8  39.0857  0 i
 125.85  30.9  0 i
 125.9  28.7928  0 i
 125.95  22.2436  0 i
 126  29.1828  0 i
 126.05  36.6524  0 i
 126.1  30.1637  0 i
 126.15  43.7875  0 i
 126.2  41.2272  0 i
 126.25  32.7142  0 i
 126.3  35.038  0 i
 126.35  24.8497  0 i
 126.4  30.3989  0 i
 126.45  33.7499  0 i
 126.5  30.9766  0 i
 126.55  25.6488  0 i
 126.6  19.7951  0 i
 126.65  23.6886  0 i
 126.7  30.4921  0 i
 126.75  21.8865  0 i
 126.8  35.6876  0 i
 126.85  19.5554  0 i
 126.9  27.888  0 i
 126.95  37.2122  0 i
 127  25.3326  0 i
 127.05  29.1828  0 i
 127.1  23.3568  0 i
 127.15  38.2102  0 i
 127.2  29.2873  0 i
 127.25  29.7607  0 i
 127.3  27.1686  0 i
 127.35  30.702  0 i
 127.4  36.2843  0 i
 127.45  26.7754  0 i
 127.5  35.2111  0 i
 127.55  28.2422  0 i
 127.6  28.3986  0 i
 127.65  29.1487  0 i
 127.7  24.2615  0 i
 127.75  32.7333  0 i
 127.8  25.5028  0 i
 127.85  28.1185  0 i
 127.9  26.4908  0 i
 127.95  33.4485  0 i
 128  37.4271  0 i
 128.05  23.1374  0 i
 128.1  39.2891  0 i
 128.15  22.3641  0 i
 128.2  32.6588  0 i
 128.25  29.3541  0 i
 128.3  37.5068  0 i
 128.35  23.9618  0 i
 128.4  23.0138  0 i
 128.45  32.7167  0 i
 128.5  32.7432  0 i
 128.55  34.5116  0 i
 128.6  25.1439  0 i
 128.65  30.8361  0 i
 128.7  33.1641  0 i
 128.75  21.7739  0 i
 128.8  20.0551  0 i
 128.85  29.8  0 i
 128.9  27.824  0 i
 128.95  37.0015  0 i
 129  28.5876  0 i
 129.05  36.264  0 i
 129.1  33.463  0 i
 129.15  31.2826  0 i
 129.2  24.0912  0 i
 129.25  23.5793  0 i
 129.3  25.138  0 i
 129.35  35.962  0 i
 129.4  34.8788  0 i
 129.45  21.3938  0 i
 129.5  28.8312  0 i
 129.55  31.9416  0 i
 129.6  24.7985  0 i
 129.65  24.8135  0 i
 129.7  26.4077  0 i
 129.75  32.2213  0 i
 129.8  34.2723  0 i
 129.85  25.9606  0 i
 129.9  17.4868  0 i
 129.95  33.339  0 i
 130  26.4511  0 i

