40 35.7513 35.3256 0.4257
40.05 27.8124 35.3195 -7.5071
40.1 33.3057 35.3135 -2.0078
40.15 43.604 35.3104 8.2936
40.2 39.6789 35.3072 4.3717
40.25 29.0166 35.3021 -6.2855
40.3 47.0008 35.2969 11.7039
40.35 40.2043 35.2932 4.9111
40.4 48.8365 35.2895 13.547
40.45 37.7487 35.2853 2.4634
40.5 45.11 35.2812 9.8288
40.55 39.733 35.2769 4.4561
40.6 38.8857 35.2726 3.6131
40.65 44.6445 35.2696 9.3749
40.7 37.9716 35.2667 2.7049
40.75 39.786 35.2618 4.5242
40.8 39.8725 35.257 4.6155
40.85 33.9419 35.2553 -1.3134
40.9 34.939 35.2536 -0.3146
40.95 35.7616 35.2484 0.5132
41 37.8212 35.2432 2.578
41.05 28.0221 35.2428 -7.2207
41.1 45.6919 35.2425 10.4494
41.15 33.5047 35.2371 -1.7324
41.2 40.2128 35.2318 4.981
41.25 36.743 35.2328 1.5102
41.3 42.4488 35.2338 7.215
41.35 35.8084 35.2287 0.5797
41.4 24.4025 35.2237 -10.8212
41.45 32.2736 35.2261 -2.9525
41.5 32.7526 35.2285 -2.4759
41.55 32.3617 35.2242 -2.8625
41.6 36.7348 35.2199 1.5149
41.65 29.3242 35.2237 -5.8995
41.7 36.2158 35.2276 0.9882
41.75 25.3882 35.2247 -9.8365
41.8 37.5206 35.2218 2.2988
41.85 42.4013 35.2273 7.174
41.9 37.2089 35.2329 1.976
41.95 42.0264 35.2322 6.7942
42 41.3039 35.2316 6.0723
42.05 43.4 35.2391 8.1609
42.1 32.3544 35.2466 -2.8922
42.15 32.337 35.2493 -2.9123
42.2 30.9037 35.2519 -4.3482
42.25 33.4249 35.2622 -1.8373
42.3 37.7864 35.2725 2.5139
42.35 38.0956 35.2799 2.8157
42.4 45.82 35.2874 10.5326
42.45 49.9409 35.3058 14.6351
42.5 32.4241 35.3158 -2.8917
42.55 34.3285 35.3302 -1.0017
42.6 40.5093 35.3445 5.1648
42.65 40.1913 35.3649 4.8264
42.7 30.2416 35.3852 -5.1436
42.75 36.9278 35.4099 1.5179
42.8 29.978 35.4346 -5.4566
42.85 35.7435 35.465 0.2785
42.9 32.3486 35.4954 -3.1468
42.95 38.7319 35.5362 3.1957
43 28.8372 35.577 -6.7398
43.05 33.1034 35.6251 -2.5217
43.1 32.7966 35.6733 -2.8767
43.15 37.8975 35.7423 2.1552
43.2 38.3961 35.8113 2.5848
43.25 34.8793 35.8994 -1.0201
43.3 41.2576 35.9874 5.2702
43.35 35.4592 36.1564 -0.6972
43.4 32.6799 36.3254 -3.6455
43.45 36.9683 36.603 0.3653
43.5 31.5727 36.8805 -5.3078
43.55 31.2618 37.1574 -5.8956
43.6 39.6785 37.4343 2.2442
43.65 36.5252 37.7718 -1.2466
43.7 41.8051 38.1094 3.6957
43.75 45.521 38.6134 6.9076
43.8 32.4713 39.1175 -6.6462
43.85 39.4062 39.8622 -0.456
43.9 35.4304 40.6068 -5.1764
43.95 41.9707 41.8541 0.1166
44 33.0128 43.1013 -10.0885
44.05 43.1857 44.9727 -1.787
44.1 58.3227 47.5612 10.7615
44.15 49.6885 51.4557 -1.7672
44.2 68.9944 57.1569 11.8375
44.25 82.1281 66.8684 15.2597
44.3 92.7992 84.1481 8.6511
44.35 145.798 119.655 26.143
44.4 195.886 197.676 -1.79
44.45 384.132 365.679 18.453
44.5 671.664 675.379 -3.715
44.55 1029.33 1092.91 -63.58
44.6 1296.64 1387.86 -91.22
44.65 1127.75 1227.13 -99.38
44.7 733.888 705.324 28.564
44.75 341.792 329.616 12.176
44.8 162.704 169.522 -6.818
44.85 106.894 105.448 1.446
44.9 74.0375 76.4748 -2.4373
44.95 60.9656 62.2629 -1.2973
45 38.5067 53.7544 -15.2477
45.05 45.68 49.5842 -3.9042
45.1 43.7203 45.414 -1.6937
45.15 34.9017 43.472 -8.5703
45.2 30.1415 41.53 -11.3885
45.25 37.598 40.447 -2.849
45.3 42.0903 39.3641 2.7262
45.35 49.812 38.6389 11.1731
45.4 48.0788 38.0756 10.0032
45.45 36.9736 37.6368 -0.6632
45.5 30.7851 37.198 -6.4129
45.55 35.4401 36.9079 -1.4678
45.6 38.0777 36.6177 1.46
45.65 39.4954 36.3905 3.1049
45.7 34.9515 36.1632 -1.2117
45.75 29.3189 35.9952 -6.6763
45.8 48.2149 35.8271 12.3878
45.85 31.5273 35.6646 -4.1373
45.9 32.6702 35.5021 -2.8319
45.95 27.9923 35.4037 -7.4114
46 32.8117 35.3052 -2.4935
46.05 34.9856 35.2165 -0.2309
46.1 33.3089 35.1278 -1.8189
46.15 24.9094 35.0635 -10.1541
46.2 56.7959 35.0077 21.7882
46.25 41.2407 34.943 6.2977
46.3 35.3517 34.8816 0.4701
46.35 38.0534 34.8395 3.2139
46.4 26.8436 34.7974 -7.9538
46.45 26.642 34.7492 -8.1072
46.5 32.4524 34.7009 -2.2485
46.55 30.3361 34.6694 -4.3333
46.6 27.6405 34.6379 -6.9974
46.65 39.8099 34.5992 5.2107
46.7 37.9357 34.5604 3.3753
46.75 34.3337 34.5355 -0.2018
46.8 40.174 34.5106 5.6634
46.85 35.1681 34.4783 0.6898
46.9 31.6383 34.446 -2.8077
46.95 31.8841 34.4253 -2.5412
47 30.9062 34.4046 -3.4984
47.05 28.3384 34.377 -6.0386
47.1 40.3644 34.3494 6.015
47.15 40.6099 34.3315 6.2784
47.2 27.8974 34.3135 -6.4161
47.25 32.0591 34.2893 -2.2302
47.3 41.7535 34.2652 7.4883
47.35 33.1747 34.249 -1.0743
47.4 23.1993 34.2329 -11.0336
47.45 26.8902 34.2114 -7.3212
47.5 32.1362 34.1899 -2.0537
47.55 30.161 34.175 -4.014
47.6 30.3247 34.16 -3.8353
47.65 29.6852 34.1406 -4.4554
47.7 36.3329 34.1212 2.2117
47.75 29.6536 34.107 -4.4534
47.8 34.6283 34.0929 0.5354
47.85 29.809 34.0751 -4.2661
47.9 26.8299 34.0574 -7.2275
47.95 34.2372 34.0437 0.1935
48 37.2592 34.0301 3.2291
48.05 27.1022 34.0137 -6.9115
48.1 28.6279 33.9974 -5.3695
48.15 36.4289 33.984 2.4449
48.2 31.1261 33.9706 -2.8445
48.25 30.542 33.9554 -3.4134
48.3 42.3912 33.9403 8.4509
48.35 25.0275 33.927 -8.8995
48.4 33.2329 33.9138 -0.6809
48.45 25.8128 33.8996 -8.0868
48.5 30.8788 33.8854 -3.0066
48.55 26.5751 33.8722 -7.2971
48.6 33.7954 33.8591 -0.0637
48.65 31.1263 33.8457 -2.7194
48.7 31.1952 33.8323 -2.6371
48.75 41.5056 33.8192 7.6864
48.8 31.5156 33.8061 -2.2905
48.85 28.8639 33.7933 -4.9294
48.9 32.5916 33.7805 -1.1889
48.95 29.1725 33.7674 -4.5949
49 32.4013 33.7543 -1.353
49.05 47.7006 33.7422 13.9584
49.1 33.9135 33.73 0.1835
49.15 37.0792 33.7168 3.3624
49.2 33.1603 33.7037 -0.5434
49.25 27.6216 33.6942 -6.0726
49.3 35.9273 33.6847 2.2426
49.35 39.9487 33.6715 6.2772
49.4 42.3413 33.6584 8.6829
49.45 42.3284 33.6446 8.6838
49.5 21.3045 33.6357 -12.3312
49.55 30.835 33.6226 -2.7876
49.6 30.7486 33.6094 -2.8608
49.65 26.193 33.5984 -7.4054
49.7 35.4175 33.5874 1.8301
49.75 38.847 33.5742 5.2728
49.8 26.7643 33.561 -6.7967
49.85 37.6654 33.5503 4.1151
49.9 31.0963 33.5395 -2.4432
49.95 31.2172 33.5263 -2.3091
50 35.8137 33.5131 2.3006
50.05 30.6031 33.5026 -2.8995
50.1 38.1013 33.4921 4.6092
50.15 34.8311 33.4789 1.3522
50.2 26.0939 33.4656 -7.3717
50.25 34.1449 33.4553 0.6896
50.3 39.4498 33.445 6.0048
50.35 33.679 33.4317 0.2473
50.4 52.9223 33.4185 19.5038
50.45 28.6434 33.4083 -4.7649
50.5 31.9059 33.3981 -1.4922
50.55 30.0668 33.3849 -3.3181
50.6 25.8589 33.3716 -7.5127
50.65 22.7012 33.3616 -10.6604
50.7 29.6551 33.3515 -3.6964
50.75 32.697 33.3383 -0.6413
50.8 34.9488 33.325 1.6238
50.85 39.0847 33.3151 5.7696
50.9 24.8127 33.3051 -8.4924
50.95 41.8669 33.2931 8.5738
51 20.653 33.2787 -12.6257
51.05 26.8232 33.2688 -6.4456
51.1 28.228 33.2589 -5.0309
51.15 35.2963 33.2457 2.0506
51.2 33.4654 33.2324 0.233
51.25 30.3096 33.2226 -2.913
51.3 31.0741 33.2128 -2.1387
51.35 36.5384 33.1996 3.3388
51.4 27.1092 33.1864 -6.0772
51.45 28.1092 33.1766 -5.0674
51.5 39.9288 33.1668 6.762
51.55 39.8125 33.1536 6.6589
51.6 32.0827 33.1405 -1.0578
51.65 29.9113 33.1307 -3.2194
51.7 37.7805 33.1209 4.6596
51.75 35.0768 33.1078 1.969
51.8 33.2024 33.0946 0.1078
51.85 31.3326 33.0849 -1.7523
51.9 30.9546 33.0752 -2.1206
51.95 32.5172 33.062 -0.5448
52 34.3183 33.0489 1.2694
52.05 38.1175 33.0392 5.0783
52.1 24.1692 33.0295 -8.8603
52.15 31.9594 33.0164 -1.057
52.2 14.9076 33.0033 -18.0957
52.25 31.3282 32.9936 -1.6654
52.3 26.4091 32.9838 -6.5747
52.35 30.2476 32.9708 -2.7232
52.4 30.834 32.9578 -2.1238
52.45 30.9634 32.948 -1.9846
52.5 41.2778 32.9383 8.3395
52.55 26.7338 32.9253 -6.1915
52.6 35.2165 32.9123 2.3042
52.65 31.0891 32.9026 -1.8135
52.7 32.1526 32.8928 -0.7402
52.75 30.3683 32.8799 -2.5116
52.8 30.8225 32.8669 -2.0444
52.85 42.2785 32.8572 9.4213
52.9 28.3489 32.8474 -4.4985
52.95 41.2484 32.8345 8.4139
53 33.9183 32.8216 1.0967
53.05 30.3135 32.8118 -2.4983
53.1 37.2271 32.8021 4.425
53.15 31.7736 32.7892 -1.0156
53.2 27.4638 32.7763 -5.3125
53.25 34.0459 32.7666 1.2793
53.3 35.7707 32.7568 3.0139
53.35 25.9088 32.744 -6.8352
53.4 24.5552 32.7311 -8.1759
53.45 38.9919 32.7213 6.2706
53.5 32.8547 32.7116 0.1431
53.55 28.174 32.6988 -4.5248
53.6 32.181 32.686 -0.505
53.65 28.938 32.6762 -3.7382
53.7 38.2635 32.6664 5.5971
53.75 35.2006 32.6537 2.5469
53.8 32.1217 32.6409 -0.5192
53.85 32.3515 32.6312 -0.2797
53.9 28.8942 32.6214 -3.7272
53.95 32.4603 32.6087 -0.1484
54 28.8415 32.5959 -3.7544
54.05 27.0827 32.5862 -5.5035
54.1 25.0138 32.5764 -7.5626
54.15 30.5457 32.5637 -2.018
54.2 33.3785 32.551 0.8275
54.25 31.3304 32.5412 -1.2108
54.3 32.7687 32.5314 0.2373
54.35 24.9539 32.5188 -7.5649
54.4 37.2173 32.5062 4.7111
54.45 40.1425 32.4964 7.6461
54.5 30.2349 32.4866 -2.2517
54.55 30.5061 32.474 -1.9679
54.6 39.6575 32.4615 7.196
54.65 30.0118 32.4517 -2.4399
54.7 27.0099 32.4418 -5.4319
54.75 40.8148 32.4293 8.3855
54.8 29.2384 32.4169 -3.1785
54.85 29.7901 32.407 -2.6169
54.9 35.5928 32.3972 3.1956
54.95 39.0015 32.3847 6.6168
55 36.6172 32.3723 4.2449
55.05 32.2139 32.3624 -0.1485
55.1 32.0769 32.3526 -0.2757
55.15 24.8464 32.3402 -7.4938
55.2 33.7918 32.3279 1.4639
55.25 27.9587 32.318 -4.3593
55.3 31.6822 32.3081 -0.6259
55.35 26.0164 32.2958 -6.2794
55.4 36.7375 32.2836 4.4539
55.45 26.8933 32.2736 -5.3803
55.5 31.3372 32.2637 -0.9265
55.55 26.9693 32.2515 -5.2822
55.6 29.7985 32.2394 -2.4409
55.65 38.8932 32.2294 6.6638
55.7 39.7432 32.2194 7.5238
55.75 41.0438 32.2074 8.8364
55.8 33.9668 32.1953 1.7715
55.85 32.3765 32.1853 0.1912
55.9 37.3069 32.1753 5.1316
55.95 38.5272 32.1633 6.3639
56 26.3266 32.1513 -5.8247
56.05 42.5789 32.1413 10.4376
56.1 30.6293 32.1312 -1.5019
56.15 44.5172 32.1194 12.3978
56.2 27.4684 32.1076 -4.6392
56.25 29.9458 32.0974 -2.1516
56.3 30.8451 32.0873 -1.2422
56.35 26.6108 32.0756 -5.4648
56.4 25.9593 32.0639 -6.1046
56.45 37.712 32.0537 5.6583
56.5 23.8558 32.0435 -8.1877
56.55 36.0814 32.032 4.0494
56.6 26.9164 32.0204 -5.104
56.65 33.2366 32.0102 1.2264
56.7 35.7735 31.9999 3.7736
56.75 29.7467 31.9885 -2.2418
56.8 29.0501 31.9771 -2.927
56.85 35.1989 31.9668 3.2321
56.9 30.8904 31.9564 -1.066
56.95 38.1222 31.9452 6.177
57 34.4175 31.934 2.4835
57.05 31.8791 31.9236 -0.0445
57.1 27.8594 31.9131 -4.0537
57.15 23.6243 31.9021 -8.2778
57.2 37.6394 31.8911 5.7483
57.25 28.8851 31.8806 -2.9955
57.3 30.8474 31.87 -1.0226
57.35 31.7365 31.8592 -0.1227
57.4 34.1827 31.8484 2.3343
57.45 27.6401 31.8377 -4.1976
57.5 34.383 31.8271 2.5559
57.55 37.6876 31.8165 5.8711
57.6 28.4172 31.8059 -3.3887
57.65 27.0055 31.7951 -4.7896
57.7 36.9548 31.7843 5.1705
57.75 32.324 31.7739 0.5501
57.8 41.5495 31.7636 9.7859
57.85 25.8451 31.7527 -5.9076
57.9 25.3139 31.7418 -6.4279
57.95 32.312 31.7317 0.5803
58 32.8586 31.7215 1.1371
58.05 33.0643 31.7105 1.3538
58.1 26.064 31.6995 -5.6355
58.15 22.9023 31.6896 -8.7873
58.2 33.5287 31.6797 1.849
58.25 31.5388 31.6686 -0.1298
58.3 23.654 31.6575 -8.0035
58.35 36.8512 31.6478 5.2034
58.4 26.7129 31.6381 -4.9252
58.45 25.1529 31.6269 -6.474
58.5 39.3168 31.6157 7.7011
58.55 28.3056 31.6063 -3.3007
58.6 29.4649 31.5968 -2.1319
58.65 30.0441 31.5855 -1.5414
58.7 30.8874 31.5743 -0.6869
58.75 30.071 31.565 -1.494
58.8 20.9554 31.5557 -10.6003
58.85 23.5247 31.5444 -8.0197
58.9 23.6052 31.5331 -7.9279
58.95 32.4062 31.5241 0.8821
59 23.5666 31.515 -7.9484
59.05 36.0488 31.5037 4.5451
59.1 21.8841 31.4923 -9.6082
59.15 39.3927 31.4834 7.9093
59.2 22.5506 31.4746 -8.924
59.25 28.3344 31.4632 -3.1288
59.3 33.953 31.4519 2.5011
59.35 28.0074 31.4432 -3.4358
59.4 49.9019 31.4344 18.4675
59.45 26.2561 31.4231 -5.167
59.5 21.7721 31.4119 -9.6398
59.55 34.8459 31.4033 3.4426
59.6 20.9195 31.3947 -10.4752
59.65 21.149 31.3835 -10.2345
59.7 32.2364 31.3724 0.864
59.75 21.6358 31.3638 -9.728
59.8 30.0564 31.3553 -1.2989
59.85 26.3289 31.3443 -5.0154
59.9 26.0153 31.3333 -5.318
59.95 21.7891 31.3142 -9.5251
60 39.4171 31.2951 8.122
60.05 35.8491 31.2855 4.5636
60.1 31.0056 31.2758 -0.2702
60.15 35.0116 31.2663 3.7453
60.2 33.2971 31.2567 2.0404
60.25 30.3303 31.2472 -0.9169
60.3 26.2863 31.2377 -4.9514
60.35 35.0762 31.2283 3.8479
60.4 36.8164 31.2188 5.5976
60.45 20.8321 31.2095 -10.3774
60.5 27.257 31.2002 -3.9432
60.55 34.5821 31.1909 3.3912
60.6 24.6815 31.1816 -6.5001
60.65 25.7916 31.1725 -5.3809
60.7 32.0896 31.1634 0.9262
60.75 22.3185 31.1542 -8.8357
60.8 29.6256 31.1451 -1.5195
60.85 40.6115 31.1362 9.4753
60.9 34.9611 31.1273 3.8338
60.95 36.1427 31.1184 5.0243
61 29.9413 31.1095 -1.1682
61.05 30.2179 31.1008 -0.8829
61.1 36.1775 31.0921 5.0854
61.15 20.8506 31.0834 -10.2328
61.2 30.7426 31.0748 -0.3322
61.25 37.6203 31.0664 6.5539
61.3 31.0834 31.058 0.0254
61.35 30.1803 31.0496 -0.8693
61.4 26.3021 31.0412 -4.7391
61.45 35.2643 31.0332 4.2311
61.5 39.1231 31.0252 8.0979
61.55 32.3637 31.0171 1.3466
61.6 24.2289 31.0091 -6.7802
61.65 29.747 31.0015 -1.2545
61.7 33.2635 30.9939 2.2696
61.75 38.9357 30.9863 7.9494
61.8 35.0353 30.9788 4.0565
61.85 20.6225 30.9717 -10.3492
61.9 34.5546 30.9646 3.59
61.95 26.2416 30.9576 -4.716
62 25.4 30.9507 -5.5507
62.05 32.46 30.9442 1.5158
62.1 25.4868 30.9378 -5.451
62.15 29.5012 30.9316 -1.4304
62.2 31.8108 30.9255 0.8853
62.25 30.4076 30.9199 -0.5123
62.3 33.3116 30.9144 2.3972
62.35 31.5653 30.9093 0.656
62.4 37.6418 30.9042 6.7376
62.45 29.0334 30.8999 -1.8665
62.5 29.8384 30.8956 -1.0572
62.55 31.9846 30.8921 1.0925
62.6 22.4879 30.8885 -8.4006
62.65 31.924 30.8859 1.0381
62.7 30.302 30.8834 -0.5814
62.75 27.4764 30.8821 -3.4057
62.8 32.6766 30.8807 1.7959
62.85 39.0642 30.8809 8.1833
62.9 27.4699 30.881 -3.4111
62.95 39.5411 30.8831 8.658
63 33.4402 30.8852 2.555
63.05 34.6703 30.8897 3.7806
63.1 25.1677 30.8942 -5.7265
63.15 26.1824 30.9022 -4.7198
63.2 31.685 30.9101 0.7749
63.25 27.209 30.9226 -3.7136
63.3 35.7416 30.9351 4.8065
63.35 24.9382 30.955 -6.0168
63.4 32.5497 30.975 1.5747
63.45 33.7823 31.0067 2.7756
63.5 30.7997 31.0384 -0.2387
63.55 35.7514 31.0909 4.6605
63.6 29.573 31.1433 -1.5703
63.65 28.6674 31.2232 -2.5558
63.7 25.0406 31.303 -6.2624
63.75 26.2163 31.4102 -5.1939
63.8 26.6402 31.5173 -4.8771
63.85 23.129 31.6563 -8.5273
63.9 22.1917 31.7952 -9.6035
63.95 36.1319 31.993 4.1389
64 29.6122 32.1909 -2.5787
64.05 30.0266 32.4971 -2.4705
64.1 35.2628 32.8033 2.4595
64.15 26.3847 33.3175 -6.9328
64.2 27.3255 33.8316 -6.5061
64.25 31.7609 34.7715 -3.0106
64.3 39.9187 35.7115 4.2072
64.35 34.124 37.6121 -3.4881
64.4 41.3012 39.5127 1.7885
64.45 38.8297 42.8741 -4.0444
64.5 53.3835 47.9818 5.4017
64.55 59.7337 55.8115 3.9222
64.6 86.9432 67.7203 19.2229
64.65 85.298 85.3299 -0.0319
64.7 115.518 109.459 6.059
64.75 153.365 139.352 14.013
64.8 140.5 170.301 -29.801
64.85 172.945 193.901 -20.956
64.9 202.576 201.393 1.183
64.95 192.928 189.333 3.595
65 152.013 162.52 -10.507
65.05 120.426 130.358 -9.932
65.1 105.391 101.013 4.378
65.15 71.8336 78.4691 -6.6355
65.2 57.7928 62.4637 -4.6709
65.25 61.6551 52.1668 9.4883
65.3 42.8541 45.1715 -2.3174
65.35 33.1069 41.5402 -8.4333
65.4 34.8873 37.909 -3.0217
65.45 31.7185 36.2856 -4.5671
65.5 33.6885 34.6621 -0.9736
65.55 41.4134 33.8561 7.5573
65.6 40.1252 33.05 7.0752
65.65 29.6639 32.6049 -2.941
65.7 28.2186 32.1597 -3.9411
65.75 30.7077 31.8908 -1.1831
65.8 36.8256 31.6219 5.2037
65.85 38.1372 31.445 6.6922
65.9 28.3354 31.2681 -2.9327
65.95 29.6052 31.1424 -1.5372
66 41.2195 31.0168 10.2027
66.05 31.1085 30.9198 0.1887
66.1 31.3383 30.8229 0.5154
66.15 21.679 30.7485 -9.0695
66.2 34.3138 30.6741 3.6397
66.25 24.8319 30.6184 -5.7865
66.3 20.704 30.5628 -9.8588
66.35 31.594 30.5214 1.0726
66.4 47.4917 30.48 17.0117
66.45 29.663 30.4471 -0.7841
66.5 41.3971 30.4142 10.9829
66.55 33.4343 30.3873 3.047
66.6 22.3277 30.3604 -8.0327
66.65 42.9936 30.3367 12.6569
66.7 34.2689 30.3144 3.9545
66.75 39.7931 30.2945 9.4986
66.8 33.5971 30.2747 3.3224
66.85 38.897 30.257 8.64
66.9 30.5015 30.2394 0.2621
66.95 34.9516 30.2236 4.728
67 33.7762 30.2077 3.5685
67.05 34.4401 30.1934 4.2467
67.1 33.3125 30.1791 3.1334
67.15 40.5114 30.1658 10.3456
67.2 29.6025 30.1525 -0.55
67.25 28.874 30.1404 -1.2664
67.3 23.9591 30.1283 -6.1692
67.35 28.2035 30.1168 -1.9133
67.4 31.6863 30.1052 1.5811
67.45 39.5832 30.0946 9.4886
67.5 35.7262 30.084 5.6422
67.55 29.6174 30.0737 -0.4563
67.6 20.1669 30.0634 -9.8965
67.65 31.0503 30.0539 0.9964
67.7 39.0318 30.0444 8.9874
67.75 44.3349 30.035 14.2999
67.8 29.4721 30.0257 -0.5536
67.85 38.1786 30.017 8.1616
67.9 39.7186 30.0083 9.7103
67.95 30.7108 29.9997 0.7111
68 36.9792 29.9911 6.9881
68.05 28.4284 29.983 -1.5546
68.1 31.3315 29.9749 1.3566
68.15 32.661 29.9669 2.6941
68.2 25.5896 29.9589 -4.3693
68.25 30.2593 29.9513 0.308
68.3 31.7688 29.9437 1.8251
68.35 22.6064 29.9362 -7.3298
68.4 21.0183 29.9288 -8.9105
68.45 27.6115 29.9215 -2.31
68.5 31.1249 29.9143 1.2106
68.55 36.6847 29.9073 6.7774
68.6 29.6738 29.9003 -0.2265
68.65 30.7252 29.8934 0.8318
68.7 28.9883 29.8864 -0.8981
68.75 28.4575 29.8798 -1.4223
68.8 26.0603 29.8732 -3.8129
68.85 29.247 29.8666 -0.6196
68.9 42.8133 29.86 12.9533
68.95 30.1978 29.8537 0.3441
69 21.4788 29.8475 -8.3687
69.05 29.6737 29.8411 -0.1674
69.1 30.3992 29.8348 0.5644
69.15 29.0153 29.8288 -0.8135
69.2 28.1641 29.8228 -1.6587
69.25 26.0047 29.8167 -3.812
69.3 29.4569 29.8107 -0.3538
69.35 27.5069 29.8049 -2.298
69.4 31.502 29.7992 1.7028
69.45 20.088 29.7934 -9.7054
69.5 28.2258 29.7876 -1.5618
69.55 25.6754 29.7821 -4.1067
69.6 38.5221 29.7765 8.7456
69.65 35.6819 29.771 5.9109
69.7 21.3928 29.7655 -8.3727
69.75 22.3103 29.7602 -7.4499
69.8 22.3937 29.7548 -7.3611
69.85 34.3311 29.7496 4.5815
69.9 26.985 29.7443 -2.7593
69.95 25.5893 29.7391 -4.1498
70 19.6229 29.7339 -10.111
70.05 35.7085 29.729 5.9795
70.1 24.8075 29.724 -4.9165
70.15 31.4424 29.719 1.7234
70.2 27.4019 29.714 -2.3121
70.25 36.2483 29.7092 6.5391
70.3 29.5109 29.7045 -0.1936
70.35 24.0459 29.6997 -5.6538
70.4 21.0488 29.6948 -8.646
70.45 37.8123 29.6903 8.122
70.5 37.3351 29.6858 7.6493
70.55 24.4884 29.6812 -5.1928
70.6 42.1743 29.6766 12.4977
70.65 35.4281 29.6722 5.7559
70.7 18.672 29.6678 -10.9958
70.75 19.8216 29.6635 -9.8419
70.8 25.9222 29.6591 -3.7369
70.85 34.4737 29.6549 4.8188
70.9 30.1948 29.6507 0.5441
70.95 22.4865 29.6466 -7.1601
71 37.199 29.6424 7.5566
71.05 25.1277 29.6384 -4.5107
71.1 24.8409 29.6343 -4.7934
71.15 37.9055 29.6304 8.2751
71.2 27.8209 29.6265 -1.8056
71.25 24.549 29.6226 -5.0736
71.3 31.7864 29.6187 2.1677
71.35 23.5279 29.615 -6.0871
71.4 22.7875 29.6114 -6.8239
71.45 38.4347 29.6076 8.8271
71.5 23.6305 29.6039 -5.9734
71.55 28.6916 29.6004 -0.9088
71.6 41.5033 29.597 11.9063
71.65 33.1882 29.5935 3.5947
71.7 29.2291 29.5899 -0.3608
71.75 31.9454 29.5866 2.3588
71.8 26.1397 29.5833 -3.4436
71.85 29.7498 29.58 0.1698
71.9 36.2833 29.5767 6.7066
71.95 31.1674 29.5736 1.5938
72 30.6196 29.5704 1.0492
72.05 24.542 29.5674 -5.0254
72.1 22.4718 29.5643 -7.0925
72.15 30.6308 29.5613 1.0695
72.2 33.7547 29.5583 4.1964
72.25 32.6359 29.5555 3.0804
72.3 30.2798 29.5527 0.7271
72.35 30.1689 29.5498 0.6191
72.4 27.8917 29.5469 -1.6552
72.45 29.9075 29.5444 0.3631
72.5 30.5877 29.5418 1.0459
72.55 28.4425 29.5391 -1.0966
72.6 26.9036 29.5364 -2.6328
72.65 21.4155 29.534 -8.1185
72.7 30.5353 29.5316 1.0037
72.75 24.1507 29.5292 -5.3785
72.8 23.5087 29.5267 -6.018
72.85 36.9897 29.5245 7.4652
72.9 35.5267 29.5222 6.0045
72.95 24.1694 29.52 -5.3506
73 33.5215 29.5178 4.0037
73.05 26.974 29.5157 -2.5417
73.1 20.79 29.5136 -8.7236
73.15 39.217 29.5117 9.7053
73.2 18.363 29.5098 -11.1468
73.25 29.4406 29.508 -0.0674
73.3 31.3509 29.5062 1.8447
73.35 33.2161 29.5047 3.7114
73.4 40.6567 29.5032 11.1535
73.45 45.0463 29.5017 15.5446
73.5 24.749 29.5003 -4.7513
73.55 28.8994 29.4992 -0.5998
73.6 26.9629 29.4981 -2.5352
73.65 20.657 29.4969 -8.8399
73.7 23.4077 29.4958 -6.0881
73.75 23.7433 29.4951 -5.7518
73.8 28.314 29.4943 -1.1803
73.85 43.8754 29.4936 14.3818
73.9 18.3241 29.4928 -11.1687
73.95 36.8931 29.4924 7.4007
74 27.8348 29.4919 -1.6571
74.05 26.5733 29.4916 -2.9183
74.1 26.8319 29.4913 -2.6594
74.15 25.7566 29.4911 -3.7345
74.2 17.145 29.4909 -12.3459
74.25 35.1148 29.491 5.6238
74.3 24.6456 29.4911 -4.8455
74.35 37.8426 29.4912 8.3514
74.4 32.8779 29.4913 3.3866
74.45 32.3832 29.4917 2.8915
74.5 22.6557 29.4922 -6.8365
74.55 21.1454 29.4926 -8.3472
74.6 25.6752 29.493 -3.8178
74.65 25.0611 29.4938 -4.4327
74.7 30.7618 29.4946 1.2672
74.75 32.7171 29.4953 3.2218
74.8 36.1734 29.496 6.6774
74.85 38.971 29.4971 9.4739
74.9 28.8931 29.4981 -0.605
74.95 22.8074 29.4993 -6.6919
75 34.1997 29.5004 4.6993
75.05 24.4123 29.5017 -5.0894
75.1 29.6884 29.5029 0.1855
75.15 37.5334 29.5045 8.0289
75.2 33.0236 29.506 3.5176
75.25 39.282 29.5075 9.7745
75.3 22.7225 29.509 -6.7865
75.35 36.0635 29.5109 6.5526
75.4 27.5428 29.5127 -1.9699
75.45 39.0751 29.5145 9.5606
75.5 36.5654 29.5163 7.0491
75.55 35.9157 29.5184 6.3973
75.6 29.6682 29.5206 0.1476
75.65 23.5313 29.5227 -5.9914
75.7 22.3487 29.5248 -7.1761
75.75 26.8522 29.5272 -2.675
75.8 40.586 29.5296 11.0564
75.85 34.9622 29.532 5.4302
75.9 24.131 29.5345 -5.4035
75.95 29.9982 29.5371 0.4611
76 22.3329 29.5397 -7.2068
76.05 34.2174 29.5425 4.6749
76.1 29.5554 29.5453 0.0101
76.15 27.1554 29.5481 -2.3927
76.2 31.8356 29.5509 2.2847
76.25 31.5729 29.554 2.0189
76.3 27.7778 29.5572 -1.7794
76.35 20.296 29.5602 -9.2642
76.4 30.3608 29.5632 0.7976
76.45 24.4446 29.5666 -5.122
76.5 26.2308 29.5701 -3.3393
76.55 31.5716 29.5734 1.9982
76.6 42.4408 29.5767 12.8641
76.65 21.6585 29.5803 -7.9218
76.7 35.4218 29.5839 5.8379
76.75 20.9355 29.5876 -8.6521
76.8 28.4623 29.5913 -1.129
76.85 29.3846 29.5951 -0.2105
76.9 25.5126 29.5988 -4.0862
76.95 19.0907 29.6029 -10.5122
77 32.8176 29.6069 3.2107
77.05 37.1412 29.6109 7.5303
77.1 24.5723 29.6148 -5.0425
77.15 23.7305 29.6191 -5.8886
77.2 25.323 29.6235 -4.3005
77.25 22.021 29.6277 -7.6067
77.3 22.5742 29.6319 -7.0577
77.35 33.0678 29.6364 3.4314
77.4 40.0624 29.641 10.4214
77.45 43.2275 29.6456 13.5819
77.5 29.5215 29.6501 -0.1286
77.55 18.8333 29.6547 -10.8214
77.6 23.8352 29.6594 -5.8242
77.65 26.9583 29.6644 -2.7061
77.7 30.5306 29.6693 0.8613
77.75 33.5778 29.6741 3.9037
77.8 30.1371 29.6789 0.4582
77.85 27.2908 29.6842 -2.3934
77.9 23.8775 29.6895 -5.812
77.95 27.3337 29.6945 -2.3608
78 33.5457 29.6995 3.8462
78.05 27.3906 29.7051 -2.3145
78.1 31.1364 29.7106 1.4258
78.15 31.8519 29.716 2.1359
78.2 25.9059 29.7214 -3.8155
78.25 28.6971 29.727 -1.0299
78.3 27.398 29.7327 -2.3347
78.35 29.4587 29.7385 -0.2798
78.4 25.1465 29.7444 -4.5979
78.45 35.9635 29.7502 6.2133
78.5 35.417 29.756 5.661
78.55 25.3494 29.7622 -4.4128
78.6 29.9619 29.7685 0.1934
78.65 24.0065 29.7745 -5.768
78.7 21.4521 29.7805 -8.3284
78.75 27.4424 29.7872 -2.3448
78.8 34.223 29.7938 4.4292
78.85 31.334 29.8002 1.5338
78.9 23.7581 29.8067 -6.0486
78.95 31.5803 29.8135 1.7668
79 23.5001 29.8204 -6.3203
79.05 37.7203 29.8274 7.8929
79.1 26.6516 29.8344 -3.1828
79.15 34.0173 29.8416 4.1757
79.2 23.8466 29.8487 -6.0021
79.25 29.1274 29.8564 -0.729
79.3 31.6022 29.864 1.7382
79.35 26.0335 29.8716 -3.8381
79.4 33.4471 29.8791 3.568
79.45 25.3779 29.888 -4.5101
79.5 34.5618 29.8969 4.6649
79.55 27.273 29.9051 -2.6321
79.6 22.4624 29.9133 -7.4509
79.65 31.2974 29.9223 1.3751
79.7 30.3612 29.9313 0.4299
79.75 26.309 29.9406 -3.6316
79.8 28.2208 29.95 -1.7292
79.85 15.1065 29.9597 -14.8532
79.9 27.0086 29.9695 -2.9609
79.95 29.7142 29.9803 -0.2661
80 26.5768 29.9912 -3.4144
80.05 25.4044 30.0022 -4.5978
80.1 27.7714 30.0133 -2.2419
80.15 32.6968 30.026 2.6708
80.2 29.6922 30.0388 -0.3466
80.25 22.3528 30.0522 -7.6994
80.3 37.1451 30.0657 7.0794
80.35 24.4557 30.0812 -5.6255
80.4 33.6397 30.0967 3.543
80.45 30.134 30.1143 0.0197
80.5 26.3717 30.1319 -3.7602
80.55 34.9917 30.1524 4.8393
80.6 26.1865 30.1729 -3.9864
80.65 19.4033 30.1988 -10.7955
80.7 29.1374 30.2247 -1.0873
80.75 35.0041 30.2579 4.7462
80.8 26.566 30.2911 -3.7251
80.85 30.4383 30.3398 0.0985
80.9 21.5156 30.3886 -8.873
80.95 36.0647 30.4558 5.6089
81 36.8213 30.523 6.2983
81.05 38.587 30.6064 7.9806
81.1 33.4695 30.6898 2.7797
81.15 24.3195 30.7946 -6.4751
81.2 29.8197 30.8994 -1.0797
81.25 25.3604 31.0453 -5.6849
81.3 29.2934 31.1913 -1.8979
81.35 29.7221 31.4172 -1.6951
81.4 30.1811 31.6432 -1.4621
81.45 29.4859 32.0207 -2.5348
81.5 23.1939 32.3981 -9.2042
81.55 26.5662 33.1021 -6.5359
81.6 33.5122 33.8061 -0.2939
81.65 33.5899 35.2792 -1.6893
81.7 39.4048 36.7524 2.6524
81.75 36.3479 40.2179 -3.87
81.8 44.2479 43.6834 0.5645
81.85 45.3231 50.5806 -5.2575
81.9 61.6348 60.7954 0.8394
81.95 66.3684 76.323 -9.9546
82 101.885 96.7442 5.1408
82.05 120.429 119.412 1.017
82.1 136.498 137.257 -0.759
82.15 129.37 142.204 -12.834
82.2 116.579 131.64 -15.061
82.25 101.161 110.541 -9.38
82.3 98.5084 87.5879 10.9205
82.35 83.6568 68.6588 14.998
82.4 49.5487 55.3116 -5.7629
82.45 40.9399 46.6468 -5.7069
82.5 44.7177 41.2093 3.5084
82.55 37.4146 38.4284 -1.0138
82.6 37.5848 35.6476 1.9372
82.65 38.316 34.4705 3.8455
82.7 31.0318 33.2934 -2.2616
82.75 36.1296 32.7338 3.3958
82.8 31.334 32.1741 -0.8401
82.85 30.5714 31.8782 -1.3068
82.9 29.1972 31.5823 -2.3851
82.95 33.3501 31.4097 1.9404
83 25.6083 31.237 -5.6287
83.05 24.2522 31.1304 -6.8782
83.1 26.9648 31.0237 -4.0589
83.15 37.1545 30.9515 6.203
83.2 31.5147 30.8793 0.6354
83.25 23.609 30.8265 -7.2175
83.3 39.1568 30.7738 8.383
83.35 37.4391 30.7349 6.7042
83.4 27.5873 30.6961 -3.1088
83.45 32.844 30.6698 2.1742
83.5 27.2836 30.6436 -3.36
83.55 33.5801 30.628 2.9521
83.6 28.0506 30.6125 -2.5619
83.65 31.9124 30.6022 1.3102
83.7 35.8457 30.5919 5.2538
83.75 27.1694 30.5859 -3.4165
83.8 35.6738 30.5799 5.0939
83.85 24.6263 30.5764 -5.9501
83.9 33.9874 30.573 3.4144
83.95 24.1252 30.5712 -6.446
84 27.9692 30.5693 -2.6001
84.05 31.2566 30.5696 0.687
84.1 42.1753 30.5698 11.6055
84.15 36.5322 30.5705 5.9617
84.2 33.9495 30.5711 3.3784
84.25 28.0954 30.5732 -2.4778
84.3 43.7675 30.5753 13.1922
84.35 23.8535 30.5779 -6.7244
84.4 32.5239 30.5804 1.9435
84.45 30.9639 30.5834 0.3805
84.5 36.9205 30.5865 6.334
84.55 40.1491 30.5903 9.5588
84.6 23.3259 30.5941 -7.2682
84.65 34.9483 30.5978 4.3505
84.7 33.3065 30.6015 2.705
84.75 41.4072 30.6061 10.8011
84.8 24.7546 30.6106 -5.856
84.85 35.7823 30.615 5.1673
84.9 34.4979 30.6194 3.8785
84.95 21.4283 30.6241 -9.1958
85 29.9722 30.6289 -0.6567
85.05 27.6387 30.6339 -2.9952
85.1 38.948 30.6389 8.3091
85.15 29.5517 30.6438 -1.0921
85.2 37.0176 30.6486 6.369
85.25 23.1476 30.654 -7.5064
85.3 25.9555 30.6594 -4.7039
85.35 25.7748 30.6645 -4.8897
85.4 26.3186 30.6695 -4.3509
85.45 19.5986 30.6749 -11.0763
85.5 34.6609 30.6803 3.9806
85.55 35.5974 30.6857 4.9117
85.6 22.6048 30.6911 -8.0863
85.65 29.9333 30.6964 -0.7631
85.7 38.3327 30.7017 7.631
85.75 32.1503 30.7073 1.443
85.8 30.9165 30.7129 0.2036
85.85 33.3401 30.7182 2.6219
85.9 28.255 30.7235 -2.4685
85.95 35.4707 30.729 4.7417
86 22.4758 30.7346 -8.2588
86.05 26.4006 30.7401 -4.3395
86.1 32.8515 30.7455 2.106
86.15 19.1826 30.7509 -11.5683
86.2 27.1328 30.7562 -3.6234
86.25 30.4741 30.7618 -0.2877
86.3 44.0558 30.7674 13.2884
86.35 30.0454 30.7726 -0.7272
86.4 33.034 30.7779 2.2561
86.45 23.9251 30.7834 -6.8583
86.5 29.7187 30.7889 -1.0702
86.55 35.9337 30.7942 5.1395
86.6 31.5904 30.7995 0.7909
86.65 27.7721 30.8048 -3.0327
86.7 27.0826 30.81 -3.7274
86.75 26.6367 30.8154 -4.1787
86.8 30.064 30.8208 -0.7568
86.85 30.2556 30.8258 -0.5702
86.9 28.1702 30.8309 -2.6607
86.95 27.9059 30.8362 -2.9303
87 23.6452 30.8415 -7.1963
87.05 26.9194 30.8465 -3.9271
87.1 32.3678 30.8516 1.5162
87.15 27.5957 30.8566 -3.2609
87.2 24.2127 30.8617 -6.649
87.25 34.9644 30.8667 4.0977
87.3 21.8062 30.8718 -9.0656
87.35 29.0959 30.8766 -1.7807
87.4 33.1176 30.8814 2.2362
87.45 20.4837 30.8864 -10.4027
87.5 29.3619 30.8914 -1.5295
87.55 21.562 30.896 -9.334
87.6 26.8159 30.9007 -4.0848
87.65 39.9785 30.9055 9.073
87.7 33.0195 30.9102 2.1093
87.75 19.9285 30.9149 -10.9864
87.8 18.0175 30.9195 -12.902
87.85 35.0791 30.924 4.1551
87.9 34.6949 30.9284 3.7665
87.95 33.5762 30.933 2.6432
88 19.8981 30.9376 -11.0395
88.05 29.928 30.9419 -1.0139
88.1 29.8828 30.9462 -1.0634
88.15 34.9895 30.9505 4.039
88.2 19.5239 30.9548 -11.4309
88.25 40.1078 30.959 9.1488
88.3 37.7413 30.9633 6.778
88.35 24.4274 30.9673 -6.5399
88.4 26.1474 30.9713 -4.8239
88.45 38.1028 30.9754 7.1274
88.5 22.9362 30.9795 -8.0433
88.55 28.6778 30.9834 -2.3056
88.6 31.8091 30.9872 0.8219
88.65 29.4178 30.991 -1.5732
88.7 36.2395 30.9949 5.2446
88.75 32.8507 30.9986 1.8521
88.8 39.9805 31.0024 8.9781
88.85 33.2817 31.0059 2.2758
88.9 32.7426 31.0094 1.7332
88.95 36.2612 31.013 5.2482
89 30.1295 31.0166 -0.8871
89.05 30.2802 31.0199 -0.7397
89.1 25.4092 31.0232 -5.614
89.15 27.2316 31.0265 -3.7949
89.2 26.6687 31.0298 -4.3611
89.25 28.4616 31.033 -2.5714
89.3 28.4824 31.0362 -2.5538
89.35 30.9819 31.0392 -0.0573
89.4 27.1812 31.0421 -3.8609
89.45 22.8056 31.0452 -8.2396
89.5 36.0105 31.0482 4.9623
89.55 25.9286 31.0509 -5.1223
89.6 30.6004 31.0537 -0.4533
89.65 30.2362 31.0564 -0.8202
89.7 33.0402 31.0591 1.9811
89.75 27.8547 31.0617 -3.207
89.8 34.5142 31.0643 3.4499
89.85 25.108 31.0667 -5.9587
89.9 33.488 31.069 2.419
89.95 30.5833 31.0714 -0.4881
90 27.7247 31.0738 -3.3491
90.05 24.8678 31.076 -6.2082
90.1 29.5499 31.0781 -1.5282
90.15 32.3225 31.0801 1.2424
90.2 23.1427 31.0822 -7.9395
90.25 36.478 31.0842 5.3938
90.3 30.1102 31.0861 -0.9759
90.35 28.6511 31.0878 -2.4367
90.4 29.5224 31.0895 -1.5671
90.45 31.2822 31.0913 0.1909
90.5 30.3798 31.093 -0.7132
90.55 23.6317 31.0944 -7.4627
90.6 30.5591 31.0959 -0.5368
90.65 30.9508 31.0973 -0.1465
90.7 37.6037 31.0986 6.5051
90.75 30.8038 31.0999 -0.2961
90.8 30.7781 31.1012 -0.3231
90.85 33.1956 31.1022 2.0934
90.9 30.3343 31.1032 -0.7689
90.95 36.4278 31.1042 5.3236
91 39.096 31.1052 7.9908
91.05 29.6067 31.1059 -1.4992
91.1 27.7562 31.1067 -3.3505
91.15 31.8677 31.1073 0.7604
91.2 29.9306 31.1079 -1.1773
91.25 21.7978 31.1085 -9.3107
91.3 21.1506 31.109 -9.9584
91.35 27.8789 31.1092 -3.2303
91.4 35.5133 31.1095 4.4038
91.45 35.759 31.1097 4.6493
91.5 35.6159 31.11 4.5059
91.55 29.0541 31.11 -2.0559
91.6 23.9076 31.11 -7.2024
91.65 36.2678 31.1099 5.1579
91.7 23.2372 31.1098 -7.8726
91.75 34.4094 31.1096 3.2998
91.8 27.4364 31.1095 -3.6731
91.85 22.7338 31.1091 -8.3753
91.9 31.6901 31.1086 0.5815
91.95 30.3113 31.1082 -0.7969
92 23.4362 31.1077 -7.6715
92.05 35.088 31.1071 3.9809
92.1 36.3953 31.1065 5.2888
92.15 29.2014 31.1057 -1.9043
92.2 31.6982 31.1049 0.5933
92.25 25.2557 31.1041 -5.8484
92.3 18.2698 31.1033 -12.8335
92.35 24.4485 31.1023 -6.6538
92.4 26.0651 31.1012 -5.0361
92.45 25.1614 31.1001 -5.9387
92.5 29.5543 31.099 -1.5447
92.55 26.2685 31.0978 -4.8293
92.6 31.2645 31.0966 0.1679
92.65 32.1146 31.0952 1.0194
92.7 30.8466 31.0938 -0.2472
92.75 23.5015 31.0924 -7.5909
92.8 39.1437 31.091 8.0527
92.85 30.851 31.0894 -0.2384
92.9 25.5286 31.0877 -5.5591
92.95 25.2581 31.086 -5.8279
93 33.5475 31.0843 2.4632
93.05 46.4138 31.0826 15.3312
93.1 26.1381 31.0808 -4.9427
93.15 18.2047 31.0788 -12.8741
93.2 24.5594 31.0768 -6.5174
93.25 30.0272 31.0749 -1.0477
93.3 28.4087 31.0729 -2.6642
93.35 25.5464 31.0708 -5.5244
93.4 32.0509 31.0687 0.9822
93.45 24.3519 31.067 -6.7151
93.5 27.7326 31.0654 -3.3328
93.55 31.6963 31.0631 0.6332
93.6 22.6785 31.0609 -8.3824
93.65 36.0865 31.0584 5.0281
93.7 25.4728 31.0559 -5.5831
93.75 34.3424 31.0535 3.2889
93.8 27.1779 31.051 -3.8731
93.85 28.3975 31.0484 -2.6509
93.9 29.4344 31.0458 -1.6114
93.95 30.3721 31.0431 -0.671
94 31.4189 31.0403 0.3786
94.05 31.5581 31.0376 0.5205
94.1 23.8125 31.0349 -7.2224
94.15 27.1168 31.032 -3.9152
94.2 27.3919 31.0291 -3.6372
94.25 30.9497 31.0262 -0.0765
94.3 22.8182 31.0233 -8.2051
94.35 35.9773 31.0203 4.957
94.4 33.0566 31.0174 2.0392
94.45 26.2672 31.0142 -4.747
94.5 30.5745 31.0111 -0.4366
94.55 28.6516 31.008 -2.3564
94.6 42.677 31.0049 11.6721
94.65 26.7176 31.0017 -4.2841
94.7 27.405 30.9985 -3.5935
94.75 29.5711 30.9952 -1.4241
94.8 27.2196 30.9919 -3.7723
94.85 27.7437 30.9887 -3.245
94.9 31.5667 30.9855 0.5812
94.95 17.0894 30.9821 -13.8927
95 29.6745 30.9787 -1.3042
95.05 30.0801 30.9753 -0.8952
95.1 28.8797 30.972 -2.0923
95.15 33.8445 30.9686 2.8759
95.2 25.8509 30.9652 -5.1143
95.25 35.6512 30.9617 4.6895
95.3 30.3331 30.9583 -0.6252
95.35 38.8521 30.9549 7.8972
95.4 26.0552 30.9515 -4.8963
95.45 34.2365 30.9481 3.2884
95.5 34.7213 30.9447 3.7766
95.55 29.3355 30.9412 -1.6057
95.6 26.6861 30.9378 -4.2517
95.65 36.6285 30.9345 5.694
95.7 41.9414 30.9312 11.0102
95.75 22.23 30.9279 -8.6979
95.8 29.329 30.9245 -1.5955
95.85 24.7168 30.9213 -6.2045
95.9 36.3453 30.9181 5.4272
95.95 26.7639 30.915 -4.1511
96 30.2778 30.9119 -0.6341
96.05 22.9908 30.9089 -7.9181
96.1 32.1503 30.9059 1.2444
96.15 34.6081 30.9032 3.7049
96.2 30.5258 30.9005 -0.3747
96.25 30.3414 30.8979 -0.5565
96.3 32.8203 30.8953 1.925
96.35 29.7915 30.8931 -1.1016
96.4 31.0804 30.8908 0.1896
96.45 27.9235 30.8891 -2.9656
96.5 20.4065 30.8873 -10.4808
96.55 27.2414 30.8859 -3.6445
96.6 22.0838 30.8845 -8.8007
96.65 37.6112 30.8839 6.7273
96.7 31.9393 30.8833 1.056
96.75 32.8718 30.8836 1.9882
96.8 32.7954 30.8838 1.9116
96.85 26.5024 30.8851 -4.3827
96.9 26.3409 30.8863 -4.5454
96.95 27.5566 30.8894 -3.3328
97 24.756 30.8924 -6.1364
97.05 28.6642 30.8974 -2.2332
97.1 37.3922 30.9024 6.4898
97.15 21.9745 30.9107 -8.9362
97.2 32.1405 30.919 1.2215
97.25 29.7337 30.9322 -1.1985
97.3 35.7649 30.9455 4.8194
97.35 29.4281 30.9658 -1.5377
97.4 34.7561 30.9861 3.77
97.45 27.3384 31.0168 -3.6784
97.5 33.9964 31.0476 2.9488
97.55 30.7243 31.0916 -0.3673
97.6 43.6233 31.1356 12.4877
97.65 31.6978 31.1988 0.499
97.7 27.9639 31.262 -3.2981
97.75 31.8624 31.3581 0.5043
97.8 38.5394 31.4543 7.0851
97.85 38.0333 31.6094 6.4239
97.9 24.0279 31.7644 -7.7365
97.95 35.3786 32.0318 3.3468
98 32.8459 32.2991 0.5468
98.05 31.3902 32.7924 -1.4022
98.1 29.2421 33.2856 -4.0435
98.15 27.2585 34.2518 -6.9933
98.2 38.6487 35.2181 3.4306
98.25 46.7946 36.8338 9.9608
98.3 41.5212 39.1364 2.3848
98.35 43.7895 42.3775 1.412
98.4 42.2253 46.812 -4.5867
98.45 54.7614 52.654 2.1074
98.5 48.5128 59.5393 -11.0265
98.55 66.8927 66.9788 -0.0861
98.6 71.1961 73.6082 -2.4121
98.65 80.0722 77.7564 2.3158
98.7 75.5033 78.4348 -2.9315
98.75 75.6204 75.1965 0.4239
98.8 69.3713 69.2598 0.1115
98.85 72.5983 62.0112 10.5871
98.9 43.321 54.919 -11.598
98.95 42.211 48.8318 -6.6208
99 40.0938 44.033 -3.9392
99.05 46.8122 40.447 6.3652
99.1 40.2384 37.8485 2.3899
99.15 29.9154 36.2582 -6.3428
99.2 42.0847 34.668 7.4167
99.25 37.8932 33.8479 4.0453
99.3 30.922 33.0279 -2.1059
99.35 31.7908 32.5825 -0.7917
99.4 27.3306 32.1371 -4.8065
99.45 29.4282 31.8781 -2.4499
99.5 31.0794 31.6192 -0.5398
99.55 29.6346 31.4566 -1.822
99.6 28.3662 31.2939 -2.9277
99.65 38.2321 31.1833 7.0488
99.7 23.361 31.0727 -7.7117
99.75 27.1093 30.9916 -3.8823
99.8 31.2139 30.9105 0.3034
99.85 28.2423 30.8476 -2.6053
99.9 28.3932 30.7847 -2.3915
99.95 23.2094 30.7369 -7.5275
100 33.3585 30.6892 2.6693
100.05 28.4142 30.6542 -2.24
100.1 23.716 30.6193 -6.9033
100.15 26.1728 30.593 -4.4202
100.2 28.849 30.5667 -1.7177
100.25 30.8106 30.5462 0.2644
100.3 32.1379 30.5257 1.6122
100.35 31.9125 30.5088 1.4037
100.4 23.8194 30.492 -6.6726
100.45 33.0209 30.4773 2.5436
100.5 22.7506 30.4625 -7.7119
100.55 32.8873 30.4497 2.4376
100.6 34.9173 30.4369 4.4804
100.65 20.1477 30.4253 -10.2776
100.7 25.8383 30.4137 -4.5754
100.75 30.8461 30.4029 0.4432
100.8 28.9031 30.392 -1.4889
100.85 27.0474 30.3822 -3.3348
100.9 26.8009 30.3723 -3.5714
100.95 27.34 30.3629 -3.0229
101 21.3838 30.3535 -8.9697
101.05 31.4873 30.3445 1.1428
101.1 30.0174 30.3354 -0.318
101.15 31.8856 30.327 1.5586
101.2 34.6923 30.3186 4.3737
101.25 28.9296 30.3103 -1.3807
101.3 36.3957 30.302 6.0937
101.35 32.2503 30.2941 1.9562
101.4 21.3934 30.2861 -8.8927
101.45 28.5885 30.2785 -1.69
101.5 45.3176 30.2709 15.0467
101.55 31.1674 30.2633 0.9041
101.6 23.5972 30.2556 -6.6584
101.65 38.1897 30.2483 7.9414
101.7 22.8716 30.241 -7.3694
101.75 38.2739 30.2339 8.04
101.8 25.9887 30.2268 -4.2381
101.85 36.4101 30.2196 6.1905
101.9 35.7568 30.2125 5.5443
101.95 42.8928 30.2032 12.6896
102 39.6162 30.1964 9.4198
102.05 34.1104 30.1896 3.9208
102.1 22.2266 30.1828 -7.9562
102.15 17.3709 30.176 -12.8051
102.2 39.0887 30.1693 8.9194
102.25 31.6761 30.1627 1.5134
102.3 35.4867 30.1561 5.3306
102.35 28.3006 30.1496 -1.849
102.4 30.1992 30.1431 0.0561
102.45 27.5912 30.1366 -2.5454
102.5 26.2446 30.1301 -3.8855
102.55 36.3012 30.1238 6.1774
102.6 39.3481 30.1175 9.2306
102.65 29.005 30.1112 -1.1062
102.7 29.0181 30.105 -1.0869
102.75 33.359 30.0987 3.2603
102.8 28.15 30.0924 -1.9424
102.85 30.8896 30.0863 0.8033
102.9 23.6548 30.0802 -6.4254
102.95 27.8128 30.0742 -2.2614
103 30.6713 30.0681 0.6032
103.05 31.5146 30.0621 1.4525
103.1 39.7672 30.056 9.7112
103.15 32.4934 30.0502 2.4432
103.2 34.5903 30.0443 4.546
103.25 26.9161 30.0384 -3.1223
103.3 39.4386 30.0325 9.4061
103.35 29.3362 30.0267 -0.6905
103.4 19.4174 30.0209 -10.6035
103.45 33.7636 30.0152 3.7484
103.5 39.132 30.0095 9.1225
103.55 39.8462 30.0038 9.8424
103.6 32.4046 29.9981 2.4065
103.65 25.8202 29.9925 -4.1723
103.7 26.5509 29.9869 -3.436
103.75 47.1751 29.9814 17.1937
103.8 29.0623 29.9759 -0.9136
103.85 23.4679 29.9704 -6.5025
103.9 33.3141 29.965 3.3491
103.95 30.6707 29.9595 0.7112
104 25.3531 29.9541 -4.601
104.05 28.2121 29.9489 -1.7368
104.1 24.5046 29.9436 -5.439
104.15 31.6378 29.9383 1.6995
104.2 21.1961 29.933 -8.7369
104.25 27.2135 29.9278 -2.7143
104.3 21.3484 29.9226 -8.5742
104.35 39.9322 29.9175 10.0147
104.4 31.8761 29.9125 1.9636
104.45 25.0206 29.9074 -4.8868
104.5 26.5122 29.9023 -3.3901
104.55 16.7143 29.8974 -13.1831
104.6 32.1456 29.8924 2.2532
104.65 30.1101 29.8875 0.2226
104.7 24.3812 29.8827 -5.5015
104.75 17.4687 29.8778 -12.4091
104.8 30.8319 29.873 0.9589
104.85 24.2486 29.8682 -5.6196
104.9 25.3446 29.8635 -4.5189
104.95 41.8019 29.8589 11.943
105 47.26 29.8542 17.4058
105.05 24.3321 29.8496 -5.5175
105.1 22.3823 29.845 -7.4627
105.15 19.9874 29.8405 -9.8531
105.2 35.6686 29.836 5.8326
105.25 37.5644 29.8316 7.7328
105.3 29.0725 29.8272 -0.7547
105.35 40.135 29.8229 10.3121
105.4 40.6214 29.8185 10.8029
105.45 42.9509 29.8143 13.1366
105.5 29.8354 29.81 0.0254
105.55 37.7231 29.8059 7.9172
105.6 28.5464 29.8018 -1.2554
105.65 25.309 29.7976 -4.4886
105.7 20.9793 29.7935 -8.8142
105.75 27.7922 29.7896 -1.9974
105.8 30.6103 29.7856 0.8247
105.85 39.0026 29.7817 9.2209
105.9 21.4788 29.7778 -8.299
105.95 24.663 29.774 -5.111
106 25.6806 29.7702 -4.0896
106.05 31.3754 29.7665 1.6089
106.1 25.0796 29.7628 -4.6832
106.15 23.2061 29.7592 -6.5531
106.2 40.7293 29.7556 10.9737
106.25 28.3716 29.752 -1.3804
106.3 38.0375 29.7485 8.289
106.35 24.3357 29.7451 -5.4094
106.4 38.0354 29.7417 8.2937
106.45 22.8153 29.7384 -6.9231
106.5 27.0842 29.7351 -2.6509
106.55 22.5862 29.7318 -7.1456
106.6 24.2408 29.7286 -5.4878
106.65 24.3665 29.7255 -5.359
106.7 29.6344 29.7224 -0.088
106.75 24.4136 29.7194 -5.3058
106.8 26.396 29.7164 -3.3204
106.85 22.99 29.7135 -6.7235
106.9 22.2255 29.7105 -7.485
106.95 39.5793 29.7077 9.8716
107 28.1172 29.7049 -1.5877
107.05 21.7678 29.7022 -7.9344
107.1 31.8224 29.6994 2.123
107.15 30.1871 29.6966 0.4905
107.2 26.8 29.6939 -2.8939
107.25 30.3516 29.6912 0.6604
107.3 35.5978 29.6885 5.9093
107.35 31.9832 29.6858 2.2974
107.4 35.4446 29.6831 5.7615
107.45 31.9147 29.6804 2.2343
107.5 39.541 29.6778 9.8632
107.55 32.3006 29.6752 2.6254
107.6 23.5083 29.6726 -6.1643
107.65 24.0043 29.67 -5.6657
107.7 30.9735 29.6674 1.3061
107.75 29.4406 29.6649 -0.2243
107.8 27.5826 29.6623 -2.0797
107.85 25.5866 29.6598 -4.0732
107.9 19.2166 29.6573 -10.4407
107.95 19.7116 29.6548 -9.9432
108 28.8173 29.6523 -0.835
108.05 30.9659 29.6499 1.316
108.1 28.7661 29.6474 -0.8813
108.15 20.1148 29.645 -9.5302
108.2 33.0448 29.6426 3.4022
108.25 31.8985 29.6402 2.2583
108.3 27.5828 29.6378 -2.055
108.35 28.747 29.6354 -0.8884
108.4 30.5173 29.6331 0.8842
108.45 27.5212 29.6307 -2.1095
108.5 21.0584 29.6284 -8.57
108.55 31.6777 29.6262 2.0515
108.6 28.2596 29.6239 -1.3643
108.65 25.5812 29.6216 -4.0404
108.7 24.1155 29.6193 -5.5038
108.75 27.9848 29.6171 -1.6323
108.8 33.1499 29.6149 3.535
108.85 29.2696 29.6127 -0.3431
108.9 33.6907 29.6105 4.0802
108.95 29.3111 29.6084 -0.2973
109 20.8381 29.6062 -8.7681
109.05 27.0681 29.6041 -2.536
109.1 22.4286 29.6019 -7.1733
109.15 28.2553 29.5999 -1.3446
109.2 36.3509 29.5978 6.7531
109.25 31.7069 29.5957 2.1112
109.3 25.834 29.5936 -3.7596
109.35 36.1536 29.5916 6.562
109.4 27.0958 29.5896 -2.4938
109.45 37.3088 29.5876 7.7212
109.5 35.7049 29.5856 6.1193
109.55 28.8096 29.5837 -0.7741
109.6 26.7656 29.5817 -2.8161
109.65 24.795 29.5798 -4.7848
109.7 27.5187 29.5779 -2.0592
109.75 26.519 29.576 -3.057
109.8 27.1832 29.5741 -2.3909
109.85 30.9253 29.5723 1.353
109.9 30.8624 29.5704 1.292
109.95 40.7425 29.5686 11.1739
110 24.9834 29.5668 -4.5834
110.05 26.9308 29.565 -2.6342
110.1 31.946 29.5633 2.3827
110.15 19.2454 29.5616 -10.3162
110.2 28.3095 29.5598 -1.2503
110.25 37.8743 29.5581 8.3162
110.3 26.44 29.5564 -3.1164
110.35 29.8895 29.5548 0.3347
110.4 24.3115 29.5532 -5.2417
110.45 27.0117 29.5516 -2.5399
110.5 35.0594 29.55 5.5094
110.55 23.5163 29.5484 -6.0321
110.6 28.8327 29.5468 -0.7141
110.65 27.543 29.5453 -2.0023
110.7 21.1889 29.5438 -8.3549
110.75 21.6917 29.5423 -7.8506
110.8 29.3321 29.5409 -0.2088
110.85 31.4228 29.5394 1.8834
110.9 40.5645 29.538 11.0265
110.95 29.3978 29.5367 -0.1389
111 34.2019 29.5353 4.6666
111.05 38.8828 29.534 9.3488
111.1 32.5638 29.5327 3.0311
111.15 27.775 29.5314 -1.7564
111.2 32.7234 29.5302 3.1932
111.25 27.521 29.529 -2.008
111.3 32.544 29.5278 3.0162
111.35 27.5656 29.5267 -1.9611
111.4 26.5276 29.5256 -2.998
111.45 19.4603 29.5245 -10.0642
111.5 24.545 29.5235 -4.9785
111.55 32.7891 29.5225 3.2666
111.6 30.4139 29.5215 0.8924
111.65 28.7661 29.5207 -0.7546
111.7 30.2886 29.5198 0.7688
111.75 23.3828 29.519 -6.1362
111.8 39.1568 29.5181 9.6387
111.85 27.5618 29.5174 -1.9556
111.9 19.2843 29.5167 -10.2324
111.95 27.1368 29.5161 -2.3793
112 34.8496 29.5156 5.334
112.05 34.2439 29.5151 4.7288
112.1 26.3826 29.5146 -3.132
112.15 29.8169 29.5142 0.3027
112.2 30.6762 29.5138 1.1624
112.25 22.6697 29.5136 -6.8439
112.3 33.6066 29.5135 4.0931
112.35 30.1488 29.5134 0.6354
112.4 33.9628 29.5134 4.4494
112.45 31.6345 29.5135 2.121
112.5 24.1749 29.5136 -5.3387
112.55 26.1375 29.5139 -3.3764
112.6 28.5285 29.5143 -0.9858
112.65 25.5314 29.5149 -3.9835
112.7 35.3711 29.5155 5.8556
112.75 38.3287 29.5163 8.8124
112.8 42.4174 29.5171 12.9003
112.85 25.8328 29.5183 -3.6855
112.9 28.9769 29.5194 -0.5425
112.95 31.1136 29.521 1.5926
113 25.9778 29.5225 -3.5447
113.05 29.7204 29.5244 0.196
113.1 23.536 29.5264 -5.9904
113.15 26.8429 29.5288 -2.6859
113.2 24.0542 29.5313 -5.4771
113.25 34.1092 29.5344 4.5748
113.3 35.4924 29.5374 5.955
113.35 30.321 29.5412 0.7798
113.4 24.3837 29.545 -5.1613
113.45 30.1437 29.5497 0.594
113.5 34.3172 29.5544 4.7628
113.55 31.7998 29.5602 2.2396
113.6 27.2309 29.566 -2.3351
113.65 28.6749 29.5731 -0.8982
113.7 35.0585 29.5803 5.4782
113.75 23.3503 29.5892 -6.2389
113.8 36.5353 29.598 6.9373
113.85 26.1423 29.6092 -3.4669
113.9 45.9966 29.6203 16.3763
113.95 27.01 29.6344 -2.6244
114 35.3533 29.6484 5.7049
114.05 25.1757 29.6663 -4.4906
114.1 34.2794 29.6842 4.5952
114.15 18.7657 29.7073 -10.9416
114.2 37.3744 29.7304 7.644
114.25 31.3847 29.7606 1.6241
114.3 21.4744 29.7909 -8.3165
114.35 31.2563 29.831 1.4253
114.4 34.4112 29.8711 4.5401
114.45 34.279 29.9251 4.3539
114.5 29.0002 29.9792 -0.979
114.55 36.7739 30.053 6.7209
114.6 21.8436 30.1269 -8.2833
114.65 31.3195 30.2294 1.0901
114.7 38.005 30.3319 7.6731
114.75 27.1134 30.4764 -3.363
114.8 35.3459 30.6209 4.725
114.85 33.811 30.8283 2.9827
114.9 33.0789 31.0358 2.0431
114.95 28.7924 31.3385 -2.5461
115 28.7208 31.6413 -2.9205
115.05 31.9903 32.0891 -0.0988
115.1 31.5828 32.5368 -0.954
115.15 47.2803 33.1365 14.1438
115.2 32.6076 33.8671 -1.2595
115.25 39.8123 34.7543 5.058
115.3 43.8753 35.8266 8.0487
115.35 30.5868 37.1126 -6.5258
115.4 51.583 38.6392 12.9438
115.45 38.7725 40.4274 -1.6549
115.5 53.6881 42.4867 11.2014
115.55 45.7983 44.8223 0.976
115.6 49.525 47.3628 2.1622
115.65 37.1398 50.0846 -12.9448
115.7 62.837 52.8787 9.9583
115.75 54.3836 55.6048 -1.2212
115.8 54.6573 58.1442 -3.4869
115.85 45.757 60.2676 -14.5106
115.9 73.3778 61.9185 11.4593
115.95 49.9747 62.8806 -12.9059
116 67.2241 63.1045 4.1196
116.05 60.2932 62.573 -2.2798
116.1 70.8192 61.3325 9.4867
116.15 61.5573 59.486 2.0713
116.2 59.0194 57.1759 1.8435
116.25 39.8239 54.564 -14.7401
116.3 50.4601 51.8105 -1.3504
116.35 60.577 49.0635 11.5135
116.4 49.5823 46.417 3.1653
116.45 46.0057 43.9705 2.0352
116.5 48.65 41.7659 6.8841
116.55 43.4041 39.8244 3.5797
116.6 39.5382 38.1461 1.3921
116.65 39.7907 36.83 2.9607
116.7 35.3464 35.5139 -0.1675
116.75 29.685 34.5958 -4.9108
116.8 33.4897 33.6778 -0.1881
116.85 28.4576 33.0506 -4.593
116.9 35.5479 32.4234 3.1245
116.95 32.8921 31.997 0.8951
117 36.3807 31.5706 4.8101
117.05 24.9011 31.2787 -6.3776
117.1 23.6266 30.9868 -7.3602
117.15 37.3518 30.7842 6.5676
117.2 36.2812 30.5816 5.6996
117.25 31.41 30.4386 0.9714
117.3 29.2326 30.2956 -1.063
117.35 29.0272 30.1928 -1.1656
117.4 27.3604 30.09 -2.7296
117.45 38.8756 30.0148 8.8608
117.5 32.8299 29.9397 2.8902
117.55 28.7786 29.8838 -1.1052
117.6 30.8845 29.828 1.0565
117.65 25.6175 29.7858 -4.1683
117.7 30.9147 29.7436 1.1711
117.75 34.956 29.7111 5.2449
117.8 41.0294 29.6787 11.3507
117.85 33.9712 29.6533 4.3179
117.9 34.8473 29.6279 5.2194
117.95 39.3038 29.6077 9.6961
118 30.9608 29.5876 1.3732
118.05 25.7414 29.5712 -3.8298
118.1 45.3834 29.5549 15.8285
118.15 37.2794 29.5409 7.7385
118.2 39.5849 29.5281 10.0568
118.25 28.0193 29.517 -1.4977
118.3 26.5062 29.5058 -2.9996
118.35 26.5964 29.4965 -2.9001
118.4 39.6853 29.4871 10.1982
118.45 30.6464 29.4791 1.1673
118.5 30.7968 29.4711 1.3257
118.55 27.7496 29.4642 -1.7146
118.6 21.1036 29.4573 -8.3537
118.65 37.8859 29.4514 8.4345
118.7 23.9468 29.4454 -5.4986
118.75 31.1005 29.4402 1.6603
118.8 32.6595 29.435 3.2245
118.85 27.4698 29.4303 -1.9605
118.9 32.8912 29.4257 3.4655
118.95 26.1458 29.4216 -3.2758
119 29.658 29.4175 0.2405
119.05 31.3475 29.4139 1.9336
119.1 28.9874 29.4102 -0.4228
119.15 25.9415 29.4069 -3.4654
119.2 21.7026 29.4036 -7.701
119.25 30.49 29.4006 1.0894
119.3 23.0786 29.3976 -6.319
119.35 27.2593 29.3949 -2.1356
119.4 22.5155 29.3922 -6.8767
119.45 27.6432 29.3897 -1.7465
119.5 28.5978 29.3872 -0.7894
119.55 35.3762 29.3849 5.9913
119.6 27.9594 29.3826 -1.4232
119.65 33.7289 29.3805 4.3484
119.7 33.8478 29.3784 4.4694
119.75 25.7687 29.3765 -3.6078
119.8 25.4911 29.3745 -3.8834
119.85 22.2742 29.3727 -7.0985
119.9 39.7933 29.3709 10.4224
119.95 32.999 29.3692 3.6298
120 30.1884 29.3675 0.8209
120.05 37.766 29.3659 8.4001
120.1 21.4606 29.3643 -7.9037
120.15 24.7242 29.3628 -4.6386
120.2 31.9061 29.3613 2.5448
120.25 28.7016 29.3599 -0.6583
120.3 35.768 29.3585 6.4095
120.35 34.4003 29.3572 5.0431
120.4 27.1099 29.3559 -2.246
120.45 29.0092 29.3546 -0.3454
120.5 35.0581 29.3534 5.7047
120.55 29.139 29.3522 -0.2132
120.6 42.8076 29.3509 13.4567
120.65 22.6898 29.3498 -6.66
120.7 29.3984 29.3487 0.0497
120.75 32.067 29.3476 2.7194
120.8 34.4497 29.3465 5.1032
120.85 33.4432 29.3455 4.0977
120.9 34.0621 29.3444 4.7177
120.95 23.1108 29.3434 -6.2326
121 37.1381 29.3424 7.7957
121.05 30.1419 29.3414 0.8005
121.1 41.2751 29.3405 11.9346
121.15 29.6901 29.3396 0.3505
121.2 39.175 29.3387 9.8363
121.25 47.0231 29.3378 17.6853
121.3 27.9437 29.3369 -1.3932
121.35 23.6103 29.336 -5.7257
121.4 22.6807 29.3351 -6.6544
121.45 40.6551 29.3343 11.3208
121.5 32.8817 29.3335 3.5482
121.55 27.2516 29.3327 -2.0811
121.6 26.06 29.3319 -3.2719
121.65 30.5408 29.3311 1.2097
121.7 27.1518 29.3303 -2.1785
121.75 38.0932 29.3295 8.7637
121.8 36.7441 29.3288 7.4153
121.85 26.2468 29.328 -3.0812
121.9 27.3346 29.3273 -1.9927
121.95 31.3422 29.3266 2.0156
122 27.8875 29.3259 -1.4384
122.05 34.0835 29.3252 4.7583
122.1 24.0979 29.3244 -5.2265
122.15 26.8836 29.3238 -2.4402
122.2 24.6966 29.3231 -4.6265
122.25 24.3978 29.3224 -4.9246
122.3 28.9314 29.3217 -0.3903
122.35 24.4264 29.3211 -4.8947
122.4 31.1286 29.3204 1.8082
122.45 34.0013 29.3198 4.6815
122.5 33.177 29.3191 3.8579
122.55 34.751 29.3185 5.4325
122.6 33.8592 29.3178 4.5414
122.65 22.607 29.3172 -6.7102
122.7 27.1374 29.3166 -2.1792
122.75 14.7435 29.316 -14.5725
122.8 24.0333 29.3154 -5.2821
122.85 36.8151 29.3142 7.5009
122.9 37.0123 29.313 7.6993
122.95 30.7454 29.3124 1.433
123 22.5458 29.3118 -6.766
123.05 34.4369 29.3112 5.1257
123.1 27.5274 29.3106 -1.7832
123.15 37.155 29.3101 7.8449
123.2 31.1323 29.3095 1.8228
123.25 27.2275 29.3089 -2.0814
123.3 27.0982 29.3083 -2.2101
123.35 24.061 29.3078 -5.2468
123.4 35.1475 29.3072 5.8403
123.45 34.5771 29.3066 5.2705
123.5 26.2534 29.3061 -3.0527
123.55 33.657 29.3055 4.3515
123.6 28.6978 29.3049 -0.6071
123.65 33.0113 29.3044 3.7069
123.7 21.023 29.3038 -8.2808
123.75 20.6821 29.3033 -8.6212
123.8 25.8079 29.3027 -3.4948
123.85 20.1256 29.3022 -9.1766
123.9 26.9594 29.3016 -2.3422
123.95 32.3372 29.3011 3.0361
124 29.3606 29.3006 0.06
124.05 26.3226 29.3 -2.9774
124.1 38.3105 29.2995 9.011
124.15 30.9073 29.2989 1.6084
124.2 32.5154 29.2984 3.217
124.25 29.7796 29.2979 0.4817
124.3 28.347 29.2973 -0.9503
124.35 33.5511 29.2968 4.2543
124.4 33.2563 29.2963 3.96
124.45 22.7845 29.2957 -6.5112
124.5 21.9649 29.2952 -7.3303
124.55 26.5638 29.2947 -2.7309
124.6 23.1829 29.2941 -6.1112
124.65 36.0042 29.2936 6.7106
124.7 23.9173 29.2931 -5.3758
124.75 29.3105 29.2925 0.018
124.8 19.3202 29.292 -9.9718
124.85 30.9933 29.2915 1.7018
124.9 34.5839 29.2909 5.293
124.95 42.2307 29.2904 12.9403
125 29.7877 29.2899 0.4978
125.05 30.4654 29.2893 1.1761
125.1 31.3691 29.2888 2.0803
125.15 27.0175 29.2883 -2.2708
125.2 27.7883 29.2877 -1.4994
125.25 31.7148 29.2872 2.4276
125.3 33.3601 29.2867 4.0734
125.35 28.4553 29.2861 -0.8308
125.4 32.6989 29.2856 3.4133
125.45 38.2369 29.285 8.9519
125.5 21.8364 29.2845 -7.4481
125.55 28.5755 29.284 -0.7085
125.6 30.9371 29.2834 1.6537
125.65 29.8047 29.2829 0.5218
125.7 33.7662 29.2823 4.4839
125.75 28.434 29.2818 -0.8478
125.8 39.0857 29.2812 9.8045
125.85 30.9 29.2807 1.6193
125.9 28.7928 29.2801 -0.4873
125.95 22.2436 29.2796 -7.036
126 29.1828 29.279 -0.0962
126.05 36.6524 29.2785 7.3739
126.1 30.1637 29.2779 0.8858
126.15 43.7875 29.2773 14.5102
126.2 41.2272 29.2768 11.9504
126.25 32.7142 29.2762 3.438
126.3 35.038 29.2756 5.7624
126.35 24.8497 29.2751 -4.4254
126.4 30.3989 29.2745 1.1244
126.45 33.7499 29.2739 4.476
126.5 30.9766 29.2734 1.7032
126.55 25.6488 29.2728 -3.624
126.6 19.7951 29.2722 -9.4771
126.65 23.6886 29.2716 -5.583
126.7 30.4921 29.271 1.2211
126.75 21.8865 29.2704 -7.3839
126.8 35.6876 29.2698 6.4178
126.85 19.5554 29.2692 -9.7138
126.9 27.888 29.2686 -1.3806
126.95 37.2122 29.268 7.9442
127 25.3326 29.2674 -3.9348
127.05 29.1828 29.2668 -0.084
127.1 23.3568 29.2662 -5.9094
127.15 38.2102 29.2656 8.9446
127.2 29.2873 29.265 0.0223
127.25 29.7607 29.2644 0.4963
127.3 27.1686 29.2638 -2.0952
127.35 30.702 29.2631 1.4389
127.4 36.2843 29.2625 7.0218
127.45 26.7754 29.2619 -2.4865
127.5 35.2111 29.2612 5.9499
127.55 28.2422 29.2606 -1.0184
127.6 28.3986 29.26 -0.8614
127.65 29.1487 29.2593 -0.1106
127.7 24.2615 29.2587 -4.9972
127.75 32.7333 29.258 3.4753
127.8 25.5028 29.2574 -3.7546
127.85 28.1185 29.2567 -1.1382
127.9 26.4908 29.256 -2.7652
127.95 33.4485 29.2554 4.1931
128 37.4271 29.2547 8.1724
128.05 23.1374 29.254 -6.1166
128.1 39.2891 29.2533 10.0358
128.15 22.3641 29.2526 -6.8885
128.2 32.6588 29.2519 3.4069
128.25 29.3541 29.2513 0.1028
128.3 37.5068 29.2506 8.2562
128.35 23.9618 29.2499 -5.2881
128.4 23.0138 29.2491 -6.2353
128.45 32.7167 29.2484 3.4683
128.5 32.7432 29.2477 3.4955
128.55 34.5116 29.247 5.2646
128.6 25.1439 29.2463 -4.1024
128.65 30.8361 29.2455 1.5906
128.7 33.1641 29.2448 3.9193
128.75 21.7739 29.2441 -7.4702
128.8 20.0551 29.2433 -9.1882
128.85 29.8 29.2426 0.5574
128.9 27.824 29.2418 -1.4178
128.95 37.0015 29.2411 7.7604
129 28.5876 29.2403 -0.6527
129.05 36.264 29.2395 7.0245
129.1 33.463 29.2388 4.2242
129.15 31.2826 29.238 2.0446
129.2 24.0912 29.2372 -5.146
129.25 23.5793 29.2364 -5.6571
129.3 25.138 29.2356 -4.0976
129.35 35.962 29.2348 6.7272
129.4 34.8788 29.234 5.6448
129.45 21.3938 29.2332 -7.8394
129.5 28.8312 29.2324 -0.4012
129.55 31.9416 29.2315 2.7101
129.6 24.7985 29.2307 -4.4322
129.65 24.8135 29.2299 -4.4164
129.7 26.4077 29.229 -2.8213
129.75 32.2213 29.2282 2.9931
129.8 34.2723 29.2274 5.0449
129.85 25.9606 29.2265 -3.2659
129.9 17.4868 29.2256 -11.7388
129.95 33.339 29.2369 4.1021
130 26.4511 29.2481 -2.797
