40 40.028 6.32676852745539
40.05 31.7025 5.63049731373704
40.1 42.017 6.48205214419014
40.15 28.6423 5.35185014737894
40.2 44.5413 6.67392688003098
40.25 31.5493 5.61687635612535
40.3 33.7608 5.81040446096483
40.35 49.7941 7.05649346347037
40.4 36.3509 6.02917075558488
40.45 41.3645 6.43152392516735
40.5 37.501 6.12380600607171
40.55 38.4178 6.19820941885638
40.6 45.9811 6.78093651349133
40.65 48.4662 6.96176701707261
40.7 36.5584 6.04635427344445
40.75 37.2617 6.10423623396081
40.8 46.9565 6.85248130241885
40.85 33.1199 5.75498913986812
40.9 38.6161 6.21418538506859
40.95 34.9684 5.91340849257008
41 35.2569 5.93775209991121
41.05 44.9534 6.70472967389439
41.1 32.8475 5.73127385491219
41.15 30.4859 5.52140380700416
41.2 29.1513 5.39919438435032
41.25 35.8935 5.99111842647097
41.3 32.551 5.70534836797894
41.35 42.2163 6.4974071751738
41.4 34.4686 5.87099650825991
41.45 48.4339 6.95944681709689
41.5 40.0636 6.32958134476523
41.55 28.4524 5.33407911452389
41.6 49.5406 7.03850836470342
41.65 37.2515 6.10340069141786
41.7 46.9118 6.84921893357192
41.75 33.8178 5.81530738654458
41.8 39.5508 6.28894267742997
41.85 36.5362 6.04451817765486
41.9 32.0854 5.6643975849158
41.95 37.5744 6.12979608143697
42 48.3139 6.95082009549952
42.05 39.7781 6.30698818771686
42.1 27.3136 5.22624147930422
42.15 31.2367 5.58898022898632
42.2 35.7259 5.97711468854329
42.25 30.0342 5.48034670436096
42.3 31.9391 5.65146883562141
42.35 37.051 6.08695326086869
42.4 34.905 5.90804536204657
42.45 33.2947 5.77015597709455
42.5 39.8539 6.31299453508396
42.55 36.5263 6.04369919833871
42.6 30.6982 5.54059563584999
42.65 38.7576 6.22556021575569
42.7 33.5493 5.79217575700185
42.75 34.3181 5.85816524178006
42.8 37.0079 6.08341187163914
42.85 41.8393 6.46833054195594
42.9 30.8497 5.55425062452173
42.95 44.9708 6.70602713981982
43 40.6525 6.37593130452329
43.05 41.9568 6.47740688856274
43.1 34.493 5.87307415243499
43.15 36.9817 6.08125809351979
43.2 39.6637 6.29791235251809
43.25 33.3346 5.77361238740531
43.3 28.6188 5.34965419443164
43.35 32.4314 5.69485732920501
43.4 33.5538 5.79256419904001
43.45 46.0688 6.78740009134573
43.5 42.0486 6.48448918574162
43.55 33.1787 5.76009548531967
43.6 42.0697 6.48611594099273
43.65 40.0445 6.32807237632441
43.7 35.5892 5.96566844536302
43.75 32.333 5.6862113924827
43.8 32.1862 5.67328828810946
43.85 34.6545 5.88680728408872
43.9 32.8571 5.73211130387399
43.95 34.9908 5.91530219008294
44 38.6758 6.21898705578328
44.05 40.9667 6.40052341609653
44.1 62.4257 7.90099360840141
44.15 48.41 6.95772951471958
44.2 54.2826 7.36767263116379
44.25 60.32 7.76659513557904
44.3 78.0715 8.83580782950829
44.35 95.7907 9.78727234728859
44.4 164.9468 12.8431616045271
44.45 315.5317 17.7632119843231
44.5 806.5857 28.4004524611845
44.55 1493.8673 38.65057955581
44.6 1889.3795 43.4669932247447
44.65 1465.2622 38.2787434485512
44.7 541.6646 23.273689007117
44.75 175.9626 13.2650895209946
44.8 88.8371 9.4253434950669
44.85 56.0864 7.4890853914213
44.9 44.9121 6.70164905079339
44.95 44.4067 6.66383523205669
45 44.5514 6.67468351309633
45.05 60.1839 7.75782830436457
45.1 37.4105 6.11641234711984
45.15 38.3455 6.19237434268956
45.2 38.3896 6.19593415071529
45.25 39.0387 6.24809570989434
45.3 30.9206 5.5606294607715
45.35 43.1288 6.56725208896385
45.4 34.5205 5.87541487896812
45.45 23.4276 4.84020660716048
45.5 32.4292 5.69466416920261
45.55 38.9373 6.23997596149216
45.6 38.8 6.22896460095897
45.65 35.874 5.98949079638662
45.7 29.3046 5.41337233155082
45.75 45.9023 6.77512361510844
45.8 31.5675 5.61849624009841
45.85 39.1253 6.25502198237544
45.9 26.1875 5.11737237261468
45.95 30.234 5.49854526215798
46 44.739 6.68872185099665
46.05 38.5995 6.21284958774957
46.1 33.657 5.80146533213808
46.15 34.3149 5.85789211235578
46.2 36.0815 6.00678782711692
46.25 33.8881 5.82134864099377
46.3 36.6284 6.05214011734692
46.35 41.3348 6.42921457100321
46.4 30.1319 5.48925313681197
46.45 32.327 5.68568377594111
46.5 37.3311 6.10991816639143
46.55 29.302 5.41313218017074
46.6 30.052 5.48197044866169
46.65 38.586 6.21176303475913
46.7 34.9991 5.9160037187277
46.75 32.0556 5.66176650878505
46.8 30.6932 5.54014440245017
46.85 31.2094 5.5865373891168
46.9 47.8651 6.91846081148112
46.95 40.2773 6.34643994693088
47 35.6962 5.97462969563805
47.05 38.7928 6.22838662897544
47.1 29.1822 5.40205516447213
47.15 36.7914 6.06559147981464
47.2 35.0038 5.91640093299972
47.25 34.4573 5.87003407145137
47.3 40.4736 6.36188651266273
47.35 43.5882 6.60213601798691
47.4 34.7654 5.89621912754267
47.45 32.8133 5.72828944799405
47.5 33.5422 5.79156282880536
47.55 36.0655 6.00545585280585
47.6 37.3766 6.11364048664951
47.65 28.2759 5.31750881522542
47.7 46.5503 6.82277802658125
47.75 27.875 5.27967802048572
47.8 39.2317 6.26352137379605
47.85 35.821 5.98506474484612
47.9 30.4177 5.515224383468
47.95 32.4539 5.69683245321468
48 23.2755 4.82446888268543
48.05 31.6944 5.62977797075515
48.1 31.5098 5.61335906565757
48.15 36.2049 6.01705077259616
48.2 39.6104 6.29367936901778
48.25 36.1297 6.01079861582469
48.3 29.7038 5.45011926475008
48.35 33.424 5.78134932347112
48.4 41.8448 6.46875567632601
48.45 38.6096 6.21366236610906
48.5 29.8242 5.4611537242601
48.55 35.0783 5.92269364394276
48.6 27.2065 5.21598504599083
48.65 35.4631 5.95509025960144
48.7 37.614 6.13302535458643
48.75 22.0801 4.69894669048288
48.8 49.2304 7.01643784266632
48.85 32.1606 5.67103165217758
48.9 35.0356 5.91908776755338
48.95 31.207 5.58632258288044
49 33.0992 5.75319041923697
49.05 39.3871 6.27591427602385
49.1 40.2479 6.34412326488066
49.15 27.4756 5.24171727585531
49.2 27.8085 5.27337652742529
49.25 25.5825 5.05791459002621
49.3 28.1383 5.30455464671635
49.35 21.1547 4.59942387696546
49.4 31.4959 5.61212081124418
49.45 23.1757 4.8141146641932
49.5 33.6959 5.80481696524533
49.55 38.2154 6.18186056135206
49.6 26.1132 5.11010763096043
49.65 32.9034 5.73614853364171
49.7 35.096 5.92418770803222
49.75 20.9159 4.57339042724323
49.8 23.2863 4.82558804706742
49.85 32.0098 5.6577203889906
49.9 38.1588 6.17728095524236
49.95 39.8757 6.31472089644507
50 39.2898 6.26815762405509
50.05 45.3826 6.73666089394442
50.1 35.6426 5.97014237686171
50.15 31.4311 5.60634462016027
50.2 29.5905 5.43971506606734
50.25 35.149 5.92865920761179
50.3 37.6962 6.13972312079299
50.35 43.1226 6.56678003286238
50.4 33.5444 5.79175275715392
50.45 29.8112 5.4599633698405
50.5 33.0954 5.75286015821695
50.55 26.9074 5.18723433054648
50.6 31.3059 5.59516755781272
50.65 36.6794 6.05635203732412
50.7 39.9119 6.31758656450388
50.75 27.3971 5.23422391573001
50.8 34.8105 5.9000423727292
50.85 27.7875 5.27138501724167
50.9 35.6004 5.96660707605252
50.95 40.5997 6.37178938760534
51 29.6708 5.44709096674546
51.05 25.8622 5.08548916034633
51.1 31.0158 5.56918306396908
51.15 39.1132 6.25405468476252
51.2 29.2377 5.40718965822358
51.25 33.5821 5.79500647109216
51.3 30.0993 5.48628289463823
51.35 38.3836 6.19544994330517
51.4 38.0319 6.16700089184362
51.45 33.52 5.78964593045205
51.5 33.6284 5.79899991377824
51.55 30.767 5.54680087978647
51.6 34.0299 5.8335152352591
51.65 36.4751 6.03946189655999
51.7 31.618 5.62298852924315
51.75 30.9411 5.562472471842
51.8 43.6904 6.60987140570828
51.85 27.7861 5.27125222314395
51.9 32.7477 5.72256061566848
51.95 33.3121 5.77166353835703
52 24.2769 4.9271594250643
52.05 18.0648 4.25027057962196
52.1 28.8858 5.37455114404915
52.15 32.7835 5.72568773161792
52.2 29.5184 5.43308383885248
52.25 29.6891 5.44877050351728
52.3 39.9312 6.31911386192716
52.35 29.01 5.38609320379809
52.4 34.5479 5.87774616668668
52.45 34.3432 5.86030715918543
52.5 32.9908 5.7437618335025
52.55 23.4556 4.84309818194924
52.6 32.4932 5.70028069484302
52.65 32.484 5.69947365990931
52.7 36.5496 6.04562651840155
52.75 36.3853 6.0320228779407
52.8 31.227 5.58811238254923
52.85 34.3881 5.86413676511727
52.9 29.8098 5.45983516234694
52.95 35.7131 5.97604384187399
53 37.0793 6.08927746124284
53.05 29.9322 5.47103280926006
53.1 33.3397 5.77405403507795
53.15 33.3809 5.77762061752068
53.2 31.5483 5.61678733797177
53.25 30.2908 5.50370784108314
53.3 27.4547 5.23972327513582
53.35 22.7506 4.76975890376023
53.4 45.3282 6.73262207464521
53.45 23.9299 4.89181970231937
53.5 29.0303 5.38797735704225
53.55 35.4395 5.95310843173547
53.6 32.721 5.72022726821234
53.65 27.1128 5.20699529479334
53.7 34.9181 5.90915391574801
53.75 22.0853 4.69949997340143
53.8 38.0826 6.17111011083095
53.85 24.5038 4.95013131138963
53.9 26.3391 5.13216328656835
53.95 29.9101 5.46901270797573
54 33.3448 5.7744956489723
54.05 26.7462 5.17167284348111
54.1 24.1761 4.91691976749672
54.15 25.8318 5.08249938514507
54.2 41.9148 6.47416403870029
54.25 31.2618 5.59122526822163
54.3 31.6381 5.62477555107757
54.35 31.2373 5.58903390578372
54.4 29.9042 5.46847327871317
54.45 29.6287 5.44322514691428
54.5 33.3865 5.77810522576389
54.55 30.1717 5.49287720598231
54.6 23.1948 4.81609800564731
54.65 35.866 5.98882292274534
54.7 31.387 5.60241019562117
54.75 33.3101 5.77149027548345
54.8 30.8597 5.55515076303065
54.85 33.3012 5.77071919261369
54.9 27.2739 5.22244195755204
54.95 28.4383 5.33275726055481
55 35.8209 5.98505639071179
55.05 22.716 4.76613050597652
55.1 24.2605 4.92549489899238
55.15 37.0516 6.08700254640985
55.2 30.9671 5.56480907129795
55.25 35.7078 5.97560038824552
55.3 27.1584 5.21137218014603
55.35 22.1984 4.71151780215251
55.4 39.5758 6.29092997894588
55.45 40.4059 6.35656353700645
55.5 34.9189 5.90922160694621
55.55 35.7588 5.97986621923936
55.6 32.3797 5.69031633567063
55.65 19.1861 4.38019405962795
55.7 36.1849 6.01538859925109
55.75 27.1558 5.21112271972173
55.8 28.7375 5.36073688964493
55.85 31.233 5.58864921067694
55.9 33.323 5.77260772961406
55.95 33.3488 5.77484198918031
56 29.679 5.44784361009014
56.05 26.2977 5.12812831352727
56.1 25.6613 5.06569837238658
56.15 33.106 5.75378136532837
56.2 30.3194 5.50630547645152
56.25 34.9974 5.91586003891235
56.3 23.6659 4.86476104243569
56.35 31.6684 5.62746834731214
56.4 33.5981 5.79638680558846
56.45 33.6663 5.80226679841594
56.5 33.2025 5.76216105293839
56.55 37.6311 6.1344192879196
56.6 37.1226 6.09283185390833
56.65 28.8273 5.36910607084643
56.7 30.853 5.55454768635575
56.75 33.0827 5.75175625352813
56.8 34.596 5.88183644791319
56.85 33.8042 5.81413794126008
56.9 36.4221 6.03507249335085
56.95 28.2171 5.31197703308288
57 28.7728 5.36402833698704
57.05 33.3806 5.77759465521769
57.1 27.7875 5.27138501724167
57.15 31.0603 5.57317683193347
57.2 35.0517 5.92044761821266
57.25 36.5531 6.04591597692194
57.3 30.3705 5.51094365785026
57.35 25.6379 5.06338819369007
57.4 36.7611 6.06309326994068
57.45 34.9592 5.91263054824162
57.5 22.1746 4.70899139944001
57.55 29.4309 5.42502534556291
57.6 39.3063 6.26947366211869
57.65 20.2505 4.50005555521262
57.7 25.6626 5.06582668475739
57.75 27.5959 5.25317998930172
57.8 39.2205 6.26262724421628
57.85 30.1008 5.4864195975153
57.9 29.9505 5.47270499844455
57.95 23.3912 4.83644497539257
58 39.2145 6.26214819371116
58.05 34.4678 5.87092837633027
58.1 33.7833 5.8123403203873
58.15 28.7712 5.36387919327048
58.2 47.7739 6.91186660750915
58.25 30.1093 5.4871941828224
58.3 26.6269 5.16012596745467
58.35 31.7377 5.63362228055804
58.4 30.1779 5.49344154424164
58.45 35.7043 5.97530752346689
58.5 19.5608 4.42275931970077
58.55 26.7126 5.16842335727251
58.6 29.7169 5.45132094083627
58.65 34.4103 5.86602932144053
58.7 36.6653 6.05518785835749
58.75 34.4694 5.87106463939889
58.8 30.7159 5.54219270686251
58.85 35.8082 5.98399532085379
58.9 29.1266 5.39690652133238
58.95 35.1881 5.93195583260698
59 30.208 5.49618049194165
59.05 33.5857 5.79531707501842
59.1 30.1299 5.48907095964335
59.15 42.5893 6.52604780858982
59.2 35.8901 5.99083466638832
59.25 35.8042 5.98366108665924
59.3 35.3151 5.94265092361986
59.35 28.6673 5.35418527882628
59.4 39.5205 6.28653322587259
59.45 36.4208 6.03496478862967
59.5 35.0314 5.91873297252039
59.55 31.8725 5.6455734872553
59.6 24.0828 4.90742294896211
59.65 38.0325 6.16704953766386
59.7 33.8985 5.82224183626891
59.75 30.6098 5.53261240283467
59.8 29.7569 5.45498854260942
59.85 30.7553 5.54574611752107
59.9 27.4304 5.23740393706653
59.95 40.5241 6.36585422390428
60 23.8951 4.88826144963626
60.05 30.9021 5.558965731141
60.1 41.2169 6.42003894069187
60.15 35.9692 5.99743278411688
60.2 30.9144 5.56007194198061
60.25 34.9576 5.91249524312705
60.3 28.7781 5.36452234593165
60.35 26.4866 5.14651338286417
60.4 39.2717 6.26671365230613
60.45 37.0822 6.08951558007696
60.5 28.7166 5.35878717621814
60.55 35.805 5.9837279349917
60.6 36.57 6.04731345309634
60.65 36.0545 6.00453994907187
60.7 26.6917 5.16640106844213
60.75 23.7993 4.87845262352726
60.8 29.6258 5.44295875420713
60.85 30.5307 5.52545925693059
60.9 25.0216 5.00215953364145
60.95 38.5745 6.21083730265091
61 37.1538 6.09539170193352
61.05 36.0598 6.00498126558277
61.1 25.0366 5.00365866141966
61.15 27.5872 5.25235185416971
61.2 26.6576 5.16309984408591
61.25 30.4402 5.51726381460956
61.3 25.4527 5.0450668974752
61.35 30.7341 5.54383441311156
61.4 29.3497 5.4175363404411
61.45 25.6305 5.06265740496036
61.5 28.9059 5.37642074246426
61.55 32.1847 5.67315608810475
61.6 33.2473 5.76604717289063
61.65 32.4359 5.69525240880507
61.7 29.7921 5.45821399360633
61.75 26.3431 5.13255297098822
61.8 26.3499 5.1332153666099
61.85 33.4747 5.7857324514706
61.9 25.6993 5.06944770167323
61.95 36.1639 6.01364282278221
62 29.3659 5.41903127874346
62.05 20.9291 4.5748333302974
62.1 26.178 5.11644407767739
62.15 28.5429 5.34255556826506
62.2 30.576 5.52955694427682
62.25 36.6589 6.05465936283785
62.3 38.4558 6.20127406264229
62.35 30.0782 5.4843595797504
62.4 30.2217 5.49742667072513
62.45 30.0601 5.48270918433579
62.5 41.7759 6.46342788309733
62.55 24.0643 4.90553768714501
62.6 27.1189 5.20758101233193
62.65 22.7816 4.77300743766443
62.7 34.7153 5.89196911057755
62.75 19.1486 4.37591133365382
62.8 38.8531 6.23322548926316
62.85 19.0581 4.36555838352896
62.9 29.3606 5.41854223938505
62.95 35.4387 5.95304123956823
63 28.4831 5.33695606127688
63.05 36.7827 6.06487427734491
63.1 27.561 5.24985714091346
63.15 29.6158 5.44204005865447
63.2 21.1888 4.60312937033058
63.25 23.2042 4.81707380055569
63.3 39.8855 6.31549681339481
63.35 42.7511 6.53843253387232
63.4 39.0148 6.24618283433971
63.45 34.095 5.83909239522719
63.5 36.1211 6.01008319409973
63.55 24.3396 4.93351801456121
63.6 30.9573 5.56392846826772
63.65 24.1799 4.91730617309925
63.7 28.9832 5.38360474032037
63.75 27.2087 5.21619593190287
63.8 25.5045 5.05019801591977
63.85 41.3195 6.42802457991567
63.9 25.1598 5.01595454524859
63.95 32.4305 5.69477830999592
64 31.4334 5.60654974115097
64.05 22.3183 4.72422480413454
64.1 33.4968 5.78764200689711
64.15 42.548 6.52288279827256
64.2 21.2642 4.61131217767785
64.25 32.5917 5.70891408238029
64.3 34.2521 5.85252936771786
64.35 32.7429 5.72214120762499
64.4 35.7337 5.97776714166753
64.45 38.9331 6.23963941265839
64.5 47.5835 6.89807944285944
64.55 49.4058 7.02892594924715
64.6 38.0802 6.17091565328842
64.65 47.2119 6.87109161632997
64.7 45.8994 6.77490959349274
64.75 64.6193 8.03861306445335
64.8 94.0214 9.69646327276085
64.85 116.41 10.7893465974544
64.9 134.2904 11.5883734837983
64.95 139.5096 11.8114182044325
65 102.5926 10.1288005212858
65.05 76.7996 8.76353809827971
65.1 60.6308 7.78657819584444
65.15 42.2647 6.50113067089103
65.2 47.3745 6.88291362723665
65.25 30.531 5.52548640392862
65.3 28.5555 5.34373464910076
65.35 23.051 4.80114569660201
65.4 28.9175 5.37749941887491
65.45 33.4621 5.78464346351614
65.5 24.7213 4.97205189031651
65.55 21.7215 4.66063300421735
65.6 32.2621 5.6799735914879
65.65 21.2768 4.61267818084028
65.7 23.455 4.84303623773352
65.75 21.486 4.63529934308454
65.8 33.0683 5.75050432570918
65.85 29.4037 5.42251786534632
65.9 34.8467 5.90310935016454
65.95 43.4335 6.59040969894892
66 27.0493 5.20089415389316
66.05 20.8369 4.56474533791317
66.1 25.3436 5.03424274345209
66.15 37.588 6.13090531650914
66.2 26.0757 5.10643711407474
66.25 20.1515 4.48904221410314
66.3 25.079 5.00789376884135
66.35 22.6668 4.76096628847548
66.4 34.5129 5.8747680805288
66.45 28.0689 5.2980090600149
66.5 25.8839 5.08762223440381
66.55 33.0594 5.74973042846358
66.6 26.1929 5.11789995994451
66.65 32.2823 5.68175149051769
66.7 28.5868 5.34666251038907
66.75 32.6821 5.71682604248196
66.8 34.8286 5.90157606068074
66.85 26.2344 5.12195275261301
66.9 16.106 4.01322812708174
66.95 25.6438 5.06397077400729
67 25.0314 5.0031390146587
67.05 33.2278 5.7643559917826
67.1 33.2811 5.76897737905081
67.15 23.3802 4.83530764274622
67.2 27.4423 5.23853987290352
67.25 37.1382 6.0941119123298
67.3 24.9404 4.99403644359951
67.35 31.1088 5.57752633342058
67.4 31.1342 5.5798028639012
67.45 33.3137 5.77180214491107
67.5 26.246 5.12308500807863
67.55 35.6902 5.97412755136681
67.6 25.1968 5.01964142145632
67.65 21.6663 4.65470729477161
67.7 23.5826 4.85619192371965
67.75 22.9931 4.79511209462302
67.8 26.0999 5.10880612276489
67.85 24.4609 4.94579619474964
67.9 35.1385 5.92777361241132
67.95 39.506 6.28537986123353
68 26.8673 5.18336763118342
68.05 21.6763 4.65578135225442
68.1 31.7619 5.63576969011332
68.15 30.1666 5.49241294878672
68.2 31.6629 5.62697965164261
68.25 24.1092 4.91011201501554
68.3 34.3215 5.85845542784103
68.35 21.0617 4.58930277929012
68.4 24.0252 4.90155077500989
68.45 32.4656 5.6978592471208
68.5 38.4823 6.20341035237876
68.55 26.1986 5.11845679868454
68.6 23.1756 4.8141042780563
68.65 29.4778 5.4293461853155
68.7 33.2755 5.76849200398163
68.75 32.3008 5.68337927645164
68.8 29.8303 5.46171218575274
68.85 32.8324 5.72995636981644
68.9 32.3914 5.69134430517079
68.95 26.2354 5.12205037070117
69 26.2593 5.1243828896756
69.05 28.1775 5.30824829863864
69.1 27.4065 5.23512177508795
69.15 30.4624 5.51927531474921
69.2 32.2245 5.67666275200491
69.25 26.8055 5.17740282381041
69.3 24.8498 4.98495737193409
69.35 31.1232 5.57881707891557
69.4 26.8486 5.18156347061386
69.45 27.1091 5.2066399913956
69.5 28.1396 5.3046771815069
69.55 22.4651 4.7397362795835
69.6 30.893 5.55814717329435
69.65 38.4503 6.20083058952589
69.7 23.6956 4.86781265046222
69.75 31.6997 5.63024866235942
69.8 23.3498 4.83216307671833
69.85 37.0802 6.08935136118782
69.9 29.7002 5.44978898674068
69.95 29.9785 5.47526255078238
70 31.0354 5.57094246963653
70.05 25.9455 5.09367254542339
70.1 32.8237 5.72919715143405
70.15 30.0536 5.48211637964755
70.2 25.5957 5.05921930736354
70.25 33.0377 5.74784307371035
70.3 32.3317 5.68609707971997
70.35 33.3978 5.77908297223703
70.4 28.8166 5.3681095368854
70.45 24.4281 4.94247913500907
70.5 24.1241 4.9116290576549
70.55 29.8786 5.46613208768321
70.6 33.4124 5.78034601040457
70.65 23.8481 4.88345164816854
70.7 36.9852 6.08154585611257
70.75 18.6527 4.31887716889471
70.8 38.758 6.22559234129573
70.85 30.6364 5.53501580846884
70.9 25.1638 5.01635325709823
70.95 32.6983 5.7182427370653
71 24.1421 4.91346110191177
71.05 34.6745 5.88850575273558
71.1 27.701 5.26317394734394
71.15 31.104 5.57709601853868
71.2 30.9979 5.567575774069
71.25 31.117 5.57826137788469
71.3 33.5844 5.79520491440984
71.35 31.3321 5.59750837426797
71.4 26.9219 5.18863180424281
71.45 28.9515 5.38065981084105
71.5 28.0881 5.29982075168585
71.55 30.6996 5.54072197461667
71.6 28.123 5.30311229373846
71.65 26.7574 5.17275555192781
71.7 30.7077 5.5414528780817
71.75 24.8414 4.98411476593387
71.8 32.073 5.66330292320656
71.85 30.4495 5.51810655931906
71.9 36.3355 6.02789349607307
71.95 25.9678 5.09586106561001
72 31.3187 5.59631128512344
72.05 22.483 4.74162419430304
72.1 28.8827 5.37426274013469
72.15 34.2959 5.8562701440422
72.2 34.1033 5.83980307887175
72.25 39.6093 6.29359197914831
72.3 28.9417 5.37974906477988
72.35 28.0659 5.29772592722576
72.4 21.7543 4.66415051215117
72.45 33.4878 5.78686443594456
72.5 27.948 5.28658680057369
72.55 30.5519 5.52737731659419
72.6 29.534 5.43451929796923
72.65 31.793 5.63852817674967
72.7 28.1935 5.30975517326364
72.75 23.864 4.8850793238186
72.8 26.7481 5.17185653319966
72.85 26.4529 5.14323827952779
72.9 32.0732 5.66332058071941
72.95 23.4768 4.84528636924589
73 32.5776 5.70767903792776
73.05 36.348 6.02893025337
73.1 22.8921 4.78456894610162
73.15 29.4752 5.42910674052371
73.2 31.3682 5.6007320950033
73.25 31.2625 5.59128786595718
73.3 39.3754 6.27498207168754
73.35 36.3093 6.02571987400676
73.4 38.4791 6.20315242437263
73.45 22.2019 4.711889217713
73.5 32.058 5.66197845280252
73.55 26.8543 5.18211346846053
73.6 33.5782 5.79466996471758
73.65 22.3184 4.72423538786966
73.7 23.6494 4.86306487721478
73.75 32.6506 5.71407035308457
73.8 34.3497 5.86086171138682
73.85 36.5082 6.042201585515
73.9 33.9406 5.82585616025662
73.95 34.1672 5.84527159334791
74 27.8147 5.27396435331146
74.05 31.7317 5.63308973832301
74.1 26.2966 5.12802106079919
74.15 32.6793 5.71658114610472
74.2 29.4859 5.43009208025057
74.25 30.6986 5.54063173293443
74.3 41.5279 6.44421445949776
74.35 35.4294 5.95226007496312
74.4 36.5592 6.04642042865033
74.45 32.3287 5.68583327226538
74.5 23.9124 4.89003067475041
74.55 27.4005 5.23454869114807
74.6 37.0826 6.08954842332336
74.65 28.5598 5.34413697429248
74.7 24.2119 4.9205589113433
74.75 33.5161 5.78930911249348
74.8 26.5579 5.15343574714966
74.85 22.3127 4.72363207712032
74.9 22.3587 4.72849870466303
74.95 21.3089 4.61615640982842
75 22.2764 4.71978813083808
75.05 32.3362 5.6864927679546
75.1 25.472 5.046979294588
75.15 24.1446 4.91371549847974
75.2 35.5209 5.95994127487847
75.25 20.8561 4.56684792827613
75.3 27.6926 5.26237588927283
75.35 29.6698 5.44699917385711
75.4 17.3039 4.15979566805871
75.45 33.6164 5.79796516029546
75.5 36.3657 6.0303979968158
75.55 36.634 6.05260274592675
75.6 32.8531 5.73176238167634
75.65 20.7225 4.55219727164806
75.7 43.2298 6.57493726205809
75.75 24.0561 4.9047018257994
75.8 25.093 5.00929136704983
75.85 38.701 6.22101277928281
75.9 30.8682 5.55591576610013
75.95 25.7221 5.0716959688057
76 21.0495 4.5879734088157
76.05 24.9516 4.99515765516965
76.1 39.0272 6.24717536171348
76.15 24.2837 4.92784942951791
76.2 32.294 5.68278100932985
76.25 35.0852 5.92327612052655
76.3 31.3799 5.60177650393159
76.35 32.3952 5.69167813566438
76.4 34.3655 5.86220948107452
76.45 43.071 6.56284999066716
76.5 39.2133 6.26205237921243
76.55 28.3617 5.3255703919862
76.6 44.163 6.64552480997551
76.65 26.8315 5.17991312668465
76.7 23.6154 4.85956788202408
76.75 28.3837 5.32763549804226
76.8 22.2178 4.71357613707469
76.85 43.6048 6.60339306720416
76.9 27.5721 5.25091420611687
76.95 25.2386 5.02380334010001
77 34.8949 5.90719053357855
77.05 50.5198 7.10772818838762
77.1 40.5188 6.36543792680441
77.15 25.4205 5.04187465135737
77.2 27.1477 5.21034547798896
77.25 45.2626 6.72774850897386
77.3 29.6578 5.44589753851466
77.35 34.5035 5.87396799446507
77.4 21.4831 4.63498651562224
77.45 26.2423 5.12272388480972
77.5 38.0928 6.17193648703549
77.55 35.1117 5.92551263605099
77.6 32.6386 5.71302021701306
77.65 25.5919 5.05884374140969
77.7 29.6898 5.44883473781321
77.75 32.369 5.6893760642095
77.8 30.9133 5.55997302151728
77.85 39.1354 6.25582928155812
77.9 26.8352 5.18027026321986
77.95 27.6772 5.26091246838417
78 27.8894 5.28104156393414
78.05 31.3927 5.60291888215419
78.1 31.5991 5.62130767704455
78.15 34.7858 5.89794879597984
78.2 26.7274 5.16985493026642
78.25 29.0621 5.39092756397264
78.3 31.6509 5.62591325919623
78.35 39.0132 6.24605475480323
78.4 32.9669 5.74168093854056
78.45 35.6573 5.97137337636829
78.5 31.3761 5.60143731554679
78.55 31.2042 5.58607196516479
78.6 29.0159 5.38664088277658
78.65 24.3324 4.9327882581761
78.7 28.9229 5.37800148754163
78.75 35.2668 5.93858569021278
78.8 29.3805 5.42037821558607
78.85 33.235 5.76498048565648
78.9 26.1038 5.10918780238112
78.95 29.6182 5.44226055973067
79 23.0139 4.79728047960509
79.05 31.0524 5.57246803490159
79.1 24.7776 4.97771031700319
79.15 34.1631 5.84492087200503
79.2 33.4843 5.78656201902304
79.25 29.4108 5.42317250324937
79.3 34.0265 5.83322380849561
79.35 37.6943 6.13956838873874
79.4 23.1486 4.81129920083962
79.45 30.0079 5.47794669561506
79.5 31.6638 5.62705962292919
79.55 28.6701 5.35444675013208
79.6 23.8137 4.87992827816147
79.65 31.5148 5.61380441412061
79.7 33.0947 5.75279931859265
79.75 29.9447 5.47217507029883
79.8 37.0778 6.08915429267481
79.85 29.1584 5.39985184981959
79.9 35.2212 5.93474515038346
79.95 24.5511 4.95490665906029
80 30.0983 5.48619175749445
80.05 35.1814 5.93139106786932
80.1 36.0331 6.00275769959108
80.15 28.02 5.29339210714642
80.2 22.4263 4.73564145602262
80.25 27.2964 5.22459567813625
80.3 31.599 5.62129878231001
80.35 24.8179 4.98175671826716
80.4 32.2712 5.68077459507064
80.45 35.1809 5.93134891909083
80.5 38.5699 6.21046697117053
80.55 35.0238 5.91809090839267
80.6 29.5315 5.43428928195767
80.65 31.5291 5.61507791575504
80.7 31.6866 5.62908518322471
80.75 19.6232 4.42980812225541
80.8 26.0757 5.10643711407474
80.85 32.4021 5.69228425151099
80.9 34.9783 5.91424551401106
80.95 28.1614 5.30673157414241
81 29.6588 5.44598934997122
81.05 25.4796 5.0477321640515
81.1 20.2313 4.49792174231611
81.15 31.6667 5.62731730045499
81.2 31.3057 5.59514968521844
81.25 34.6698 5.88810665664269
81.3 34.4826 5.87218868906645
81.35 26.7397 5.17104438194065
81.4 27.7079 5.26382940453051
81.45 45.1971 6.72287884763663
81.5 22.3282 4.7252724789159
81.55 43.9097 6.62643946625939
81.6 37.0805 6.08937599430352
81.65 39.6452 6.29644344054642
81.7 30.8849 5.55741846543879
81.75 34.561 5.87886043379157
81.8 55.9878 7.48249958235883
81.85 50.4581 7.10338651630333
81.9 60.4128 7.77256714348612
81.95 74.4457 8.62819216290412
82 111.0981 10.5403083446358
82.05 171.2673 13.0869133106321
82.1 232.7908 15.2574834097894
82.15 259.8618 16.1202295269019
82.2 281.9145 16.7903097053032
82.25 186.4878 13.6560536027068
82.3 109.7922 10.4781773224163
82.35 60.6529 7.78799717514073
82.4 76.9676 8.77311803180602
82.45 35.5413 5.96165245548581
82.5 43.0605 6.56204998457037
82.55 53.75 7.33143914930759
82.6 32.7773 5.72514628634064
82.65 30.7546 5.54568300572617
82.7 39.0565 6.24951998156658
82.75 26.0381 5.1027541582953
82.8 28.8578 5.37194564380542
82.85 29.5573 5.43666257919323
82.9 33.9667 5.8280957438944
82.95 24.6662 4.96650782743771
83 21.1224 4.5959112262967
83.05 23.7487 4.8732637933935
83.1 35.5701 5.96406740404566
83.15 29.6703 5.44704507049464
83.2 26.5837 5.1559383239135
83.25 40.716 6.3809090261498
83.3 26.9894 5.19513233710172
83.35 32.2377 5.67782528790733
83.4 26.5298 5.15070868910289
83.45 29.0889 5.39341264877814
83.5 28.1664 5.30720265299904
83.55 21.2283 4.6074179319875
83.6 33.0932 5.75266894580246
83.65 26.6381 5.16121109818229
83.7 26.8104 5.17787601242054
83.75 20.1423 4.48801737964549
83.8 36.5659 6.04697445008659
83.85 34.2764 5.85460502510631
83.9 37.8726 6.1540718227853
83.95 28.4042 5.32955908119987
84 42.2735 6.50180744101208
84.05 24.0184 4.90085706790149
84.1 34.0101 5.83181789839155
84.15 34.7083 5.89137505171755
84.2 34.1439 5.84327818950972
84.25 34.9937 5.91554731195686
84.3 29.4316 5.42508986100691
84.35 29.3432 5.41693640354029
84.4 24.6903 4.96893348717811
84.45 26.306 5.12893751180495
84.5 31.78 5.63737527578216
84.55 26.8155 5.17836846892919
84.6 34.7162 5.89204548522837
84.65 35.6292 5.9690200200703
84.7 32.5842 5.70825717710756
84.75 27.9885 5.29041586267091
84.8 29.4909 5.4305524580838
84.85 18.8958 4.34692995112643
84.9 27.2669 5.22177172997825
84.95 27.5981 5.25338938210371
85 25.6777 5.06731684424805
85.05 32.0106 5.6577910884019
85.1 35.5364 5.96124148143656
85.15 35.8422 5.9868355581225
85.2 24.6954 4.96944664927595
85.25 33.827 5.81609834854948
85.3 28.0236 5.29373214282702
85.35 26.3264 5.13092584237972
85.4 38.4401 6.20000806451088
85.45 23.7179 4.8701026683223
85.5 31.6638 5.62705962292919
85.55 34.8397 5.90251641251424
85.6 35.9342 5.99451415879552
85.65 32.8888 5.73487576151393
85.7 29.7999 5.45892846628347
85.75 27.4908 5.24316698189176
85.8 24.5453 4.9543213460574
85.85 23.6536 4.86349668448535
85.9 31.5616 5.61797116404134
85.95 21.4259 4.62881194260471
86 24.0062 4.8996122295545
86.05 36.6375 6.05289187083331
86.1 25.5228 5.05200950117871
86.15 24.8732 4.98730388085587
86.2 29.455 5.42724607881382
86.25 25.6264 5.062252463084
86.3 30.3421 5.50836636399577
86.35 37.4406 6.1188724451487
86.4 37.1593 6.09584284574332
86.45 38.7272 6.22311818946097
86.5 36.5449 6.04523779515744
86.55 33.0233 5.74659029338268
86.6 29.6255 5.44293119559673
86.65 27.1124 5.20695688478405
86.7 22.3503 4.7276103900385
86.75 31.8633 5.64475863080079
86.8 37.5739 6.12975529691031
86.85 31.3827 5.60202641907373
86.9 37.8553 6.1526660887781
86.95 29.3714 5.41953872575886
87 31.4878 5.61139911252087
87.05 25.5535 5.05504698296663
87.1 25.5495 5.05465132328631
87.15 29.7446 5.45386101766446
87.2 33.3321 5.77339588110845
87.25 26.3542 5.13363419031781
87.3 30.343 5.50844805730253
87.35 32.4074 5.69274977493302
87.4 32.8531 5.73176238167634
87.45 25.1361 5.01359152703927
87.5 33.6686 5.80246499343167
87.55 33.5949 5.79611076498716
87.6 26.4059 5.13866714236289
87.65 33.5833 5.79511000758398
87.7 29.2586 5.40912192504477
87.75 34.8518 5.90354131009515
87.8 32.0759 5.66355895175463
87.85 29.9275 5.47060325741138
87.9 24.8477 4.98474673378698
87.95 38.6624 6.21790961658337
88 28.7389 5.36086746711761
88.05 23.3606 4.83328045948091
88.1 19.3015 4.39334724327591
88.15 31.6543 5.6262154242439
88.2 35.3776 5.94790719497203
88.25 31.1247 5.57895151439766
88.3 41.4227 6.43604692338395
88.35 40.3838 6.35482493858013
88.4 19.5219 4.41835942403965
88.45 37.725 6.14206805563077
88.5 35.8705 5.98919861083267
88.55 30.0056 5.47773675891787
88.6 22.2363 4.71553814532339
88.65 35.3863 5.9486384996905
88.7 31.2082 5.58642998703107
88.75 27.6225 5.25571117927917
88.8 35.001 5.91616429792142
88.85 31.2397 5.58924860781841
88.9 30.8959 5.55840804547489
88.95 29.9139 5.46936010882443
89 30.2964 5.50421656550685
89.05 36.3771 6.03134313399594
89.1 31.7149 5.63159835215545
89.15 33.7762 5.81172951882656
89.2 27.8185 5.27432460131153
89.25 23.8221 4.88078887066425
89.3 34.8309 5.90177092066441
89.35 32.1523 5.6702998157064
89.4 24.4468 4.94437053627658
89.45 32.8694 5.7331841065851
89.5 34.3572 5.86150151411735
89.55 27.6334 5.25674804418093
89.6 23.9269 4.89151305834912
89.65 24.4192 4.94157869511354
89.7 34.1534 5.84409103282966
89.75 28.8652 5.37263436314067
89.8 26.3159 5.12990253318716
89.85 30.0319 5.48013685960488
89.9 34.1749 5.8459302082731
89.95 29.5899 5.43965991584033
90 27.1443 5.21001919382261
90.05 36.8572 6.07101309502788
90.1 33.429 5.78178173230363
90.15 28.6992 5.35716342853193
90.2 39.4687 6.28241195720242
90.25 26.8034 5.17720001545237
90.3 33.9776 5.829030794223
90.35 24.4011 4.93974695708191
90.4 30.8156 5.5511800547271
90.45 25.9903 5.09806826160655
90.5 26.2803 5.12643150739381
90.55 34.0463 5.83492073639394
90.6 27.7062 5.26366792265622
90.65 33.292 5.76992200987154
90.7 28.2555 5.31559027766437
90.75 26.2534 5.1238071782611
90.8 33.2965 5.7703119499729
90.85 36.4986 6.04140712086183
90.9 36.1135 6.00945089005643
90.95 29.5125 5.43254084200018
91 36.2378 6.01978404928283
91.05 35.2761 5.93936865331661
91.1 34.6327 5.88495539490318
91.15 38.6807 6.219380998138
91.2 28.8253 5.36891981687192
91.25 39.9893 6.32370935448491
91.3 20.3905 4.51558412611259
91.35 26.9534 5.19166639914392
91.4 31.281 5.59294198074681
91.45 36.6 6.04979338490167
91.5 24.0603 4.90512996769708
91.55 32.8291 5.72966840227251
91.6 22.71 4.76550102297754
91.65 27.3436 5.22911082307499
91.7 31.541 5.61613746270513
91.75 21.4556 4.63201899823392
91.8 33.2908 5.76981802139374
91.85 29.2664 5.40984288126744
91.9 32.436 5.69526118804046
91.95 16.9335 4.11503341420213
92 26.1555 5.11424481228656
92.05 31.8952 5.64758355405212
92.1 26.2685 5.12528048012984
92.15 32.2957 5.68293058201488
92.2 32.666 5.71541774501217
92.25 19.5393 4.42032804212538
92.3 31.8021 5.63933506718656
92.35 29.8268 5.46139176401034
92.4 43.6436 6.60633029752525
92.45 32.6615 5.71502405944192
92.5 31.3984 5.60342752250799
92.55 35.7058 5.97543303870104
92.6 40.6656 6.37695852268148
92.65 37.9009 6.15637068409627
92.7 28.5245 5.34083326832059
92.75 31.0116 5.56880597614964
92.8 26.266 5.12503658523527
92.85 24.0862 4.90776935073359
92.9 30.2818 5.50289014973041
92.95 22.6377 4.75790920468224
93 29.1571 5.39973147480502
93.05 29.6397 5.44423548351832
93.1 29.6438 5.44461201556181
93.15 37.5666 6.1291598119155
93.2 24.9604 4.99603843059679
93.25 32.438 5.69543676990624
93.3 32.0947 5.66521844239037
93.35 38.3586 6.19343200495493
93.4 24.3507 4.93464284421882
93.45 23.2212 4.8188380342153
93.5 33.6946 5.80470498819707
93.55 26.1198 5.1107533691228
93.6 33.3078 5.77129101674833
93.65 25.6968 5.06920112049226
93.7 28.791 5.36572455498789
93.75 36.2964 6.0246493673906
93.8 31.6905 5.62943158764719
93.85 18.8261 4.33890539191626
93.9 36.1715 6.01427468611137
93.95 29.2737 5.41051753531952
94 30.1743 5.4931138710207
94.05 29.6167 5.44212274760502
94.1 32.2505 5.67895236817496
94.15 37.9424 6.15974025426397
94.2 19.8233 4.45233646527304
94.25 37.9863 6.16330268606045
94.3 27.5749 5.25118081958715
94.35 24.8062 4.98058229527432
94.4 41.0662 6.40829150398138
94.45 32.8237 5.72919715143405
94.5 25.9471 5.09382960060503
94.55 30.5615 5.52824565300783
94.6 32.3906 5.69127402257175
94.65 22.5467 4.74833655083546
94.7 28.5918 5.34713007135604
94.75 30.0205 5.47909664087065
94.8 24.7582 4.97576124829156
94.85 39.1438 6.25650061935584
94.9 31.5844 5.62
94.95 28.8234 5.3687428696111
95 34.6199 5.88386777553677
95.05 30.1254 5.48866103890557
95.1 32.2013 5.67461892993706
95.15 22.5148 4.74497629077322
95.2 33.4433 5.78301824309763
95.25 33.9461 5.82632817475981
95.3 25.2889 5.02880701558531
95.35 28.7423 5.36118457059632
95.4 27.758 5.26858614810463
95.45 28.0965 5.30061317207736
95.5 24.9796 4.99795958367012
95.55 30.0642 5.48308307432962
95.6 24.8576 4.98573966428252
95.65 28.7591 5.36275115961947
95.7 29.3999 5.42216746329362
95.75 28.4265 5.33165077626058
95.8 27.1221 5.20788824764895
95.85 46.1799 6.79557944549249
95.9 33.0311 5.74726891662466
95.95 19.5375 4.42012443263762
96 31.1779 5.58371739972574
96.05 27.8921 5.28129718913829
96.1 25.0076 5.00075994224878
96.15 18.9486 4.35299896623006
96.2 28.0421 5.29547920400033
96.25 24.4792 4.94764590487234
96.3 29.4788 5.42943827665441
96.35 30.5726 5.52924949699324
96.4 30.7736 5.54739578541138
96.45 32.1322 5.66852714556436
96.5 23.7409 4.87246344265403
96.55 28.0161 5.29302371050801
96.6 27.5343 5.24731359840443
96.65 29.5006 5.43144547979633
96.7 39.6947 6.30037300483075
96.75 23.5499 4.85282392015206
96.8 29.8846 5.46668089429043
96.85 30.2367 5.49879077616161
96.9 24.5306 4.9528375705246
96.95 34.3011 5.85671409580492
97 28.6266 5.35038316384911
97.05 39.3016 6.26909881880961
97.1 26.8239 5.1791794716924
97.15 36.1671 6.01390887859136
97.2 28.549 5.34312642560514
97.25 31.3921 5.60286533837821
97.3 33.5731 5.79422988843211
97.35 39.3363 6.27186575111426
97.4 18.9294 4.3507930311611
97.45 33.5871 5.79543786093855
97.5 21.8775 4.67733898707374
97.55 35.5651 5.96364821229422
97.6 30.3095 5.50540643367953
97.65 29.1501 5.39908325551662
97.7 28.7734 5.36408426481166
97.75 38.5884 6.21195621362546
97.8 24.473 4.9470193045914
97.85 31.1869 5.58452325628607
97.9 22.2042 4.71213327485546
97.95 23.3022 4.82723523354725
98 25.26 5.02593274925163
98.05 27.2938 5.22434684912861
98.1 35.344 5.94508200111655
98.15 32.3989 5.69200316233222
98.2 25.5193 5.05166309248746
98.25 43.9032 6.62594898863551
98.3 40.61 6.37259758654193
98.35 41.7432 6.46089777043407
98.4 51.223 7.15702452140553
98.45 47.6078 6.89984057786845
98.5 52.9312 7.27538315142234
98.55 75.1197 8.66716216532263
98.6 82.4284 9.07900875646675
98.65 116.1085 10.7753654230379
98.7 120.5906 10.9813751415749
98.75 114.6185 10.7060029889777
98.8 99.9512 9.99755970224734
98.85 91.5957 9.57056424668891
98.9 68.7999 8.29457051329362
98.95 46.9898 6.85491064857887
99 35.3759 5.94776428584725
99.05 36.4176 6.03469966112648
99.1 30.6378 5.53514227459421
99.15 25.7971 5.07908456318656
99.2 27.2162 5.21691479708074
99.25 32.8957 5.73547731230802
99.3 39.398 6.27678261532132
99.35 19.5361 4.41996606321813
99.4 26.794 5.17629210922258
99.45 30.1755 5.49322309759944
99.5 24.1324 4.91247391850583
99.55 27.553 5.24909516012046
99.6 30.4918 5.52193806557082
99.65 26.2198 5.12052731659543
99.7 33.5616 5.79323743687414
99.75 25.4826 5.04802931845686
99.8 26.4953 5.14735854589517
99.85 27.6596 5.2592394887474
99.9 23.589 4.85685083155742
99.95 41.1873 6.41773324469006
100 26.8682 5.18345444660219
100.05 31.6513 5.62594880886771
100.1 30.5037 5.52301548069531
100.15 24.6679 4.96667897090198
100.2 23.8544 4.88409664114051
100.25 32.5827 5.70812578698122
100.3 29.6116 5.44165416027149
100.35 34.3893 5.86423908107437
100.4 35.3136 5.94252471597721
100.45 31.9639 5.65366252972354
100.5 25.1188 5.01186591999427
100.55 28.25 5.31507290636732
100.6 27.8182 5.27429616157455
100.65 20.3044 4.5060403904093
100.7 26.9396 5.19033717594532
100.75 27.5364 5.2475136969807
100.8 19.9296 4.46425805705719
100.85 24.9918 4.99917993274897
100.9 30.8531 5.5545566879815
100.95 22.2543 4.71744634309708
101 38.8285 6.23125188064164
101.05 41.0843 6.40970358128986
101.1 25.6988 5.06939838639656
101.15 30.0708 5.48368489247878
101.2 44.6696 6.68353200037226
101.25 38.0057 6.16487631668308
101.3 23.9449 4.89335263393106
101.35 32.9336 5.73878035822944
101.4 31.7315 5.63307198604811
101.45 29.8378 5.46239874048023
101.5 29.7363 5.45310003575948
101.55 37.7276 6.14227970707945
101.6 36.0423 6.00352396513914
101.65 32.1958 5.6741342952031
101.7 22.4486 4.73799535668831
101.75 41.4769 6.44025620608373
101.8 34.773 5.89686357312088
101.85 31.739 5.6337376580739
101.9 36.5577 6.04629638704554
101.95 35.975 5.99791630485121
102 28.1192 5.30275400146
102.05 31.0441 5.57172325228021
102.1 25.681 5.06764244989719
102.15 31.977 5.65482095207267
102.2 28.9257 5.3782618009911
102.25 29.9271 5.47056669824983
102.3 24.4636 4.94606914630194
102.35 33.2999 5.77060655390748
102.4 27.4506 5.23933201849243
102.45 34.6254 5.88433513661484
102.5 29.7178 5.45140348901088
102.55 33.0125 5.74565052887835
102.6 34.4262 5.86738442578974
102.65 25.8536 5.08464354699521
102.7 34.7684 5.89647352236911
102.75 28.0719 5.29829217767386
102.8 28.7273 5.35978544346693
102.85 32.2233 5.67655705511712
102.9 35.6073 5.96718526610327
102.95 30.5017 5.5228344172173
103 34.1796 5.84633218351472
103.05 31.4653 5.60939390665337
103.1 32.8704 5.73327131749405
103.15 31.8764 5.6459188800407
103.2 39.299 6.26889144905222
103.25 37.5437 6.12729140811827
103.3 21.7492 4.66360375675293
103.35 24.8597 4.98595026048195
103.4 37.1064 6.09150227776367
103.45 32.3682 5.68930575729588
103.5 32.8726 5.73346317682428
103.55 28.1435 5.30504476889687
103.6 21.2224 4.60677761564415
103.65 38.4791 6.20315242437263
103.7 36.7142 6.05922437280548
103.75 33.4141 5.78049305855478
103.8 27.3204 5.22689200194532
103.85 28.1887 5.30930315578231
103.9 34.266 5.85371676800304
103.95 31.7291 5.63285895438542
104 19.9343 4.46478442928659
104.05 21.4418 4.63052912743241
104.1 32.228 5.67697102335392
104.15 34.8804 5.90596308826935
104.2 39.7613 6.30565619107163
104.25 32.0369 5.66011483982437
104.3 33.8138 5.81496345646299
104.35 28.8211 5.36852866249217
104.4 45.6797 6.75867590582653
104.45 34.1515 5.84392847321047
104.5 31.9367 5.65125649745258
104.55 29.1538 5.39942589540777
104.6 32.907 5.73646232446444
104.65 36.8628 6.07147428554219
104.7 29.7841 5.45748110395263
104.75 30.9362 5.56203200278459
104.8 29.0123 5.3863067123958
104.85 32.9176 5.73738616444806
104.9 23.5692 4.85481204579539
104.95 33.582 5.79499784296767
105 26.2147 5.12002929679118
105.05 31.482 5.6108822835629
105.1 31.5216 5.614410031339
105.15 41.5727 6.44768950865347
105.2 29.6144 5.44191142890069
105.25 24.6253 4.96238853779105
105.3 42.6185 6.52828461389361
105.35 37.776 6.14621834952192
105.4 32.9867 5.74340491346379
105.45 45.2924 6.72996285279495
105.5 31.336 5.59785673271476
105.55 22.4131 4.7342475642915
105.6 23.6143 4.85945470191872
105.65 28.7182 5.35893646164983
105.7 35.7578 5.97978260474409
105.75 27.2725 5.22230791891861
105.8 31.8717 5.64550263484129
105.85 28.6493 5.35250408687373
105.9 32.5448 5.70480499228501
105.95 34.1092 5.84030821104503
106 35.3 5.94138031100518
106.05 25.7036 5.06987179325079
106.1 36.2918 6.02426759033826
106.15 36.7558 6.06265618355519
106.2 27.5513 5.24893322495152
106.25 40.2081 6.34098572778712
106.3 31.2983 5.59448835909058
106.35 30.6961 5.54040612229826
106.4 26.7062 5.16780417585651
106.45 27.6433 5.25768960666185
106.5 36.1876 6.01561301946859
106.55 21.7296 4.66150190389321
106.6 29.923 5.47019195275632
106.65 36.8636 6.07154016704164
106.7 29.8827 5.46650711149268
106.75 36.5157 6.04282218834875
106.8 34.1202 5.84124986625294
106.85 28.6528 5.35283102666243
106.9 24.7436 4.97429391974379
106.95 25.5934 5.05899199445898
107 34.8068 5.89972880732666
107.05 24.9751 4.99750937968104
107.1 28.6784 5.35522175077746
107.15 32.3463 5.68738076798099
107.2 31.9484 5.65229157068175
107.25 36.4236 6.0351967656407
107.3 38.0704 6.17012155471835
107.35 25.5209 5.05182145369371
107.4 25.7356 5.0730267099632
107.45 20.5323 4.53125810344103
107.5 24.681 4.96799758454048
107.55 27.9989 5.29139868087824
107.6 21.3856 4.62445672484888
107.65 25.7082 5.07032543334252
107.7 26.7575 5.17276521794678
107.75 27.9836 5.28995274080969
107.8 34.9757 5.91402570166887
107.85 28.2744 5.31736776986509
107.9 41.3561 6.43087085860072
107.95 34.3723 5.86278943848404
108 28.9715 5.38251799811204
108.05 31.286 5.59338895482873
108.1 36.8295 6.06873133364792
108.15 35.0516 5.92043917289925
108.2 32.8161 5.72853384383823
108.25 28.2943 5.31923866732825
108.3 25.3579 5.03566281635298
108.35 27.1849 5.21391407677572
108.4 32.034 5.65985865547895
108.45 34.5522 5.87811194177178
108.5 30.1516 5.49104725894797
108.55 33.0283 5.74702531750122
108.6 33.975 5.82880776831763
108.65 24.8673 4.98671234381932
108.7 22.9244 4.7879431909746
108.75 32.9674 5.74172447963153
108.8 21.5903 4.64653634441828
108.85 36.9786 6.08100320670858
108.9 24.4366 4.94333895257042
108.95 27.7715 5.26986717100156
109 36.0244 6.00203298891301
109.05 21.1302 4.59675972833038
109.1 30.8125 5.55090082779363
109.15 28.3418 5.32370171966837
109.2 38.7517 6.2250863447827
109.25 29.5885 5.4395312298028
109.3 35.5959 5.96622996539691
109.35 27.9774 5.28936669176944
109.4 29.1801 5.40186079050543
109.45 25.3002 5.02993041701374
109.5 27.3586 5.23054490469205
109.55 22.9461 4.79020876371792
109.6 28.0315 5.29447825569243
109.65 32.8222 5.72906624154408
109.7 35.0269 5.91835281138257
109.75 31.8182 5.64076235982336
109.8 23.8185 4.88042006388794
109.85 29.6453 5.44474976468157
109.9 26.0549 5.10440006269101
109.95 35.7782 5.98148810915812
110 25.2951 5.02942342619907
110.05 33.5753 5.79441972936031
110.1 27.1422 5.20981765515838
110.15 22.598 4.75373537336693
110.2 29.5994 5.44053306211809
110.25 42.4359 6.51428430451113
110.3 20.8536 4.56657420830977
110.35 36.4943 6.04105123302228
110.4 28.4364 5.33257911333718
110.45 32.7427 5.72212373162273
110.5 44.1147 6.64188979131693
110.55 25.1748 5.01744955131589
110.6 22.198 4.71147535279556
110.65 31.638 5.62476666182696
110.7 30.0743 5.48400401166885
110.75 25.429 5.04271752133708
110.8 31.1864 5.58447848952792
110.85 19.4225 4.40709654988406
110.9 27.7334 5.26625103845231
110.95 34.6803 5.8889982170145
111 34.065 5.83652293750312
111.05 28.9778 5.38310319425515
111.1 26.7003 5.16723330226147
111.15 30.5257 5.52500678732615
111.2 25.4967 5.04942570991989
111.25 27.6984 5.26292694230121
111.3 19.7822 4.44771851627326
111.35 24.1382 4.91306421696277
111.4 26.7999 5.17686198386629
111.45 36.3594 6.02987562060778
111.5 31.65 5.62583327161408
111.55 26.3252 5.13080890308731
111.6 34.069 5.83686559721911
111.65 36.418 6.03473280270138
111.7 34.8011 5.89924571449605
111.75 31.212 5.58677008655269
111.8 27.6002 5.25358924926569
111.85 36.5215 6.04330207750697
111.9 37.0207 6.08446382189918
111.95 30.8084 5.5505315060812
112 22.3156 4.72393903432295
112.05 26.3541 5.13362445061966
112.1 36.1514 6.01260342946381
112.15 37.0846 6.08971263689839
112.2 28.8849 5.37446741547476
112.25 31.4685 5.60967913520907
112.3 32.3432 5.68710822826505
112.35 33.8525 5.8182901268328
112.4 26.51 5.1487862647424
112.45 38.4036 6.19706382087517
112.5 24.1613 4.9154145298235
112.55 27.447 5.23898845198193
112.6 41.8169 6.4665987968947
112.65 31.8162 5.640585076036
112.7 29.4713 5.42874755353387
112.75 32.6621 5.71507655241817
112.8 24.9462 4.99461710244139
112.85 35.4033 5.95006722651097
112.9 35.5903 5.96576063884565
112.95 21.8363 4.67293269799598
113 24.607 4.9605443249708
113.05 34.7171 5.89212185888921
113.1 31.5135 5.61368862691902
113.15 27.2777 5.22280575935962
113.2 42.6098 6.52761824864169
113.25 27.5709 5.25079993905691
113.3 34.1586 5.84453590971944
113.35 37.6184 6.13338405776126
113.4 31.2217 5.58763814146908
113.45 17.6681 4.20334390693885
113.5 29.6755 5.44752237260206
113.55 31.1017 5.57688981422441
113.6 23.6964 4.86789482219984
113.65 24.7668 4.9766253626328
113.7 19.9172 4.46286903236024
113.75 38.0016 6.16454377873984
113.8 28.0214 5.29352434583992
113.85 31.421 5.6054437826099
113.9 29.4342 5.42532948308211
113.95 35.4902 5.9573651894105
114 32.3256 5.68556065836959
114.05 33.7493 5.80941477259113
114.1 25.9001 5.08921408470895
114.15 33.7318 5.80790840148155
114.2 32.1246 5.66785673778016
114.25 28.0378 5.29507318174168
114.3 24.1507 4.91433617083732
114.35 33.7282 5.80759847096887
114.4 26.493 5.14713512548486
114.45 34.0032 5.83122628612541
114.5 38.401 6.19685404055961
114.55 22.756 4.77032493652162
114.6 29.4599 5.42769748604323
114.65 29.7738 5.45653736356675
114.7 31.7816 5.63751718400929
114.75 33.5727 5.79419537123145
114.8 31.4459 5.6076643979468
114.85 29.5697 5.43780286512853
114.9 29.6156 5.44202168316151
114.95 37.9558 6.16082786644782
115 21.4224 4.6284338603895
115.05 37.0608 6.08775820807627
115.1 43.7791 6.61657766522845
115.15 30.1184 5.4880233235656
115.2 30.2644 5.50130893515352
115.25 32.6263 5.7119436271728
115.3 37.8524 6.15243041407215
115.35 35.0005 5.91612204066143
115.4 43.6388 6.60596699961482
115.45 41.6988 6.45746080127476
115.5 46.2723 6.80237458539296
115.55 34.581 5.88056119770894
115.6 36.7772 6.0644208297248
115.65 35.4522 5.95417500582574
115.7 53.9861 7.34752339227307
115.75 34.2358 5.8511366417133
115.8 51.0341 7.14381550713623
115.85 60.0803 7.75114830202596
115.9 70.9615 8.42386490869838
115.95 80.7573 8.98650655149152
116 90.8161 9.52974816036604
116.05 90.5471 9.51562399425282
116.1 95.8388 9.789729311886
116.15 94.3216 9.71193080700228
116.2 90.0134 9.48753919622997
116.25 68.7418 8.29106748253806
116.3 65.2319 8.07662677112172
116.35 55.8151 7.47095040808062
116.4 45.0843 6.71448434356653
116.45 59.2437 7.69699291931596
116.5 63.2531 7.95318175323562
116.55 36.4578 6.03802947988829
116.6 35.9319 5.99432231365648
116.65 37.631 6.13441113718342
116.7 25.468 5.04658300238884
116.75 35.9561 5.99634055070257
116.8 26.2973 5.12808931279478
116.85 23.645 4.86261246656568
116.9 38.6185 6.21437848863424
116.95 43.4261 6.58984825318459
117 31.8468 5.64329690872277
117.05 30.0862 5.48508887804017
117.1 28.0222 5.29359990932447
117.15 31.0891 5.57576003787824
117.2 46.375 6.80991923593812
117.25 34.0309 5.83360094624238
117.3 32.436 5.69526118804046
117.35 36.2905 6.02415969243844
117.4 24.323 4.93183535816029
117.45 33.9773 5.82900506090019
117.5 27.4918 5.24326234323632
117.55 30.9195 5.5605305502263
117.6 27.5224 5.24617956231008
117.65 27.2538 5.22051721575554
117.7 24.9949 4.99948997398735
117.75 29.8519 5.46368922981533
117.8 26.5912 5.15666558931254
117.85 44.7259 6.68774251896707
117.9 34.4964 5.87336360188947
117.95 29.8507 5.46357941280256
118 31.0504 5.57228857831322
118.05 24.3723 4.93683096733117
118.1 23.0662 4.80272839123763
118.15 39.671 6.29849188298278
118.2 36.4501 6.037391820977
118.25 28.2419 5.31431086783602
118.3 29.8545 5.46392715910452
118.35 25.7602 5.07545071890172
118.4 24.1927 4.91860752652618
118.45 28.4199 5.33103179506557
118.5 34.2531 5.852614800241
118.55 25.1661 5.01658250206253
118.6 32.1703 5.67188681128247
118.65 31.4772 5.61045452704146
118.7 26.084 5.10724974913113
118.75 25.3759 5.03744975161043
118.8 31.8237 5.64124986151119
118.85 34.1436 5.84325251893156
118.9 35.6689 5.97234459822941
118.95 39.713 6.30182513245171
119 21.0344 4.5863275068403
119.05 18.8197 4.33816781602556
119.1 28.7826 5.36494175178072
119.15 23.0472 4.8007499414154
119.2 28.4659 5.33534441250047
119.25 23.0143 4.79732216971093
119.3 35.2483 5.93702787596622
119.35 25.2108 5.02103574972336
119.4 43.702 6.6107488229398
119.45 27.5129 5.24527406338315
119.5 30.2545 5.5004090756961
119.55 28.7858 5.36523997599362
119.6 30.7649 5.54661157825208
119.65 29.3346 5.41614253874471
119.7 41.0804 6.40939934783284
119.75 26.3949 5.13759671441813
119.8 33.6299 5.79912924498153
119.85 24.8929 4.9892785049544
119.9 29.6035 5.44090985038348
119.95 32.1728 5.67210719221702
120 34.0747 5.83735385256025
120.05 30.1869 5.49426064179704
120.1 36.4426 6.03677065988099
120.15 33.5846 5.79522217002938
120.2 31.6052 5.62185022923948
120.25 28.1925 5.30966100612836
120.3 27.5348 5.24736124161468
120.35 42.4741 6.51721566314941
120.4 24.6732 4.96721249797107
120.45 35.1958 5.93260482418979
120.5 28.2635 5.31634272785343
120.55 32.1507 5.67015872793699
120.6 36.9488 6.07855245926199
120.65 27.0901 5.20481507836734
120.7 37.739 6.14320763119724
120.75 27.9172 5.28367296489857
120.8 30.6266 5.53413046467103
120.85 29.2877 5.41181115708965
120.9 36.415 6.03448423645302
120.95 36.3455 6.02872291617387
121 30.0004 5.47726208976711
121.05 31.4678 5.60961674270177
121.1 30.2014 5.49558004217935
121.15 31.9845 5.65548406416285
121.2 26.2794 5.1263437262829
121.25 47.2679 6.87516545255458
121.3 11.0325 3.32152073604847
121.35 29.6951 5.4493210586274
121.4 31.5193 5.61420519753242
121.45 26.8247 5.17925670342763
121.5 27.385 5.23306793382238
121.55 27.3834 5.23291505759457
121.6 37.6371 6.1349083122733
121.65 33.9243 5.82445705624138
121.7 28.6048 5.34834553857546
121.75 22.5493 4.74861032303136
121.8 33.8615 5.81906349853651
121.85 22.7799 4.77282934955777
121.9 38.5556 6.2093155822522
121.95 35.7609 5.98004180587394
122 22.3308 4.72554758731726
122.05 30.3363 5.50783986695329
122.1 33.1234 5.75529321581446
122.15 32.636 5.71279266208743
122.2 29.6901 5.44886226656538
122.25 22.4165 4.73460663624762
122.3 15.9276 3.99093973895873
122.35 24.845 4.98447590023264
122.4 26.4353 5.14152701052907
122.45 28.0465 5.29589463641414
122.5 23.1165 4.80796214627362
122.55 27.4306 5.23742303046069
122.6 22.649 4.75909655291842
122.65 23.2243 4.81915967778616
122.7 35.7702 5.98081934186279
122.75 24.9308 4.99307520472103
122.8 31.9118 5.64905301798452
122.85 33.5418 5.79152829570917
122.9 31.8076 5.6398226922484
122.95 33.6313 5.79924995150235
123 39.616 6.2941242440867
123.05 22.1803 4.70959658569606
123.1 38.6598 6.21770053958857
123.15 42.2697 6.50151520801113
123.2 35.431 5.95239447617511
123.25 26.6724 5.16453289272128
123.3 19.8017 4.44991011145169
123.35 35.5158 5.95951340295498
123.4 47.5502 6.89566530510291
123.45 29.4781 5.42937381288119
123.5 35.0903 5.9237066098854
123.55 30.7284 5.54332030465496
123.6 33.6209 5.79835321449116
123.65 32.7679 5.72432528775226
123.7 29.694 5.449220127688
123.75 23.9056 4.88933533315112
123.8 31.9235 5.65008849488218
123.85 36.8453 6.07003294883973
123.9 19.2826 4.39119573692633
123.95 28.2186 5.31211822157602
124 26.5181 5.14957279781537
124.05 46.724 6.83549559285938
124.1 27.217 5.21699147018662
124.15 29.3276 5.4154962838137
124.2 45.4593 6.74235122194031
124.25 25.2924 5.02915499860563
124.3 27.777 5.27038897995205
124.35 35.6655 5.97205994611575
124.4 29.5852 5.4392278863824
124.45 31.7055 5.63076371374257
124.5 36.8376 6.06939865225543
124.55 28.4181 5.3308629695388
124.6 27.3389 5.22866139657178
124.65 31.9607 5.65337952025158
124.7 37.143 6.09450572236995
124.75 26.5732 5.15491997998029
124.8 27.2075 5.21608090428053
124.85 33.1239 5.7553366539239
124.9 31.4094 5.60440897865243
124.95 39.0198 6.24658306596494
125 26.5484 5.15251394952018
125.05 29.2961 5.4125871817459
125.1 21.0645 4.58960782638343
125.15 22.2133 4.71309876832642
125.2 25.1699 5.01696123166205
125.25 35.8594 5.98827187091568
125.3 30.0519 5.48196132784608
125.35 42.6145 6.52797824751278
125.4 28.2249 5.31271117227353
125.45 23.6444 4.86255077094317
125.5 29.8335 5.46200512632495
125.55 32.5746 5.70741622803174
125.6 30.4283 5.51618527607621
125.65 26.1206 5.11083163487118
125.7 26.3654 5.13472491960378
125.75 31.0231 5.56983841776402
125.8 28.6534 5.35288707147834
125.85 22.3654 4.72920712170656
125.9 30.4063 5.51419078378686
125.95 32.3856 5.6908347366621
126 37.9276 6.15853878773204
126.05 26.7058 5.16776547455474
126.1 27.4598 5.24020991945933
126.15 28.9503 5.38054829919777
126.2 26.5253 5.15027183748586
126.25 21.3579 4.62146080801298
126.3 20.7558 4.55585337779872
126.35 29.842 5.46278317343824
126.4 24.5293 4.95270633088618
126.45 24.1346 4.91269783316662
126.5 36.526 6.04367437905121
126.55 33.0531 5.74918255058926
126.6 34.9094 5.9084177238919
126.65 31.2737 5.59228933443183
126.7 36.7663 6.06352207879216
126.75 34.2906 5.85581762011079
126.8 29.4545 5.42720001474057
126.85 32.7297 5.72098767696628
126.9 26.599 5.1574218365381
126.95 28.7132 5.35846993086646
127 34.7531 5.89517599398016
127.05 29.6994 5.4497155889092
127.1 26.9784 5.194073545879
127.15 26.7863 5.17554828013419
127.2 31.1248 5.57896047664796
127.25 27.1066 5.20639990780578
127.3 33.6483 5.80071547311192
127.35 40.5065 6.36447169842085
127.4 26.7158 5.16873292016525
127.45 33.5333 5.79079441873047
127.5 33.0377 5.74784307371035
127.55 32.3929 5.69147608270473
127.6 35.6955 5.9745711143144
127.65 26.6244 5.15988371962005
127.7 31.7829 5.63763248181362
127.75 25.5783 5.05749938210575
127.8 33.7715 5.8113251500841
127.85 37.0175 6.0842008513855
127.9 32.1354 5.66880939880677
127.95 39.8465 6.31240841517721
128 26.5685 5.15446408465516
128.05 32.578 5.70771407833294
128.1 38.5018 6.20498186943362
128.15 27.2125 5.21656016930697
128.2 35.805 5.9837279349917
128.25 31.4649 5.60935825206413
128.3 23.6873 4.8669600368197
128.35 37.2274 6.10142606281515
128.4 33.3428 5.77432247107832
128.45 21.4706 4.63363787967942
128.5 26.4107 5.13913416832057
128.55 25.4542 5.04521555535539
128.6 26.52 5.14975727583349
128.65 33.9539 5.82699751158347
128.7 22.8503 4.7801987406383
128.75 23.9797 4.89690718719479
128.8 28.8081 5.36731776588642
128.85 24.9307 4.9930651908422
128.9 34.2024 5.848281798956
128.95 35.1939 5.93244469000765
129 40.8483 6.39126747992916
129.05 24.5405 4.9538368967902
129.1 31.8308 5.64187911958418
129.15 28.2145 5.31173229747133
129.2 23.3251 4.82960660923848
129.25 36.6299 6.05226403918401
129.3 35.8668 5.98888971346109
129.35 32.438 5.69543676990624
129.4 22.4164 4.73459607569643
129.45 29.3704 5.41944646619929
129.5 24.9735 4.99734929737756
129.55 31.1728 5.58326069604492
129.6 47.4528 6.88859927706642
129.65 35.7543 5.97948994480298
129.7 34.8647 5.9046337735714
129.75 30.072 5.48379430686454
129.8 36.4644 6.03857599107604
129.85 30.6729 5.53831201721246
129.9 29.777 5.4568305819404
129.95 34.8968 5.90735135234057
130 27.0918 5.20497838612227
130 27.0918 5.20497838612227
