
#Surface 0 of 1 surfaces

#IsoCurve 0, 1801 points
#x y z type
 40  40.028  32.7369 i
 40.05  31.7025  32.74 i
 40.1  42.017  32.7431 i
 40.15  28.6423  32.7395 i
 40.2  44.5413  32.7358 i
 40.25  31.5493  32.735 i
 40.3  33.7608  32.7342 i
 40.35  49.7941  32.7355 i
 40.4  36.3509  32.7368 i
 40.45  41.3645  32.7317 i
 40.5  37.501  32.7265 i
 40.55  38.4178  32.7317 i
 40.6  45.9811  32.7368 i
 40.65  48.4662  32.7306 i
 40.7  36.5584  32.7234 i
 40.75  37.2617  32.7285 i
 40.8  46.9565  32.7337 i
 40.85  33.1199  32.7298 i
 40.9  38.6161  32.7258 i
 40.95  34.9684  32.727 i
 41  35.2569  32.7282 i
 41.05  44.9534  32.7302 i
 41.1  32.8475  32.7322 i
 41.15  30.4859  32.7281 i
 41.2  29.1513  32.7241 i
 41.25  35.8935  32.7313 i
 41.3  32.551  32.7386 i
 41.35  42.2163  32.7322 i
 41.4  34.4686  32.7259 i
 41.45  48.4339  32.7314 i
 41.5  40.0636  32.7423 i
 41.55  28.4524  32.7391 i
 41.6  49.5406  32.7359 i
 41.65  37.2515  32.7337 i
 41.7  46.9118  32.7442 i
 41.75  33.8178  32.7484 i
 41.8  39.5508  32.7527 i
 41.85  36.5362  32.7509 i
 41.9  32.0854  32.7491 i
 41.95  37.5744  32.7608 i
 42  48.3139  32.7724 i
 42.05  39.7781  32.7681 i
 42.1  27.3136  32.7638 i
 42.15  31.2367  32.7779 i
 42.2  35.7259  32.7921 i
 42.25  30.0342  32.7925 i
 42.3  31.9391  32.7929 i
 42.35  37.051  32.8035 i
 42.4  34.905  32.8141 i
 42.45  33.2947  32.8256 i
 42.5  39.8539  32.8372 i
 42.55  36.5263  32.8421 i
 42.6  30.6982  32.847 i
 42.65  38.7576  32.8709 i
 42.7  33.5493  32.8947 i
 42.75  34.3181  32.8998 i
 42.8  37.0079  32.9048 i
 42.85  41.8393  32.9362 i
 42.9  30.8497  32.9675 i
 42.95  44.9708  32.985 i
 43  40.6525  33.0026 i
 43.05  41.9568  33.0365 i
 43.1  34.493  33.0705 i
 43.15  36.9817  33.1151 i
 43.2  39.6637  33.1597 i
 43.25  33.3346  33.2051 i
 43.3  28.6188  33.2504 i
 43.35  32.4314  33.3845 i
 43.4  33.5538  33.5186 i
 43.45  46.0688  33.7933 i
 43.5  42.0486  34.0681 i
 43.55  33.1787  34.2663 i
 43.6  42.0697  34.4644 i
 43.65  40.0445  34.6958 i
 43.7  35.5892  34.9271 i
 43.75  32.333  35.2663 i
 43.8  32.1862  35.6056 i
 43.85  34.6545  36.1306 i
 43.9  32.8571  36.6556 i
 43.95  34.9908  37.464 i
 44  38.6758  38.2724 i
 44.05  40.9667  39.5377 i
 44.1  62.4257  41.2687 i
 44.15  48.41  43.7602 i
 44.2  54.2826  47.3371 i
 44.25  60.32  53.3252 i
 44.3  78.0715  64.4256 i
 44.35  95.7907  89.2129 i
 44.4  164.947  156.702 i
 44.45  315.532  347.04 i
 44.5  806.586  787.814 i
 44.55  1493.87  1480.48 i
 44.6  1889.38  2014.84 i
 44.65  1465.26  1563.06 i
 44.7  541.665  526.845 i
 44.75  175.963  179.731 i
 44.8  88.8371  95.8845 i
 44.85  56.0864  67.5404 i
 44.9  44.9121  53.6258 i
 44.95  44.4067  46.7418 i
 45  44.5514  42.7467 i
 45.05  60.1839  40.2519 i
 45.1  37.4105  38.5687 i
 45.15  38.3455  37.5117 i
 45.2  38.3896  36.4548 i
 45.25  39.0387  35.8944 i
 45.3  30.9206  35.334 i
 45.35  43.1288  34.9684 i
 45.4  34.5205  34.6028 i
 45.45  23.4276  34.3643 i
 45.5  32.4292  34.1259 i
 45.55  38.9373  33.9738 i
 45.6  38.8  33.8218 i
 45.65  35.874  33.6856 i
 45.7  29.3046  33.5495 i
 45.75  45.9023  33.465 i
 45.8  31.5675  33.3805 i
 45.85  39.1253  33.2569 i
 45.9  26.1875  33.1334 i
 45.95  30.234  33.0859 i
 46  44.739  33.0385 i
 46.05  38.5995  32.9985 i
 46.1  33.657  32.9584 i
 46.15  34.3149  32.9179 i
 46.2  36.0815  32.8774 i
 46.25  33.8881  32.8615 i
 46.3  36.6284  32.8457 i
 46.35  41.3348  32.8102 i
 46.4  30.1319  32.7747 i
 46.45  32.327  32.7658 i
 46.5  37.3311  32.7569 i
 46.55  29.302  32.7339 i
 46.6  30.052  32.7108 i
 46.65  38.586  32.6972 i
 46.7  34.9991  32.6837 i
 46.75  32.0556  32.6752 i
 46.8  30.6932  32.6667 i
 46.85  31.2094  32.6474 i
 46.9  47.8651  32.6281 i
 46.95  40.2773  32.6278 i
 47  35.6962  32.6276 i
 47.05  38.7928  32.6096 i
 47.1  29.1822  32.5916 i
 47.15  36.7914  32.5897 i
 47.2  35.0038  32.5879 i
 47.25  34.4573  32.5783 i
 47.3  40.4736  32.5688 i
 47.35  43.5882  32.56 i
 47.4  34.7654  32.5511 i
 47.45  32.8133  32.5507 i
 47.5  33.5422  32.5502 i
 47.55  36.0655  32.5368 i
 47.6  37.3766  32.5234 i
 47.65  28.2759  32.526 i
 47.7  46.5503  32.5285 i
 47.75  27.875  32.5176 i
 47.8  39.2317  32.5067 i
 47.85  35.821  32.505 i
 47.9  30.4177  32.5033 i
 47.95  32.4539  32.4998 i
 48  23.2755  32.4963 i
 48.05  31.6944  32.4881 i
 48.1  31.5098  32.48 i
 48.15  36.2049  32.4824 i
 48.2  39.6104  32.4849 i
 48.25  36.1297  32.4744 i
 48.3  29.7038  32.464 i
 48.35  33.424  32.4663 i
 48.4  41.8448  32.4685 i
 48.45  38.6096  32.462 i
 48.5  29.8242  32.4555 i
 48.55  35.0783  32.4524 i
 48.6  27.2065  32.4494 i
 48.65  35.4631  32.4493 i
 48.7  37.614  32.4493 i
 48.75  22.0801  32.4386 i
 48.8  49.2304  32.4332 i
 48.85  32.1606  32.4364 i
 48.9  35.0356  32.4395 i
 48.95  31.207  32.4316 i
 49  33.0992  32.4236 i
 49.05  39.3871  32.4243 i
 49.1  40.2479  32.425 i
 49.15  27.4756  32.422 i
 49.2  27.8085  32.4189 i
 49.25  25.5825  32.4148 i
 49.3  28.1383  32.4108 i
 49.35  21.1547  32.4124 i
 49.4  31.4959  32.4141 i
 49.45  23.1757  32.4067 i
 49.5  33.6959  32.3994 i
 49.55  38.2154  32.4019 i
 49.6  26.1132  32.4044 i
 49.65  32.9034  32.3989 i
 49.7  35.096  32.3935 i
 49.75  20.9159  32.3923 i
 49.8  23.2863  32.3911 i
 49.85  32.0098  32.3905 i
 49.9  38.1588  32.3899 i
 49.95  39.8757  32.3844 i
 50  39.2898  32.3788 i
 50.05  45.3826  32.3813 i
 50.1  35.6426  32.3838 i
 50.15  31.4311  32.3775 i
 50.2  29.5905  32.3712 i
 50.25  35.149  32.3723 i
 50.3  37.6962  32.3734 i
 50.35  43.1226  32.3705 i
 50.4  33.5444  32.3676 i
 50.45  29.8112  32.3644 i
 50.5  33.0954  32.3613 i
 50.55  26.9074  32.3626 i
 50.6  31.3059  32.3638 i
 50.65  36.6794  32.3579 i
 50.7  39.9119  32.3519 i
 50.75  27.3971  32.3541 i
 50.8  34.8105  32.3563 i
 50.85  27.7875  32.3517 i
 50.9  35.6004  32.3472 i
 50.95  40.5997  32.3463 i
 51  29.6708  32.3454 i
 51.05  25.8622  32.3449 i
 51.1  31.0158  32.3443 i
 51.15  39.1132  32.3397 i
 51.2  29.2377  32.335 i
 51.25  33.5821  32.3371 i
 51.3  30.0993  32.3392 i
 51.35  38.3836  32.3339 i
 51.4  38.0319  32.3286 i
 51.45  33.52  32.3294 i
 51.5  33.6284  32.3301 i
 51.55  30.767  32.3279 i
 51.6  34.0299  32.3256 i
 51.65  36.4751  32.3226 i
 51.7  31.618  32.3196 i
 51.75  30.9411  32.3208 i
 51.8  43.6904  32.3221 i
 51.85  27.7861  32.3169 i
 51.9  32.7477  32.3116 i
 51.95  33.3121  32.3133 i
 52  24.2769  32.315 i
 52.05  18.0648  32.3113 i
 52.1  28.8858  32.3077 i
 52.15  32.7835  32.3064 i
 52.2  29.5184  32.305 i
 52.25  29.6891  32.305 i
 52.3  39.9312  32.305 i
 52.35  29.01  32.3005 i
 52.4  34.5479  32.296 i
 52.45  34.3432  32.2978 i
 52.5  32.9908  32.2997 i
 52.55  23.4556  32.2952 i
 52.6  32.4932  32.2907 i
 52.65  32.484  32.2908 i
 52.7  36.5496  32.2908 i
 52.75  36.3853  32.2894 i
 52.8  31.227  32.288 i
 52.85  34.3881  32.2846 i
 52.9  29.8098  32.2813 i
 52.95  35.7131  32.2827 i
 53  37.0793  32.2841 i
 53.05  29.9322  32.2793 i
 53.1  33.3397  32.2746 i
 53.15  33.3809  32.2756 i
 53.2  31.5483  32.2765 i
 53.25  30.2908  32.2739 i
 53.3  27.4547  32.2713 i
 53.35  22.7506  32.2692 i
 53.4  45.3282  32.267 i
 53.45  23.9299  32.2676 i
 53.5  29.0303  32.2682 i
 53.55  35.4395  32.2637 i
 53.6  32.721  32.2592 i
 53.65  27.1128  32.2606 i
 53.7  34.9181  32.262 i
 53.75  22.0853  32.2585 i
 53.8  38.0826  32.2551 i
 53.85  24.5038  32.254 i
 53.9  26.3391  32.2529 i
 53.95  29.9101  32.2526 i
 54  33.3448  32.2523 i
 54.05  26.7462  32.2483 i
 54.1  24.1761  32.2444 i
 54.15  25.8318  32.2458 i
 54.2  41.9148  32.2472 i
 54.25  31.2618  32.2432 i
 54.3  31.6381  32.2391 i
 54.35  31.2373  32.239 i
 54.4  29.9042  32.2388 i
 54.45  29.6287  32.2375 i
 54.5  33.3865  32.2363 i
 54.55  30.1717  32.233 i
 54.6  23.1948  32.2298 i
 54.65  35.866  32.2309 i
 54.7  31.387  32.2321 i
 54.75  33.3101  32.2278 i
 54.8  30.8597  32.2235 i
 54.85  33.3012  32.224 i
 54.9  27.2739  32.2245 i
 54.95  28.4383  32.2224 i
 55  35.8209  32.2203 i
 55.05  22.716  32.2178 i
 55.1  24.2605  32.2153 i
 55.15  37.0516  32.216 i
 55.2  30.9671  32.2166 i
 55.25  35.7078  32.2124 i
 55.3  27.1584  32.2082 i
 55.35  22.1984  32.209 i
 55.4  39.5758  32.2098 i
 55.45  40.4059  32.207 i
 55.5  34.9189  32.2043 i
 55.55  35.7588  32.2025 i
 55.6  32.3797  32.2007 i
 55.65  19.1861  32.2008 i
 55.7  36.1849  32.2009 i
 55.75  27.1558  32.1969 i
 55.8  28.7375  32.1928 i
 55.85  31.233  32.1938 i
 55.9  33.323  32.1948 i
 55.95  33.3488  32.1916 i
 56  29.679  32.1883 i
 56.05  26.2977  32.1871 i
 56.1  25.6613  32.1859 i
 56.15  33.106  32.1855 i
 56.2  30.3194  32.185 i
 56.25  34.9974  32.1813 i
 56.3  23.6659  32.1775 i
 56.35  31.6684  32.1785 i
 56.4  33.5981  32.1795 i
 56.45  33.6663  32.1759 i
 56.5  33.2025  32.1723 i
 56.55  37.6311  32.1715 i
 56.6  37.1226  32.1708 i
 56.65  28.8273  32.1699 i
 56.7  30.853  32.1689 i
 56.75  33.0827  32.1654 i
 56.8  34.596  32.162 i
 56.85  33.8042  32.1629 i
 56.9  36.4221  32.1638 i
 56.95  28.2171  32.16 i
 57  28.7728  32.1561 i
 57.05  33.3806  32.1558 i
 57.1  27.7875  32.1554 i
 57.15  31.0603  32.154 i
 57.2  35.0517  32.1526 i
 57.25  36.5531  32.1494 i
 57.3  30.3705  32.1463 i
 57.35  25.6379  32.147 i
 57.4  36.7611  32.1477 i
 57.45  34.9592  32.1438 i
 57.5  22.1746  32.1398 i
 57.55  29.4309  32.1397 i
 57.6  39.3063  32.1396 i
 57.65  20.2505  32.1378 i
 57.7  25.6626  32.136 i
 57.75  27.5959  32.1331 i
 57.8  39.2205  32.1302 i
 57.85  30.1008  32.1308 i
 57.9  29.9505  32.1313 i
 57.95  23.3912  32.1273 i
 58  39.2145  32.1233 i
 58.05  34.4678  32.1233 i
 58.1  33.7833  32.1233 i
 58.15  28.7712  32.1213 i
 58.2  47.7739  32.1192 i
 58.25  30.1093  32.1165 i
 58.3  26.6269  32.1139 i
 58.35  31.7377  32.1142 i
 58.4  30.1779  32.1146 i
 58.45  35.7043  32.1106 i
 58.5  19.5608  32.1065 i
 58.55  26.7126  32.1066 i
 58.6  29.7169  32.1067 i
 58.65  34.4103  32.1044 i
 58.7  36.6653  32.1021 i
 58.75  34.4694  32.0996 i
 58.8  30.7159  32.0971 i
 58.85  35.8082  32.0973 i
 58.9  29.1266  32.0975 i
 58.95  35.1881  32.0935 i
 59  30.208  32.0894 i
 59.05  33.5857  32.0895 i
 59.1  30.1299  32.0897 i
 59.15  42.5893  32.0872 i
 59.2  35.8901  32.0848 i
 59.25  35.8042  32.0824 i
 59.3  35.3151  32.0799 i
 59.35  28.6673  32.08 i
 59.4  39.5205  32.0801 i
 59.45  36.4208  32.0761 i
 59.5  35.0314  32.072 i
 59.55  31.8725  32.0721 i
 59.6  24.0828  32.0722 i
 59.65  38.0325  32.0697 i
 59.7  33.8985  32.0672 i
 59.75  30.6098  32.0648 i
 59.8  29.7569  32.0623 i
 59.85  30.7553  32.0624 i
 59.9  27.4304  32.0624 i
 59.95  40.5241  32.054 i
 60  23.8951  32.0456 i
 60.05  30.9021  32.0438 i
 60.1  41.2169  32.0419 i
 60.15  35.9692  32.0398 i
 60.2  30.9144  32.0377 i
 60.25  34.9576  32.0365 i
 60.3  28.7781  32.0353 i
 60.35  26.4866  32.0328 i
 60.4  39.2717  32.0304 i
 60.45  37.0822  32.029 i
 60.5  28.7166  32.0276 i
 60.55  35.805  32.0258 i
 60.6  36.57  32.0239 i
 60.65  36.0545  32.0217 i
 60.7  26.6917  32.0195 i
 60.75  23.7993  32.0183 i
 60.8  29.6258  32.0172 i
 60.85  30.5307  32.0147 i
 60.9  25.0216  32.0122 i
 60.95  38.5745  32.0108 i
 61  37.1538  32.0093 i
 61.05  36.0598  32.0076 i
 61.1  25.0366  32.0058 i
 61.15  27.5872  32.0035 i
 61.2  26.6576  32.0012 i
 61.25  30.4402  32.0001 i
 61.3  25.4527  31.9991 i
 61.35  30.7341  31.9966 i
 61.4  29.3497  31.9941 i
 61.45  25.6305  31.9926 i
 61.5  28.9059  31.9912 i
 61.55  32.1847  31.9896 i
 61.6  33.2473  31.988 i
 61.65  32.4359  31.9856 i
 61.7  29.7921  31.9832 i
 61.75  26.3431  31.9823 i
 61.8  26.3499  31.9815 i
 61.85  33.4747  31.979 i
 61.9  25.6993  31.9766 i
 61.95  36.1639  31.9752 i
 62  29.3659  31.9738 i
 62.05  20.9291  31.9725 i
 62.1  26.178  31.9713 i
 62.15  28.5429  31.9688 i
 62.2  30.576  31.9664 i
 62.25  36.6589  31.9659 i
 62.3  38.4558  31.9654 i
 62.35  30.0782  31.9632 i
 62.4  30.2217  31.9611 i
 62.45  30.0601  31.9598 i
 62.5  41.7759  31.9586 i
 62.55  24.0643  31.958 i
 62.6  27.1189  31.9574 i
 62.65  22.7816  31.9552 i
 62.7  34.7153  31.953 i
 62.75  19.1486  31.9533 i
 62.8  38.8531  31.9535 i
 62.85  19.0581  31.9523 i
 62.9  29.3606  31.951 i
 62.95  35.4387  31.9504 i
 63  28.4831  31.9498 i
 63.05  36.7827  31.9509 i
 63.1  27.561  31.952 i
 63.15  29.6158  31.951 i
 63.2  21.1888  31.9501 i
 63.25  23.2042  31.9525 i
 63.3  39.8855  31.9549 i
 63.35  42.7511  31.9568 i
 63.4  39.0148  31.9588 i
 63.45  34.095  31.962 i
 63.5  36.1211  31.9652 i
 63.55  24.3396  31.975 i
 63.6  30.9573  31.9849 i
 63.65  24.1799  32.0049 i
 63.7  28.9832  32.025 i
 63.75  27.2087  32.0575 i
 63.8  25.5045  32.09 i
 63.85  41.3195  32.1183 i
 63.9  25.1598  32.1465 i
 63.95  32.4305  32.18 i
 64  31.4334  32.2135 i
 64.05  22.3183  32.2675 i
 64.1  33.4968  32.3215 i
 64.15  42.548  32.401 i
 64.2  21.2642  32.4804 i
 64.25  32.5917  32.617 i
 64.3  34.2521  32.7536 i
 64.35  32.7429  33.0104 i
 64.4  35.7337  33.2671 i
 64.45  38.9331  33.8116 i
 64.5  47.5835  34.3561 i
 64.55  49.4058  35.4241 i
 64.6  38.0802  37.2651 i
 64.65  47.2119  40.6616 i
 64.7  45.8994  47.3236 i
 64.75  64.6193  60.5503 i
 64.8  94.0214  84.4029 i
 64.85  116.41  117.569 i
 64.9  134.29  144.317 i
 64.95  139.51  141.046 i
 65  102.593  108.264 i
 65.05  76.7996  74.2328 i
 65.1  60.6308  53.2651 i
 65.15  42.2647  43.1719 i
 65.2  47.3745  38.3124 i
 65.25  30.531  36.388 i
 65.3  28.5555  34.4637 i
 65.35  23.051  33.8145 i
 65.4  28.9175  33.1654 i
 65.45  33.4621  32.8887 i
 65.5  24.7213  32.612 i
 65.55  21.7215  32.4681 i
 65.6  32.2621  32.3241 i
 65.65  21.2768  32.2453 i
 65.7  23.455  32.1665 i
 65.75  21.486  32.1147 i
 65.8  33.0683  32.0629 i
 65.85  29.4037  32.0269 i
 65.9  34.8467  31.9909 i
 65.95  43.4335  31.9673 i
 66  27.0493  31.9437 i
 66.05  20.8369  31.9178 i
 66.1  25.3436  31.8919 i
 66.15  37.588  31.8703 i
 66.2  26.0757  31.8487 i
 66.25  20.1515  31.8363 i
 66.3  25.079  31.8238 i
 66.35  22.6668  31.8124 i
 66.4  34.5129  31.8011 i
 66.45  28.0689  31.7952 i
 66.5  25.8839  31.7894 i
 66.55  33.0594  31.7818 i
 66.6  26.1929  31.7742 i
 66.65  32.2823  31.7676 i
 66.7  28.5868  31.7611 i
 66.75  32.6821  31.7572 i
 66.8  34.8286  31.7532 i
 66.85  26.2344  31.7464 i
 66.9  16.106  31.7395 i
 66.95  25.6438  31.7357 i
 67  25.0314  31.732 i
 67.05  33.2278  31.7276 i
 67.1  33.2811  31.7233 i
 67.15  23.3802  31.7176 i
 67.2  27.4423  31.7119 i
 67.25  37.1382  31.7093 i
 67.3  24.9404  31.7068 i
 67.35  31.1088  31.7015 i
 67.4  31.1342  31.6963 i
 67.45  33.3137  31.6923 i
 67.5  26.246  31.6883 i
 67.55  35.6902  31.6854 i
 67.6  25.1968  31.6825 i
 67.65  21.6663  31.6771 i
 67.7  23.5826  31.6717 i
 67.75  22.9931  31.6691 i
 67.8  26.0999  31.6664 i
 67.85  24.4609  31.6624 i
 67.9  35.1385  31.6584 i
 67.95  39.506  31.6538 i
 68  26.8673  31.6492 i
 68.05  21.6763  31.6469 i
 68.1  31.7619  31.6446 i
 68.15  30.1666  31.6396 i
 68.2  31.6629  31.6346 i
 68.25  24.1092  31.6313 i
 68.3  34.3215  31.628 i
 68.35  21.0617  31.6249 i
 68.4  24.0252  31.6218 i
 68.45  32.4656  31.6168 i
 68.5  38.4823  31.6118 i
 68.55  26.1986  31.6093 i
 68.6  23.1756  31.6069 i
 68.65  29.4778  31.6026 i
 68.7  33.2755  31.5984 i
 68.75  32.3008  31.5942 i
 68.8  29.8303  31.59 i
 68.85  32.8324  31.5875 i
 68.9  32.3914  31.585 i
 68.95  26.2354  31.58 i
 69  26.2593  31.5749 i
 69.05  28.1775  31.5718 i
 69.1  27.4065  31.5687 i
 69.15  30.4624  31.5653 i
 69.2  32.2245  31.5619 i
 69.25  26.8055  31.557 i
 69.3  24.8498  31.5521 i
 69.35  31.1232  31.5495 i
 69.4  26.8486  31.547 i
 69.45  27.1091  31.5425 i
 69.5  28.1396  31.538 i
 69.55  22.4651  31.5339 i
 69.6  30.893  31.5298 i
 69.65  38.4503  31.5271 i
 69.7  23.6956  31.5243 i
 69.75  31.6997  31.5191 i
 69.8  23.3498  31.514 i
 69.85  37.0802  31.5109 i
 69.9  29.7002  31.5077 i
 69.95  29.9785  31.504 i
 70  31.0354  31.5003 i
 70.05  25.9455  31.4954 i
 70.1  32.8237  31.4904 i
 70.15  30.0536  31.4877 i
 70.2  25.5957  31.4851 i
 70.25  33.0377  31.4803 i
 70.3  32.3317  31.4756 i
 70.35  33.3978  31.4714 i
 70.4  28.8166  31.4673 i
 70.45  24.4281  31.4642 i
 70.5  24.1241  31.4612 i
 70.55  29.8786  31.4559 i
 70.6  33.4124  31.4506 i
 70.65  23.8481  31.4474 i
 70.7  36.9852  31.4441 i
 70.75  18.6527  31.4401 i
 70.8  38.758  31.4362 i
 70.85  30.6364  31.4311 i
 70.9  25.1638  31.426 i
 70.95  32.6983  31.4231 i
 71  24.1421  31.4202 i
 71.05  34.6745  31.4153 i
 71.1  27.701  31.4103 i
 71.15  31.104  31.406 i
 71.2  30.9979  31.4016 i
 71.25  31.117  31.3983 i
 71.3  33.5844  31.395 i
 71.35  31.3321  31.3894 i
 71.4  26.9219  31.3838 i
 71.45  28.9515  31.38 i
 71.5  28.0881  31.3763 i
 71.55  30.6996  31.3719 i
 71.6  28.123  31.3674 i
 71.65  26.7574  31.3617 i
 71.7  30.7077  31.356 i
 71.75  24.8414  31.3524 i
 71.8  32.073  31.3489 i
 71.85  30.4495  31.3432 i
 71.9  36.3355  31.3376 i
 71.95  25.9678  31.3324 i
 72  31.3187  31.3271 i
 72.05  22.483  31.3231 i
 72.1  28.8827  31.319 i
 72.15  34.2959  31.3126 i
 72.2  34.1033  31.3062 i
 72.25  39.6093  31.3015 i
 72.3  28.9417  31.2968 i
 72.35  28.0659  31.2918 i
 72.4  21.7543  31.2868 i
 72.45  33.4878  31.2802 i
 72.5  27.948  31.2736 i
 72.55  30.5519  31.2692 i
 72.6  29.534  31.2649 i
 72.65  31.793  31.2587 i
 72.7  28.1935  31.2525 i
 72.75  23.864  31.2463 i
 72.8  26.7481  31.24 i
 72.85  26.4529  31.2354 i
 72.9  32.0732  31.2308 i
 72.95  23.4768  31.2237 i
 73  32.5776  31.2166 i
 73.05  36.348  31.211 i
 73.1  22.8921  31.2054 i
 73.15  29.4752  31.2 i
 73.2  31.3682  31.1946 i
 73.25  31.2625  31.1872 i
 73.3  39.3754  31.1797 i
 73.35  36.3093  31.1746 i
 73.4  38.4791  31.1695 i
 73.45  22.2019  31.1629 i
 73.5  32.058  31.1564 i
 73.55  26.8543  31.1492 i
 73.6  33.5782  31.142 i
 73.65  22.3184  31.1369 i
 73.7  23.6494  31.1318 i
 73.75  32.6506  31.1243 i
 73.8  34.3497  31.1168 i
 73.85  36.5082  31.1102 i
 73.9  33.9406  31.1036 i
 73.95  34.1672  31.0979 i
 74  27.8147  31.0923 i
 74.05  31.7317  31.0842 i
 74.1  26.2966  31.0761 i
 74.15  32.6793  31.0701 i
 74.2  29.4859  31.0641 i
 74.25  30.6986  31.0575 i
 74.3  41.5279  31.051 i
 74.35  35.4294  31.0428 i
 74.4  36.5592  31.0347 i
 74.45  32.3287  31.0291 i
 74.5  23.9124  31.0234 i
 74.55  27.4005  31.0158 i
 74.6  37.0826  31.0082 i
 74.65  28.5598  31.0005 i
 74.7  24.2119  30.9929 i
 74.75  33.5161  30.9871 i
 74.8  26.5579  30.9813 i
 74.85  22.3127  30.9728 i
 74.9  22.3587  30.9644 i
 74.95  21.3089  30.9574 i
 75  22.2764  30.9504 i
 75.05  32.3362  30.944 i
 75.1  25.472  30.9376 i
 75.15  24.1446  30.9288 i
 75.2  35.5209  30.9199 i
 75.25  20.8561  30.9136 i
 75.3  27.6926  30.9072 i
 75.35  29.6698  30.8999 i
 75.4  17.3039  30.8925 i
 75.45  33.6164  30.8838 i
 75.5  36.3657  30.8751 i
 75.55  36.634  30.8691 i
 75.6  32.8531  30.8631 i
 75.65  20.7225  30.8547 i
 75.7  43.2298  30.8464 i
 75.75  24.0561  30.8383 i
 75.8  25.093  30.8301 i
 75.85  38.701  30.8239 i
 75.9  30.8682  30.8177 i
 75.95  25.7221  30.8087 i
 76  21.0495  30.7996 i
 76.05  24.9516  30.7922 i
 76.1  39.0272  30.7848 i
 76.15  24.2837  30.7781 i
 76.2  32.294  30.7713 i
 76.25  35.0852  30.7619 i
 76.3  31.3799  30.7525 i
 76.35  32.3952  30.7458 i
 76.4  34.3655  30.7391 i
 76.45  43.071  30.7315 i
 76.5  39.2133  30.7239 i
 76.55  28.3617  30.7146 i
 76.6  44.163  30.7053 i
 76.65  26.8315  30.6991 i
 76.7  23.6154  30.6928 i
 76.75  28.3837  30.6843 i
 76.8  22.2178  30.6757 i
 76.85  43.6048  30.667 i
 76.9  27.5721  30.6583 i
 76.95  25.2386  30.6521 i
 77  34.8949  30.6459 i
 77.05  50.5198  30.6373 i
 77.1  40.5188  30.6272 i
 77.15  25.4205  30.6193 i
 77.2  27.1477  30.6114 i
 77.25  45.2626  30.6049 i
 77.3  29.6578  30.5983 i
 77.35  34.5035  30.5885 i
 77.4  21.4831  30.5787 i
 77.45  26.2423  30.5717 i
 77.5  38.0928  30.5647 i
 77.55  35.1117  30.5574 i
 77.6  32.6386  30.5502 i
 77.65  25.5919  30.5404 i
 77.7  29.6898  30.5306 i
 77.75  32.369  30.5243 i
 77.8  30.9133  30.518 i
 77.85  39.1354  30.5099 i
 77.9  26.8352  30.5019 i
 77.95  27.6772  30.4924 i
 78  27.8894  30.483 i
 78.05  31.3927  30.4772 i
 78.1  31.5991  30.4715 i
 78.15  34.7858  30.4625 i
 78.2  26.7274  30.4536 i
 78.25  29.0621  30.445 i
 78.3  31.6509  30.4364 i
 78.35  39.0132  30.4307 i
 78.4  32.9669  30.4251 i
 78.45  35.6573  30.4155 i
 78.5  31.3761  30.4059 i
 78.55  31.2042  30.3983 i
 78.6  29.0159  30.3908 i
 78.65  24.3324  30.3849 i
 78.7  28.9229  30.3791 i
 78.75  35.2668  30.3692 i
 78.8  29.3805  30.3593 i
 78.85  33.235  30.3529 i
 78.9  26.1038  30.3466 i
 78.95  29.6182  30.3403 i
 79  23.0139  30.334 i
 79.05  31.0524  30.3242 i
 79.1  24.7776  30.3144 i
 79.15  34.1631  30.3093 i
 79.2  33.4843  30.3042 i
 79.25  29.4108  30.2974 i
 79.3  34.0265  30.2906 i
 79.35  37.6943  30.2814 i
 79.4  23.1486  30.2723 i
 79.45  30.0079  30.2688 i
 79.5  31.6638  30.2653 i
 79.55  28.6701  30.2579 i
 79.6  23.8137  30.2504 i
 79.65  31.5148  30.2428 i
 79.7  33.0947  30.2352 i
 79.75  29.9447  30.2325 i
 79.8  37.0778  30.2297 i
 79.85  29.1584  30.2223 i
 79.9  35.2212  30.2149 i
 79.95  24.5511  30.2093 i
 80  30.0983  30.2038 i
 80.05  35.1814  30.2025 i
 80.1  36.0331  30.2013 i
 80.15  28.02  30.1948 i
 80.2  22.4263  30.1883 i
 80.25  27.2964  30.186 i
 80.3  31.599  30.1837 i
 80.35  24.8179  30.1851 i
 80.4  32.2712  30.1865 i
 80.45  35.1809  30.183 i
 80.5  38.5699  30.1794 i
 80.55  35.0238  30.1832 i
 80.6  29.5315  30.187 i
 80.65  31.5291  30.195 i
 80.7  31.6866  30.203 i
 80.75  19.6232  30.2101 i
 80.8  26.0757  30.2171 i
 80.85  32.4021  30.2461 i
 80.9  34.9783  30.275 i
 80.95  28.1614  30.3433 i
 81  29.6588  30.4116 i
 81.05  25.4796  30.4809 i
 81.1  20.2313  30.5502 i
 81.15  31.6667  30.6292 i
 81.2  31.3057  30.7082 i
 81.25  34.6698  30.8138 i
 81.3  34.4826  30.9194 i
 81.35  26.7397  31.0748 i
 81.4  27.7079  31.2301 i
 81.45  45.1971  31.4628 i
 81.5  22.3282  31.7704 i
 81.55  43.9097  32.1759 i
 81.6  37.0805  32.7226 i
 81.65  39.6452  33.6764 i
 81.7  30.8849  34.6302 i
 81.75  34.561  36.9341 i
 81.8  55.9878  39.2379 i
 81.85  50.4581  44.3551 i
 81.9  60.4128  53.1465 i
 81.95  74.4457  70.75 i
 82  111.098  105.408 i
 82.05  171.267  166.269 i
 82.1  232.791  244.316 i
 82.15  259.862  292.825 i
 82.2  281.914  264.338 i
 82.25  186.488  183.567 i
 82.3  109.792  113.099 i
 82.35  60.6529  73.5945 i
 82.4  76.9676  53.6182 i
 82.45  35.5413  43.9033 i
 82.5  43.0605  38.7604 i
 82.55  53.75  35.8393 i
 82.6  32.7773  34.0753 i
 82.65  30.7546  33.143 i
 82.7  39.0565  32.2108 i
 82.75  26.0381  31.7595 i
 82.8  28.8578  31.3083 i
 82.85  29.5573  31.0517 i
 82.9  33.9667  30.7951 i
 82.95  24.6662  30.6463 i
 83  21.1224  30.4976 i
 83.05  23.7487  30.3973 i
 83.1  35.5701  30.2971 i
 83.15  29.6703  30.219 i
 83.2  26.5837  30.141 i
 83.25  40.716  30.0825 i
 83.3  26.9894  30.0241 i
 83.35  32.2377  29.9641 i
 83.4  26.5298  29.9042 i
 83.45  29.0889  29.8625 i
 83.5  28.1664  29.8209 i
 83.55  21.2283  29.7995 i
 83.6  33.0932  29.778 i
 83.65  26.6381  29.7583 i
 83.7  26.8104  29.7387 i
 83.75  20.1423  29.7185 i
 83.8  36.5659  29.6982 i
 83.85  34.2764  29.687 i
 83.9  37.8726  29.6759 i
 83.95  28.4042  29.6627 i
 84  42.2735  29.6495 i
 84.05  24.0184  29.6349 i
 84.1  34.0101  29.6204 i
 84.15  34.7083  29.6128 i
 84.2  34.1439  29.6052 i
 84.25  34.9937  29.5948 i
 84.3  29.4316  29.5844 i
 84.35  29.3432  29.5728 i
 84.4  24.6903  29.5612 i
 84.45  26.306  29.5554 i
 84.5  31.78  29.5497 i
 84.55  26.8155  29.5407 i
 84.6  34.7162  29.5317 i
 84.65  35.6292  29.522 i
 84.7  32.5842  29.5122 i
 84.75  27.9885  29.5075 i
 84.8  29.4909  29.5028 i
 84.85  18.8958  29.4948 i
 84.9  27.2669  29.4867 i
 84.95  27.5981  29.4783 i
 85  25.6777  29.4699 i
 85.05  32.0106  29.4659 i
 85.1  35.5364  29.4618 i
 85.15  35.8422  29.4545 i
 85.2  24.6954  29.4471 i
 85.25  33.827  29.4397 i
 85.3  28.0236  29.4323 i
 85.35  26.3264  29.4287 i
 85.4  38.4401  29.4252 i
 85.45  23.7179  29.4184 i
 85.5  31.6638  29.4116 i
 85.55  34.8397  29.405 i
 85.6  35.9342  29.3984 i
 85.65  32.8888  29.3952 i
 85.7  29.7999  29.3921 i
 85.75  27.4908  29.3857 i
 85.8  24.5453  29.3794 i
 85.85  23.6536  29.3735 i
 85.9  31.5616  29.3676 i
 85.95  21.4259  29.3648 i
 86  24.0062  29.362 i
 86.05  36.6375  29.3561 i
 86.1  25.5228  29.3503 i
 86.15  24.8732  29.345 i
 86.2  29.455  29.3397 i
 86.25  25.6264  29.3372 i
 86.3  30.3421  29.3347 i
 86.35  37.4406  29.3294 i
 86.4  37.1593  29.324 i
 86.45  38.7272  29.3192 i
 86.5  36.5449  29.3145 i
 86.55  33.0233  29.3123 i
 86.6  29.6255  29.3101 i
 86.65  27.1124  29.3052 i
 86.7  22.3503  29.3003 i
 86.75  31.8633  29.2961 i
 86.8  37.5739  29.2918 i
 86.85  31.3827  29.29 i
 86.9  37.8553  29.2881 i
 86.95  29.3714  29.2837 i
 87  31.4878  29.2793 i
 87.05  25.5535  29.2755 i
 87.1  25.5495  29.2717 i
 87.15  29.7446  29.2702 i
 87.2  33.3321  29.2687 i
 87.25  26.3542  29.2648 i
 87.3  30.343  29.2609 i
 87.35  32.4074  29.2575 i
 87.4  32.8531  29.2541 i
 87.45  25.1361  29.253 i
 87.5  33.6686  29.2519 i
 87.55  33.5949  29.2485 i
 87.6  26.4059  29.245 i
 87.65  33.5833  29.2421 i
 87.7  29.2586  29.2391 i
 87.75  34.8518  29.2384 i
 87.8  32.0759  29.2376 i
 87.85  29.9275  29.2347 i
 87.9  24.8477  29.2318 i
 87.95  38.6624  29.2293 i
 88  28.7389  29.2268 i
 88.05  23.3606  29.2264 i
 88.1  19.3015  29.226 i
 88.15  31.6543  29.2237 i
 88.2  35.3776  29.2213 i
 88.25  31.1247  29.2192 i
 88.3  41.4227  29.217 i
 88.35  40.3838  29.217 i
 88.4  19.5219  29.2171 i
 88.45  37.725  29.2153 i
 88.5  35.8705  29.2135 i
 88.55  30.0056  29.2118 i
 88.6  22.2363  29.2101 i
 88.65  35.3863  29.2105 i
 88.7  31.2082  29.211 i
 88.75  27.6225  29.2098 i
 88.8  35.001  29.2085 i
 88.85  31.2397  29.2072 i
 88.9  30.8959  29.2058 i
 88.95  29.9139  29.2067 i
 89  30.2964  29.2075 i
 89.05  36.3771  29.2068 i
 89.1  31.7149  29.2061 i
 89.15  33.7762  29.2051 i
 89.2  27.8185  29.2041 i
 89.25  23.8221  29.2052 i
 89.3  34.8309  29.2063 i
 89.35  32.1523  29.2062 i
 89.4  24.4468  29.2061 i
 89.45  32.8694  29.2054 i
 89.5  34.3572  29.2046 i
 89.55  27.6334  29.206 i
 89.6  23.9269  29.2075 i
 89.65  24.4192  29.2079 i
 89.7  34.1534  29.2083 i
 89.75  28.8652  29.2079 i
 89.8  26.3159  29.2074 i
 89.85  30.0319  29.2091 i
 89.9  34.1749  29.2108 i
 89.95  29.5899  29.2117 i
 90  27.1443  29.2127 i
 90.05  36.8572  29.2125 i
 90.1  33.429  29.2124 i
 90.15  28.6992  29.2143 i
 90.2  39.4687  29.2162 i
 90.25  26.8034  29.2177 i
 90.3  33.9776  29.2192 i
 90.35  24.4011  29.2194 i
 90.4  30.8156  29.2196 i
 90.45  25.9903  29.2216 i
 90.5  26.2803  29.2237 i
 90.55  34.0463  29.2257 i
 90.6  27.7062  29.2277 i
 90.65  33.292  29.2282 i
 90.7  28.2555  29.2288 i
 90.75  26.2534  29.231 i
 90.8  33.2965  29.2332 i
 90.85  36.4986  29.2357 i
 90.9  36.1135  29.2382 i
 90.95  29.5125  29.2391 i
 91  36.2378  29.24 i
 91.05  35.2761  29.2423 i
 91.1  34.6327  29.2446 i
 91.15  38.6807  29.2476 i
 91.2  28.8253  29.2506 i
 91.25  39.9893  29.2519 i
 91.3  20.3905  29.2532 i
 91.35  26.9534  29.2556 i
 91.4  31.281  29.258 i
 91.45  36.6  29.2614 i
 91.5  24.0603  29.2648 i
 91.55  32.8291  29.2665 i
 91.6  22.71  29.2683 i
 91.65  27.3436  29.2707 i
 91.7  31.541  29.2732 i
 91.75  21.4556  29.2769 i
 91.8  33.2908  29.2807 i
 91.85  29.2664  29.283 i
 91.9  32.436  29.2852 i
 91.95  16.9335  29.2877 i
 92  26.1555  29.2902 i
 92.05  31.8952  29.2942 i
 92.1  26.2685  29.2983 i
 92.15  32.2957  29.3011 i
 92.2  32.666  29.3039 i
 92.25  19.5393  29.3064 i
 92.3  31.8021  29.309 i
 92.35  29.8268  29.3133 i
 92.4  43.6436  29.3175 i
 92.45  32.6615  29.3209 i
 92.5  31.3984  29.3242 i
 92.55  35.7058  29.3269 i
 92.6  40.6656  29.3296 i
 92.65  37.9009  29.3339 i
 92.7  28.5245  29.3383 i
 92.75  31.0116  29.3422 i
 92.8  26.266  29.3462 i
 92.85  24.0862  29.349 i
 92.9  30.2818  29.3518 i
 92.95  22.6377  29.3562 i
 93  29.1571  29.3606 i
 93.05  29.6397  29.3651 i
 93.1  29.6438  29.3696 i
 93.15  37.5666  29.3727 i
 93.2  24.9604  29.3758 i
 93.25  32.438  29.3802 i
 93.3  32.0947  29.3845 i
 93.35  38.3586  29.3895 i
 93.4  24.3507  29.3945 i
 93.45  23.2212  29.398 i
 93.5  33.6946  29.4014 i
 93.55  26.1198  29.4061 i
 93.6  33.3078  29.4107 i
 93.65  25.6968  29.416 i
 93.7  28.791  29.4213 i
 93.75  36.2964  29.4253 i
 93.8  31.6905  29.4293 i
 93.85  18.8261  29.4335 i
 93.9  36.1715  29.4377 i
 93.95  29.2737  29.4433 i
 94  30.1743  29.4488 i
 94.05  29.6167  29.4534 i
 94.1  32.2505  29.4579 i
 94.15  37.9424  29.4621 i
 94.2  19.8233  29.4664 i
 94.25  37.9863  29.472 i
 94.3  27.5749  29.4777 i
 94.35  24.8062  29.4829 i
 94.4  41.0662  29.488 i
 94.45  32.8237  29.4923 i
 94.5  25.9471  29.4966 i
 94.55  30.5615  29.5023 i
 94.6  32.3906  29.508 i
 94.65  22.5467  29.5137 i
 94.7  28.5918  29.5195 i
 94.75  30.0205  29.524 i
 94.8  24.7582  29.5285 i
 94.85  39.1438  29.5341 i
 94.9  31.5844  29.5397 i
 94.95  28.8234  29.546 i
 95  34.6199  29.5523 i
 95.05  30.1254  29.5572 i
 95.1  32.2013  29.5622 i
 95.15  22.5148  29.5676 i
 95.2  33.4433  29.573 i
 95.25  33.9461  29.5797 i
 95.3  25.2889  29.5865 i
 95.35  28.7423  29.592 i
 95.4  27.758  29.5976 i
 95.45  28.0965  29.603 i
 95.5  24.9796  29.6083 i
 95.55  30.0642  29.6153 i
 95.6  24.8576  29.6222 i
 95.65  28.7591  29.6286 i
 95.7  29.3999  29.635 i
 95.75  28.4265  29.6405 i
 95.8  27.1221  29.646 i
 95.85  46.1799  29.653 i
 95.9  33.0311  29.66 i
 95.95  19.5375  29.6673 i
 96  31.1779  29.6746 i
 96.05  27.8921  29.6806 i
 96.1  25.0076  29.6865 i
 96.15  18.9486  29.6936 i
 96.2  28.0421  29.7006 i
 96.25  24.4792  29.7089 i
 96.3  29.4788  29.7172 i
 96.35  30.5726  29.7241 i
 96.4  30.7736  29.7311 i
 96.45  32.1322  29.7384 i
 96.5  23.7409  29.7456 i
 96.55  28.0161  29.7549 i
 96.6  27.5343  29.7642 i
 96.65  29.5006  29.7729 i
 96.7  39.6947  29.7816 i
 96.75  23.5499  29.7898 i
 96.8  29.8846  29.798 i
 96.85  30.2367  29.8087 i
 96.9  24.5306  29.8194 i
 96.95  34.3011  29.8311 i
 97  28.6266  29.8427 i
 97.05  39.3016  29.8537 i
 97.1  26.8239  29.8647 i
 97.15  36.1671  29.8786 i
 97.2  28.549  29.8925 i
 97.25  31.3921  29.9105 i
 97.3  33.5731  29.9285 i
 97.35  39.3363  29.9495 i
 97.4  18.9294  29.9705 i
 97.45  33.5871  30.0012 i
 97.5  21.8775  30.0319 i
 97.55  35.5651  30.076 i
 97.6  30.3095  30.1201 i
 97.65  29.1501  30.1695 i
 97.7  28.7734  30.219 i
 97.75  38.5884  30.2806 i
 97.8  24.473  30.3421 i
 97.85  31.1869  30.4338 i
 97.9  22.2042  30.5255 i
 97.95  23.3022  30.67 i
 98  25.26  30.8145 i
 98.05  27.2938  31.0584 i
 98.1  35.344  31.3023 i
 98.15  32.3989  31.7706 i
 98.2  25.5193  32.2389 i
 98.25  43.9032  33.0523 i
 98.3  40.61  34.2943 i
 98.35  41.7432  36.2615 i
 98.4  51.223  39.4924 i
 98.45  47.6078  44.9488 i
 98.5  52.9312  54.1928 i
 98.55  75.1197  69.2224 i
 98.6  82.4284  89.9768 i
 98.65  116.109  112.031 i
 98.7  120.591  124.602 i
 98.75  114.618  119.297 i
 98.8  99.9512  100.043 i
 98.85  91.5957  77.9197 i
 98.9  68.7999  60.6569 i
 98.95  46.9898  49.4238 i
 99  35.3759  42.5969 i
 99.05  36.4176  39.2614 i
 99.1  30.6378  35.9259 i
 99.15  25.7971  34.579 i
 99.2  27.2162  33.232 i
 99.25  32.8957  32.6144 i
 99.3  39.398  31.9968 i
 99.35  19.5361  31.6797 i
 99.4  26.794  31.3625 i
 99.45  30.1755  31.1807 i
 99.5  24.1324  30.9988 i
 99.55  27.553  30.8869 i
 99.6  30.4918  30.775 i
 99.65  26.2198  30.7037 i
 99.7  33.5616  30.6323 i
 99.75  25.4826  30.5785 i
 99.8  26.4953  30.5246 i
 99.85  27.6596  30.4731 i
 99.9  23.589  30.4216 i
 99.95  41.1873  30.3853 i
 100  26.8682  30.3489 i
 100.05  31.6513  30.3333 i
 100.1  30.5037  30.3178 i
 100.15  24.6679  30.3098 i
 100.2  23.8544  30.3018 i
 100.25  32.5827  30.298 i
 100.3  29.6116  30.2943 i
 100.35  34.3893  30.2951 i
 100.4  35.3136  30.296 i
 100.45  31.9639  30.2976 i
 100.5  25.1188  30.2991 i
 100.55  28.25  30.3002 i
 100.6  27.8182  30.3013 i
 100.65  20.3044  30.3047 i
 100.7  26.9396  30.3081 i
 100.75  27.5364  30.3128 i
 100.8  19.9296  30.3176 i
 100.85  24.9918  30.3211 i
 100.9  30.8531  30.3246 i
 100.95  22.2543  30.3285 i
 101  38.8285  30.3324 i
 101.05  41.0843  30.3383 i
 101.1  25.6988  30.3442 i
 101.15  30.0708  30.3494 i
 101.2  44.6696  30.3547 i
 101.25  38.0057  30.359 i
 101.3  23.9449  30.3633 i
 101.35  32.9336  30.369 i
 101.4  31.7315  30.3748 i
 101.45  29.8378  30.3813 i
 101.5  29.7363  30.3877 i
 101.55  37.7276  30.3927 i
 101.6  36.0423  30.3977 i
 101.65  32.1958  30.403 i
 101.7  22.4486  30.4083 i
 101.75  41.4769  30.415 i
 101.8  34.773  30.4218 i
 101.85  31.739  30.4278 i
 101.9  36.5577  30.4337 i
 101.95  35.975  30.4377 i
 102  28.1192  30.4417 i
 102.05  31.0441  30.4486 i
 102.1  25.681  30.4555 i
 102.15  31.977  30.4618 i
 102.2  28.9257  30.4681 i
 102.25  29.9271  30.4731 i
 102.3  24.4636  30.4782 i
 102.35  33.2999  30.4845 i
 102.4  27.4506  30.4907 i
 102.45  34.6254  30.4976 i
 102.5  29.7178  30.5046 i
 102.55  33.0125  30.51 i
 102.6  34.4262  30.5155 i
 102.65  25.8536  30.521 i
 102.7  34.7684  30.5266 i
 102.75  28.0719  30.5335 i
 102.8  28.7273  30.5403 i
 102.85  32.2233  30.5465 i
 102.9  35.6073  30.5527 i
 102.95  30.5017  30.5579 i
 103  34.1796  30.5631 i
 103.05  31.4653  30.5694 i
 103.1  32.8704  30.5757 i
 103.15  31.8764  30.5824 i
 103.2  39.299  30.5891 i
 103.25  37.5437  30.5946 i
 103.3  21.7492  30.6 i
 103.35  24.8597  30.6055 i
 103.4  37.1064  30.611 i
 103.45  32.3682  30.6177 i
 103.5  32.8726  30.6244 i
 103.55  28.1435  30.6304 i
 103.6  21.2224  30.6365 i
 103.65  38.4791  30.6416 i
 103.7  36.7142  30.6467 i
 103.75  33.4141  30.6528 i
 103.8  27.3204  30.6588 i
 103.85  28.1887  30.6653 i
 103.9  34.266  30.6718 i
 103.95  31.7291  30.6771 i
 104  19.9343  30.6825 i
 104.05  21.4418  30.6878 i
 104.1  32.228  30.6931 i
 104.15  34.8804  30.6994 i
 104.2  39.7613  30.7058 i
 104.25  32.0369  30.7116 i
 104.3  33.8138  30.7175 i
 104.35  28.8211  30.7224 i
 104.4  45.6797  30.7273 i
 104.45  34.1515  30.7331 i
 104.5  31.9367  30.7388 i
 104.55  29.1538  30.745 i
 104.6  32.907  30.7512 i
 104.65  36.8628  30.7563 i
 104.7  29.7841  30.7614 i
 104.75  30.9362  30.7664 i
 104.8  29.0123  30.7713 i
 104.85  32.9176  30.7773 i
 104.9  23.5692  30.7832 i
 104.95  33.582  30.7889 i
 105  26.2147  30.7945 i
 105.05  31.482  30.7992 i
 105.1  31.5216  30.8038 i
 105.15  41.5727  30.8091 i
 105.2  29.6144  30.8143 i
 105.25  24.6253  30.8201 i
 105.3  42.6185  30.826 i
 105.35  37.776  30.8309 i
 105.4  32.9867  30.8358 i
 105.45  45.2924  30.8404 i
 105.5  31.336  30.8449 i
 105.55  22.4131  30.8503 i
 105.6  23.6143  30.8557 i
 105.65  28.7182  30.8611 i
 105.7  35.7578  30.8665 i
 105.75  27.2725  30.8709 i
 105.8  31.8717  30.8752 i
 105.85  28.6493  30.8799 i
 105.9  32.5448  30.8845 i
 105.95  34.1092  30.8899 i
 106  35.3  30.8953 i
 106.05  25.7036  30.9 i
 106.1  36.2918  30.9047 i
 106.15  36.7558  30.9088 i
 106.2  27.5513  30.9128 i
 106.25  40.2081  30.9176 i
 106.3  31.2983  30.9224 i
 106.35  30.6961  30.9274 i
 106.4  26.7062  30.9325 i
 106.45  27.6433  30.9366 i
 106.5  36.1876  30.9406 i
 106.55  21.7296  30.9446 i
 106.6  29.923  30.9486 i
 106.65  36.8636  30.9534 i
 106.7  29.8827  30.9582 i
 106.75  36.5157  30.9627 i
 106.8  34.1202  30.9672 i
 106.85  28.6528  30.9708 i
 106.9  24.7436  30.9744 i
 106.95  25.5934  30.9784 i
 107  34.8068  30.9824 i
 107.05  24.9751  30.987 i
 107.1  28.6784  30.9916 i
 107.15  32.3463  30.9954 i
 107.2  31.9484  30.9993 i
 107.25  36.4236  31.0026 i
 107.3  38.0704  31.0059 i
 107.35  25.5209  31.01 i
 107.4  25.7356  31.0141 i
 107.45  20.5323  31.0183 i
 107.5  24.681  31.0226 i
 107.55  27.9989  31.026 i
 107.6  21.3856  31.0294 i
 107.65  25.7082  31.0328 i
 107.7  26.7575  31.0362 i
 107.75  27.9836  31.0404 i
 107.8  34.9757  31.0447 i
 107.85  28.2744  31.0486 i
 107.9  41.3561  31.0526 i
 107.95  34.3723  31.0557 i
 108  28.9715  31.0589 i
 108.05  31.286  31.0625 i
 108.1  36.8295  31.0662 i
 108.15  35.0516  31.0704 i
 108.2  32.8161  31.0746 i
 108.25  28.2943  31.0782 i
 108.3  25.3579  31.0818 i
 108.35  27.1849  31.0849 i
 108.4  32.034  31.088 i
 108.45  34.5522  31.0919 i
 108.5  30.1516  31.0957 i
 108.55  33.0283  31.0998 i
 108.6  33.975  31.1039 i
 108.65  24.8673  31.1072 i
 108.7  22.9244  31.1105 i
 108.75  32.9674  31.1136 i
 108.8  21.5903  31.1168 i
 108.85  36.9786  31.1208 i
 108.9  24.4366  31.1248 i
 108.95  27.7715  31.1287 i
 109  36.0244  31.1325 i
 109.05  21.1302  31.1356 i
 109.1  30.8125  31.1386 i
 109.15  28.3418  31.1419 i
 109.2  38.7517  31.1452 i
 109.25  29.5885  31.1493 i
 109.3  35.5959  31.1533 i
 109.35  27.9774  31.1569 i
 109.4  29.1801  31.1605 i
 109.45  25.3002  31.1634 i
 109.5  27.3586  31.1664 i
 109.55  22.9461  31.1699 i
 109.6  28.0315  31.1733 i
 109.65  32.8222  31.1774 i
 109.7  35.0269  31.1814 i
 109.75  31.8182  31.1847 i
 109.8  23.8185  31.188 i
 109.85  29.6453  31.1909 i
 109.9  26.0549  31.1938 i
 109.95  35.7782  31.1975 i
 110  25.2951  31.2011 i
 110.05  33.5753  31.205 i
 110.1  27.1422  31.2089 i
 110.15  22.598  31.212 i
 110.2  29.5994  31.2151 i
 110.25  42.4359  31.218 i
 110.3  20.8536  31.221 i
 110.35  36.4943  31.2248 i
 110.4  28.4364  31.2285 i
 110.45  32.7427  31.2323 i
 110.5  44.1147  31.236 i
 110.55  25.1748  31.239 i
 110.6  22.198  31.2419 i
 110.65  31.638  31.2449 i
 110.7  30.0743  31.248 i
 110.75  25.429  31.2518 i
 110.8  31.1864  31.2557 i
 110.85  19.4225  31.2593 i
 110.9  27.7334  31.2629 i
 110.95  34.6803  31.2657 i
 111  34.065  31.2685 i
 111.05  28.9778  31.2717 i
 111.1  26.7003  31.2749 i
 111.15  30.5257  31.2788 i
 111.2  25.4967  31.2827 i
 111.25  27.6984  31.2862 i
 111.3  19.7822  31.2896 i
 111.35  24.1382  31.2924 i
 111.4  26.7999  31.2951 i
 111.45  36.3594  31.2984 i
 111.5  31.65  31.3018 i
 111.55  26.3252  31.3058 i
 111.6  34.069  31.3097 i
 111.65  36.418  31.3131 i
 111.7  34.8011  31.3164 i
 111.75  31.212  31.3192 i
 111.8  27.6002  31.322 i
 111.85  36.5215  31.3255 i
 111.9  37.0207  31.329 i
 111.95  30.8084  31.333 i
 112  22.3156  31.3371 i
 112.05  26.3541  31.3404 i
 112.1  36.1514  31.3436 i
 112.15  37.0846  31.3465 i
 112.2  28.8849  31.3494 i
 112.25  31.4685  31.3531 i
 112.3  32.3432  31.3569 i
 112.35  33.8525  31.361 i
 112.4  26.51  31.3652 i
 112.45  38.4036  31.3685 i
 112.5  24.1613  31.3719 i
 112.55  27.447  31.3749 i
 112.6  41.8169  31.378 i
 112.65  31.8162  31.3821 i
 112.7  29.4713  31.3861 i
 112.75  32.6621  31.3905 i
 112.8  24.9462  31.395 i
 112.85  35.4033  31.3985 i
 112.9  35.5903  31.402 i
 112.95  21.8363  31.4055 i
 113  24.607  31.4089 i
 113.05  34.7171  31.4135 i
 113.1  31.5135  31.4181 i
 113.15  27.2777  31.423 i
 113.2  42.6098  31.4279 i
 113.25  27.5709  31.432 i
 113.3  34.1586  31.436 i
 113.35  37.6184  31.4402 i
 113.4  31.2217  31.4444 i
 113.45  17.6681  31.4499 i
 113.5  29.6755  31.4554 i
 113.55  31.1017  31.4614 i
 113.6  23.6964  31.4673 i
 113.65  24.7668  31.4726 i
 113.7  19.9172  31.4779 i
 113.75  38.0016  31.4836 i
 113.8  28.0214  31.4893 i
 113.85  31.421  31.4968 i
 113.9  29.4342  31.5043 i
 113.95  35.4902  31.5127 i
 114  32.3256  31.5211 i
 114.05  33.7493  31.5294 i
 114.1  25.9001  31.5377 i
 114.15  33.7318  31.5473 i
 114.2  32.1246  31.5568 i
 114.25  28.0378  31.5694 i
 114.3  24.1507  31.5821 i
 114.35  33.7282  31.5974 i
 114.4  26.493  31.6128 i
 114.45  34.0032  31.6304 i
 114.5  38.401  31.6481 i
 114.55  22.756  31.6709 i
 114.6  29.4599  31.6936 i
 114.65  29.7738  31.7259 i
 114.7  31.7816  31.7582 i
 114.75  33.5727  31.8029 i
 114.8  31.4459  31.8477 i
 114.85  29.5697  31.9078 i
 114.9  29.6156  31.9679 i
 114.95  37.9558  32.0494 i
 115  21.4224  32.1309 i
 115.05  37.0608  32.2462 i
 115.1  43.7791  32.3614 i
 115.15  30.1184  32.5319 i
 115.2  30.2644  32.7023 i
 115.25  32.6263  32.9682 i
 115.3  37.8524  33.2342 i
 115.35  35.0005  33.6773 i
 115.4  43.6388  34.1205 i
 115.45  41.6988  34.7887 i
 115.5  46.2723  35.6872 i
 115.55  34.581  37.1314 i
 115.6  36.7772  38.5757 i
 115.65  35.4522  41.2873 i
 115.7  53.9861  43.999 i
 115.75  34.2358  48.2418 i
 115.8  51.0341  53.8487 i
 115.85  60.0803  61.0239 i
 115.9  70.9615  69.3486 i
 115.95  80.7573  78.2793 i
 116  90.8161  86.393 i
 116.05  90.5471  91.8303 i
 116.1  95.8388  93.2835 i
 116.15  94.3216  90.1885 i
 116.2  90.0134  83.5754 i
 116.25  68.7418  74.9987 i
 116.3  65.2319  66.1875 i
 116.35  55.8151  58.3573 i
 116.4  45.0843  51.7775 i
 116.45  59.2437  46.8009 i
 116.5  63.2531  42.9429 i
 116.55  36.4578  40.1512 i
 116.6  35.9319  38.1086 i
 116.65  37.631  36.8118 i
 116.7  25.468  35.5151 i
 116.75  35.9561  34.8033 i
 116.8  26.2973  34.0915 i
 116.85  23.645  33.6833 i
 116.9  38.6185  33.2752 i
 116.95  43.4261  33.0272 i
 117  31.8468  32.7793 i
 117.05  30.0862  32.6194 i
 117.1  28.0222  32.4596 i
 117.15  31.0891  32.3513 i
 117.2  46.375  32.243 i
 117.25  34.0309  32.1667 i
 117.3  32.436  32.0903 i
 117.35  36.2905  32.0355 i
 117.4  24.323  31.9807 i
 117.45  33.9773  31.9419 i
 117.5  27.4918  31.903 i
 117.55  30.9195  31.8764 i
 117.6  27.5224  31.8498 i
 117.65  27.2538  31.8319 i
 117.7  24.9949  31.814 i
 117.75  29.8519  31.8011 i
 117.8  26.5912  31.7882 i
 117.85  44.7259  31.7781 i
 117.9  34.4964  31.7679 i
 117.95  29.8507  31.7603 i
 118  31.0504  31.7527 i
 118.05  24.3723  31.7477 i
 118.1  23.0662  31.7428 i
 118.15  39.671  31.7393 i
 118.2  36.4501  31.7358 i
 118.25  28.2419  31.7327 i
 118.3  29.8545  31.7295 i
 118.35  25.7602  31.727 i
 118.4  24.1927  31.7245 i
 118.45  28.4199  31.7233 i
 118.5  34.2531  31.7221 i
 118.55  25.1661  31.7218 i
 118.6  32.1703  31.7214 i
 118.65  31.4772  31.7209 i
 118.7  26.084  31.7204 i
 118.75  25.3759  31.7199 i
 118.8  31.8237  31.7194 i
 118.85  34.1436  31.7197 i
 118.9  35.6689  31.7199 i
 118.95  39.713  31.7208 i
 119  21.0344  31.7217 i
 119.05  18.8197  31.7224 i
 119.1  28.7826  31.7232 i
 119.15  23.0472  31.7237 i
 119.2  28.4659  31.7242 i
 119.25  23.0143  31.7251 i
 119.3  35.2483  31.726 i
 119.35  25.2108  31.7274 i
 119.4  43.702  31.7289 i
 119.45  27.5129  31.7303 i
 119.5  30.2545  31.7318 i
 119.55  28.7858  31.7328 i
 119.6  30.7649  31.7339 i
 119.65  29.3346  31.7351 i
 119.7  41.0804  31.7363 i
 119.75  26.3949  31.738 i
 119.8  33.6299  31.7397 i
 119.85  24.8929  31.7415 i
 119.9  29.6035  31.7433 i
 119.95  32.1728  31.7448 i
 120  34.0747  31.7463 i
 120.05  30.1869  31.7477 i
 120.1  36.4426  31.749 i
 120.15  33.5846  31.7508 i
 120.2  31.6052  31.7525 i
 120.25  28.1925  31.7545 i
 120.3  27.5348  31.7566 i
 120.35  42.4741  31.7583 i
 120.4  24.6732  31.7601 i
 120.45  35.1958  31.7617 i
 120.5  28.2635  31.7632 i
 120.55  32.1507  31.7649 i
 120.6  36.9488  31.7667 i
 120.65  27.0901  31.7687 i
 120.7  37.739  31.7708 i
 120.75  27.9172  31.7728 i
 120.8  30.6266  31.7748 i
 120.85  29.2877  31.7765 i
 120.9  36.415  31.7782 i
 120.95  36.3455  31.7799 i
 121  30.0004  31.7816 i
 121.05  31.4678  31.7837 i
 121.1  30.2014  31.7857 i
 121.15  31.9845  31.7879 i
 121.2  26.2794  31.79 i
 121.25  47.2679  31.7919 i
 121.3  11.0325  31.7937 i
 121.35  29.6951  31.7954 i
 121.4  31.5193  31.7972 i
 121.45  26.8247  31.7991 i
 121.5  27.385  31.8011 i
 121.55  27.3834  31.8033 i
 121.6  37.6371  31.8055 i
 121.65  33.9243  31.8075 i
 121.7  28.6048  31.8095 i
 121.75  22.5493  31.8113 i
 121.8  33.8615  31.8131 i
 121.85  22.7799  31.815 i
 121.9  38.5556  31.8169 i
 121.95  35.7609  31.819 i
 122  22.3308  31.8212 i
 122.05  30.3363  31.8233 i
 122.1  33.1234  31.8255 i
 122.15  32.636  31.8273 i
 122.2  29.6901  31.8292 i
 122.25  22.4165  31.8311 i
 122.3  15.9276  31.8329 i
 122.35  24.845  31.835 i
 122.4  26.4353  31.837 i
 122.45  28.0465  31.8392 i
 122.5  23.1165  31.8414 i
 122.55  27.4306  31.8435 i
 122.6  22.649  31.8455 i
 122.65  23.2243  31.8473 i
 122.7  35.7702  31.8492 i
 122.75  24.9308  31.8511 i
 122.8  31.9118  31.8531 i
 122.85  33.5418  31.8553 i
 122.9  31.8076  31.8574 i
 122.95  33.6313  31.8592 i
 123  39.616  31.8609 i
 123.05  22.1803  31.863 i
 123.1  38.6598  31.8651 i
 123.15  42.2697  31.867 i
 123.2  35.431  31.8689 i
 123.25  26.6724  31.8708 i
 123.3  19.8017  31.8726 i
 123.35  35.5158  31.8748 i
 123.4  47.5502  31.8769 i
 123.45  29.4781  31.8792 i
 123.5  35.0903  31.8814 i
 123.55  30.7284  31.8834 i
 123.6  33.6209  31.8854 i
 123.65  32.7679  31.8873 i
 123.7  29.694  31.8891 i
 123.75  23.9056  31.8911 i
 123.8  31.9235  31.8931 i
 123.85  36.8453  31.8954 i
 123.9  19.2826  31.8976 i
 123.95  28.2186  31.8998 i
 124  26.5181  31.9019 i
 124.05  46.724  31.9039 i
 124.1  27.217  31.9058 i
 124.15  29.3276  31.9077 i
 124.2  45.4593  31.9096 i
 124.25  25.2924  31.9117 i
 124.3  27.777  31.9138 i
 124.35  35.6655  31.9161 i
 124.4  29.5852  31.9183 i
 124.45  31.7055  31.9204 i
 124.5  36.8376  31.9225 i
 124.55  28.4181  31.9244 i
 124.6  27.3389  31.9263 i
 124.65  31.9607  31.9283 i
 124.7  37.143  31.9303 i
 124.75  26.5732  31.9324 i
 124.8  27.2075  31.9346 i
 124.85  33.1239  31.9369 i
 124.9  31.4094  31.9391 i
 124.95  39.0198  31.9411 i
 125  26.5484  31.9432 i
 125.05  29.2961  31.9451 i
 125.1  21.0645  31.947 i
 125.15  22.2133  31.949 i
 125.2  25.1699  31.9511 i
 125.25  35.8594  31.9533 i
 125.3  30.0519  31.9555 i
 125.35  42.6145  31.9577 i
 125.4  28.2249  31.9599 i
 125.45  23.6444  31.9619 i
 125.5  29.8335  31.9639 i
 125.55  32.5746  31.9659 i
 125.6  30.4283  31.9678 i
 125.65  26.1206  31.9699 i
 125.7  26.3654  31.972 i
 125.75  31.0231  31.9743 i
 125.8  28.6534  31.9765 i
 125.85  22.3654  31.9787 i
 125.9  30.4063  31.9809 i
 125.95  32.3856  31.9828 i
 126  37.9276  31.9848 i
 126.05  26.7058  31.9868 i
 126.1  27.4598  31.9888 i
 126.15  28.9503  31.991 i
 126.2  26.5253  31.9931 i
 126.25  21.3579  31.9954 i
 126.3  20.7558  31.9977 i
 126.35  29.842  31.9998 i
 126.4  24.5293  32.0019 i
 126.45  24.1346  32.0039 i
 126.5  36.526  32.0059 i
 126.55  33.0531  32.0079 i
 126.6  34.9094  32.01 i
 126.65  31.2737  32.0122 i
 126.7  36.7663  32.0144 i
 126.75  34.2906  32.0167 i
 126.8  29.4545  32.019 i
 126.85  32.7297  32.0211 i
 126.9  26.599  32.0232 i
 126.95  28.7132  32.0252 i
 127  34.7531  32.0272 i
 127.05  29.6994  32.0293 i
 127.1  26.9784  32.0314 i
 127.15  26.7863  32.0336 i
 127.2  31.1248  32.0359 i
 127.25  27.1066  32.0381 i
 127.3  33.6483  32.0404 i
 127.35  40.5065  32.0425 i
 127.4  26.7158  32.0447 i
 127.45  33.5333  32.0467 i
 127.5  33.0377  32.0487 i
 127.55  32.3929  32.0508 i
 127.6  35.6955  32.053 i
 127.65  26.6244  32.0552 i
 127.7  31.7829  32.0575 i
 127.75  25.5783  32.0598 i
 127.8  33.7715  32.0621 i
 127.85  37.0175  32.0642 i
 127.9  32.1354  32.0664 i
 127.95  39.8465  32.0684 i
 128  26.5685  32.0705 i
 128.05  32.578  32.0726 i
 128.1  38.5018  32.0748 i
 128.15  27.2125  32.0771 i
 128.2  35.805  32.0794 i
 128.25  31.4649  32.0817 i
 128.3  23.6873  32.084 i
 128.35  37.2274  32.0862 i
 128.4  33.3428  32.0883 i
 128.45  21.4706  32.0904 i
 128.5  26.4107  32.0925 i
 128.55  25.4542  32.0947 i
 128.6  26.52  32.0969 i
 128.65  33.9539  32.0992 i
 128.7  22.8503  32.1016 i
 128.75  23.9797  32.1039 i
 128.8  28.8081  32.1062 i
 128.85  24.9307  32.1084 i
 128.9  34.2024  32.1106 i
 128.95  35.1939  32.1127 i
 129  40.8483  32.1148 i
 129.05  24.5405  32.117 i
 129.1  31.8308  32.1193 i
 129.15  28.2145  32.1216 i
 129.2  23.3251  32.124 i
 129.25  36.6299  32.1263 i
 129.3  35.8668  32.1287 i
 129.35  32.438  32.1309 i
 129.4  22.4164  32.1332 i
 129.45  29.3704  32.1353 i
 129.5  24.9735  32.1375 i
 129.55  31.1728  32.1397 i
 129.6  47.4528  32.142 i
 129.65  35.7543  32.1443 i
 129.7  34.8647  32.1467 i
 129.75  30.072  32.1491 i
 129.8  36.4644  32.1515 i
 129.85  30.6729  32.1538 i
 129.9  29.777  32.1561 i
 129.95  34.8968  32.1685 i
 130  27.0918  32.1808 i

