40 40.028 32.7369 7.2911
40.05 31.7025 32.74 -1.0375
40.1 42.017 32.7431 9.2739
40.15 28.6423 32.7395 -4.0972
40.2 44.5413 32.7358 11.8055
40.25 31.5493 32.735 -1.1857
40.3 33.7608 32.7342 1.0266
40.35 49.7941 32.7355 17.0586
40.4 36.3509 32.7368 3.6141
40.45 41.3645 32.7317 8.6328
40.5 37.501 32.7265 4.7745
40.55 38.4178 32.7317 5.6861
40.6 45.9811 32.7368 13.2443
40.65 48.4662 32.7306 15.7356
40.7 36.5584 32.7234 3.835
40.75 37.2617 32.7285 4.5332
40.8 46.9565 32.7337 14.2228
40.85 33.1199 32.7298 0.3901
40.9 38.6161 32.7258 5.8903
40.95 34.9684 32.727 2.2414
41 35.2569 32.7282 2.5287
41.05 44.9534 32.7302 12.2232
41.1 32.8475 32.7322 0.1153
41.15 30.4859 32.7281 -2.2422
41.2 29.1513 32.7241 -3.5728
41.25 35.8935 32.7313 3.1622
41.3 32.551 32.7386 -0.1876
41.35 42.2163 32.7322 9.4841
41.4 34.4686 32.7259 1.7427
41.45 48.4339 32.7314 15.7025
41.5 40.0636 32.7423 7.3213
41.55 28.4524 32.7391 -4.2867
41.6 49.5406 32.7359 16.8047
41.65 37.2515 32.7337 4.5178
41.7 46.9118 32.7442 14.1676
41.75 33.8178 32.7484 1.0694
41.8 39.5508 32.7527 6.7981
41.85 36.5362 32.7509 3.7853
41.9 32.0854 32.7491 -0.6637
41.95 37.5744 32.7608 4.8136
42 48.3139 32.7724 15.5415
42.05 39.7781 32.7681 7.01
42.1 27.3136 32.7638 -5.4502
42.15 31.2367 32.7779 -1.5412
42.2 35.7259 32.7921 2.9338
42.25 30.0342 32.7925 -2.7583
42.3 31.9391 32.7929 -0.8538
42.35 37.051 32.8035 4.2475
42.4 34.905 32.8141 2.0909
42.45 33.2947 32.8256 0.4691
42.5 39.8539 32.8372 7.0167
42.55 36.5263 32.8421 3.6842
42.6 30.6982 32.847 -2.1488
42.65 38.7576 32.8709 5.8867
42.7 33.5493 32.8947 0.6546
42.75 34.3181 32.8998 1.4183
42.8 37.0079 32.9048 4.1031
42.85 41.8393 32.9362 8.9031
42.9 30.8497 32.9675 -2.1178
42.95 44.9708 32.985 11.9858
43 40.6525 33.0026 7.6499
43.05 41.9568 33.0365 8.9203
43.1 34.493 33.0705 1.4225
43.15 36.9817 33.1151 3.8666
43.2 39.6637 33.1597 6.504
43.25 33.3346 33.2051 0.1295
43.3 28.6188 33.2504 -4.6316
43.35 32.4314 33.3845 -0.9531
43.4 33.5538 33.5186 0.0352
43.45 46.0688 33.7933 12.2755
43.5 42.0486 34.0681 7.9805
43.55 33.1787 34.2663 -1.0876
43.6 42.0697 34.4644 7.6053
43.65 40.0445 34.6958 5.3487
43.7 35.5892 34.9271 0.6621
43.75 32.333 35.2663 -2.9333
43.8 32.1862 35.6056 -3.4194
43.85 34.6545 36.1306 -1.4761
43.9 32.8571 36.6556 -3.7985
43.95 34.9908 37.464 -2.4732
44 38.6758 38.2724 0.4034
44.05 40.9667 39.5377 1.429
44.1 62.4257 41.2687 21.157
44.15 48.41 43.7602 4.6498
44.2 54.2826 47.3371 6.9455
44.25 60.32 53.3252 6.9948
44.3 78.0715 64.4256 13.6459
44.35 95.7907 89.2129 6.5778
44.4 164.947 156.702 8.245
44.45 315.532 347.04 -31.508
44.5 806.586 787.814 18.772
44.55 1493.87 1480.48 13.39
44.6 1889.38 2014.84 -125.46
44.65 1465.26 1563.06 -97.8
44.7 541.665 526.845 14.82
44.75 175.963 179.731 -3.768
44.8 88.8371 95.8845 -7.0474
44.85 56.0864 67.5404 -11.454
44.9 44.9121 53.6258 -8.7137
44.95 44.4067 46.7418 -2.3351
45 44.5514 42.7467 1.8047
45.05 60.1839 40.2519 19.932
45.1 37.4105 38.5687 -1.1582
45.15 38.3455 37.5117 0.8338
45.2 38.3896 36.4548 1.9348
45.25 39.0387 35.8944 3.1443
45.3 30.9206 35.334 -4.4134
45.35 43.1288 34.9684 8.1604
45.4 34.5205 34.6028 -0.0823
45.45 23.4276 34.3643 -10.9367
45.5 32.4292 34.1259 -1.6967
45.55 38.9373 33.9738 4.9635
45.6 38.8 33.8218 4.9782
45.65 35.874 33.6856 2.1884
45.7 29.3046 33.5495 -4.2449
45.75 45.9023 33.465 12.4373
45.8 31.5675 33.3805 -1.813
45.85 39.1253 33.2569 5.8684
45.9 26.1875 33.1334 -6.9459
45.95 30.234 33.0859 -2.8519
46 44.739 33.0385 11.7005
46.05 38.5995 32.9985 5.601
46.1 33.657 32.9584 0.6986
46.15 34.3149 32.9179 1.397
46.2 36.0815 32.8774 3.2041
46.25 33.8881 32.8615 1.0266
46.3 36.6284 32.8457 3.7827
46.35 41.3348 32.8102 8.5246
46.4 30.1319 32.7747 -2.6428
46.45 32.327 32.7658 -0.4388
46.5 37.3311 32.7569 4.5742
46.55 29.302 32.7339 -3.4319
46.6 30.052 32.7108 -2.6588
46.65 38.586 32.6972 5.8888
46.7 34.9991 32.6837 2.3154
46.75 32.0556 32.6752 -0.6196
46.8 30.6932 32.6667 -1.9735
46.85 31.2094 32.6474 -1.438
46.9 47.8651 32.6281 15.237
46.95 40.2773 32.6278 7.6495
47 35.6962 32.6276 3.0686
47.05 38.7928 32.6096 6.1832
47.1 29.1822 32.5916 -3.4094
47.15 36.7914 32.5897 4.2017
47.2 35.0038 32.5879 2.4159
47.25 34.4573 32.5783 1.879
47.3 40.4736 32.5688 7.9048
47.35 43.5882 32.56 11.0282
47.4 34.7654 32.5511 2.2143
47.45 32.8133 32.5507 0.2626
47.5 33.5422 32.5502 0.992
47.55 36.0655 32.5368 3.5287
47.6 37.3766 32.5234 4.8532
47.65 28.2759 32.526 -4.2501
47.7 46.5503 32.5285 14.0218
47.75 27.875 32.5176 -4.6426
47.8 39.2317 32.5067 6.725
47.85 35.821 32.505 3.316
47.9 30.4177 32.5033 -2.0856
47.95 32.4539 32.4998 -0.0459
48 23.2755 32.4963 -9.2208
48.05 31.6944 32.4881 -0.7937
48.1 31.5098 32.48 -0.9702
48.15 36.2049 32.4824 3.7225
48.2 39.6104 32.4849 7.1255
48.25 36.1297 32.4744 3.6553
48.3 29.7038 32.464 -2.7602
48.35 33.424 32.4663 0.9577
48.4 41.8448 32.4685 9.3763
48.45 38.6096 32.462 6.1476
48.5 29.8242 32.4555 -2.6313
48.55 35.0783 32.4524 2.6259
48.6 27.2065 32.4494 -5.2429
48.65 35.4631 32.4493 3.0138
48.7 37.614 32.4493 5.1647
48.75 22.0801 32.4386 -10.3585
48.8 49.2304 32.4332 16.7972
48.85 32.1606 32.4364 -0.2758
48.9 35.0356 32.4395 2.5961
48.95 31.207 32.4316 -1.2246
49 33.0992 32.4236 0.6756
49.05 39.3871 32.4243 6.9628
49.1 40.2479 32.425 7.8229
49.15 27.4756 32.422 -4.9464
49.2 27.8085 32.4189 -4.6104
49.25 25.5825 32.4148 -6.8323
49.3 28.1383 32.4108 -4.2725
49.35 21.1547 32.4124 -11.2577
49.4 31.4959 32.4141 -0.9182
49.45 23.1757 32.4067 -9.231
49.5 33.6959 32.3994 1.2965
49.55 38.2154 32.4019 5.8135
49.6 26.1132 32.4044 -6.2912
49.65 32.9034 32.3989 0.5045
49.7 35.096 32.3935 2.7025
49.75 20.9159 32.3923 -11.4764
49.8 23.2863 32.3911 -9.1048
49.85 32.0098 32.3905 -0.3807
49.9 38.1588 32.3899 5.7689
49.95 39.8757 32.3844 7.4913
50 39.2898 32.3788 6.911
50.05 45.3826 32.3813 13.0013
50.1 35.6426 32.3838 3.2588
50.15 31.4311 32.3775 -0.9464
50.2 29.5905 32.3712 -2.7807
50.25 35.149 32.3723 2.7767
50.3 37.6962 32.3734 5.3228
50.35 43.1226 32.3705 10.7521
50.4 33.5444 32.3676 1.1768
50.45 29.8112 32.3644 -2.5532
50.5 33.0954 32.3613 0.7341
50.55 26.9074 32.3626 -5.4552
50.6 31.3059 32.3638 -1.0579
50.65 36.6794 32.3579 4.3215
50.7 39.9119 32.3519 7.56
50.75 27.3971 32.3541 -4.957
50.8 34.8105 32.3563 2.4542
50.85 27.7875 32.3517 -4.5642
50.9 35.6004 32.3472 3.2532
50.95 40.5997 32.3463 8.2534
51 29.6708 32.3454 -2.6746
51.05 25.8622 32.3449 -6.4827
51.1 31.0158 32.3443 -1.3285
51.15 39.1132 32.3397 6.7735
51.2 29.2377 32.335 -3.0973
51.25 33.5821 32.3371 1.245
51.3 30.0993 32.3392 -2.2399
51.35 38.3836 32.3339 6.0497
51.4 38.0319 32.3286 5.7033
51.45 33.52 32.3294 1.1906
51.5 33.6284 32.3301 1.2983
51.55 30.767 32.3279 -1.5609
51.6 34.0299 32.3256 1.7043
51.65 36.4751 32.3226 4.1525
51.7 31.618 32.3196 -0.7016
51.75 30.9411 32.3208 -1.3797
51.8 43.6904 32.3221 11.3683
51.85 27.7861 32.3169 -4.5308
51.9 32.7477 32.3116 0.4361
51.95 33.3121 32.3133 0.9988
52 24.2769 32.315 -8.0381
52.05 18.0648 32.3113 -14.2465
52.1 28.8858 32.3077 -3.4219
52.15 32.7835 32.3064 0.4771
52.2 29.5184 32.305 -2.7866
52.25 29.6891 32.305 -2.6159
52.3 39.9312 32.305 7.6262
52.35 29.01 32.3005 -3.2905
52.4 34.5479 32.296 2.2519
52.45 34.3432 32.2978 2.0454
52.5 32.9908 32.2997 0.6911
52.55 23.4556 32.2952 -8.8396
52.6 32.4932 32.2907 0.2025
52.65 32.484 32.2908 0.1932
52.7 36.5496 32.2908 4.2588
52.75 36.3853 32.2894 4.0959
52.8 31.227 32.288 -1.061
52.85 34.3881 32.2846 2.1035
52.9 29.8098 32.2813 -2.4715
52.95 35.7131 32.2827 3.4304
53 37.0793 32.2841 4.7952
53.05 29.9322 32.2793 -2.3471
53.1 33.3397 32.2746 1.0651
53.15 33.3809 32.2756 1.1053
53.2 31.5483 32.2765 -0.7282
53.25 30.2908 32.2739 -1.9831
53.3 27.4547 32.2713 -4.8166
53.35 22.7506 32.2692 -9.5186
53.4 45.3282 32.267 13.0612
53.45 23.9299 32.2676 -8.3377
53.5 29.0303 32.2682 -3.2379
53.55 35.4395 32.2637 3.1758
53.6 32.721 32.2592 0.4618
53.65 27.1128 32.2606 -5.1478
53.7 34.9181 32.262 2.6561
53.75 22.0853 32.2585 -10.1732
53.8 38.0826 32.2551 5.8275
53.85 24.5038 32.254 -7.7502
53.9 26.3391 32.2529 -5.9138
53.95 29.9101 32.2526 -2.3425
54 33.3448 32.2523 1.0925
54.05 26.7462 32.2483 -5.5021
54.1 24.1761 32.2444 -8.0683
54.15 25.8318 32.2458 -6.414
54.2 41.9148 32.2472 9.6676
54.25 31.2618 32.2432 -0.9814
54.3 31.6381 32.2391 -0.601
54.35 31.2373 32.239 -1.0017
54.4 29.9042 32.2388 -2.3346
54.45 29.6287 32.2375 -2.6088
54.5 33.3865 32.2363 1.1502
54.55 30.1717 32.233 -2.0613
54.6 23.1948 32.2298 -9.035
54.65 35.866 32.2309 3.6351
54.7 31.387 32.2321 -0.8451
54.75 33.3101 32.2278 1.0823
54.8 30.8597 32.2235 -1.3638
54.85 33.3012 32.224 1.0772
54.9 27.2739 32.2245 -4.9506
54.95 28.4383 32.2224 -3.7841
55 35.8209 32.2203 3.6006
55.05 22.716 32.2178 -9.5018
55.1 24.2605 32.2153 -7.9548
55.15 37.0516 32.216 4.8356
55.2 30.9671 32.2166 -1.2495
55.25 35.7078 32.2124 3.4954
55.3 27.1584 32.2082 -5.0498
55.35 22.1984 32.209 -10.0106
55.4 39.5758 32.2098 7.366
55.45 40.4059 32.207 8.1989
55.5 34.9189 32.2043 2.7146
55.55 35.7588 32.2025 3.5563
55.6 32.3797 32.2007 0.179
55.65 19.1861 32.2008 -13.0147
55.7 36.1849 32.2009 3.984
55.75 27.1558 32.1969 -5.0411
55.8 28.7375 32.1928 -3.4553
55.85 31.233 32.1938 -0.9608
55.9 33.323 32.1948 1.1282
55.95 33.3488 32.1916 1.1572
56 29.679 32.1883 -2.5093
56.05 26.2977 32.1871 -5.8894
56.1 25.6613 32.1859 -6.5246
56.15 33.106 32.1855 0.9205
56.2 30.3194 32.185 -1.8656
56.25 34.9974 32.1813 2.8161
56.3 23.6659 32.1775 -8.5116
56.35 31.6684 32.1785 -0.5101
56.4 33.5981 32.1795 1.4186
56.45 33.6663 32.1759 1.4904
56.5 33.2025 32.1723 1.0302
56.55 37.6311 32.1715 5.4596
56.6 37.1226 32.1708 4.9518
56.65 28.8273 32.1699 -3.3426
56.7 30.853 32.1689 -1.3159
56.75 33.0827 32.1654 0.9173
56.8 34.596 32.162 2.434
56.85 33.8042 32.1629 1.6413
56.9 36.4221 32.1638 4.2583
56.95 28.2171 32.16 -3.9429
57 28.7728 32.1561 -3.3833
57.05 33.3806 32.1558 1.2248
57.1 27.7875 32.1554 -4.3679
57.15 31.0603 32.154 -1.0937
57.2 35.0517 32.1526 2.8991
57.25 36.5531 32.1494 4.4037
57.3 30.3705 32.1463 -1.7758
57.35 25.6379 32.147 -6.5091
57.4 36.7611 32.1477 4.6134
57.45 34.9592 32.1438 2.8154
57.5 22.1746 32.1398 -9.9652
57.55 29.4309 32.1397 -2.7088
57.6 39.3063 32.1396 7.1667
57.65 20.2505 32.1378 -11.8873
57.7 25.6626 32.136 -6.4734
57.75 27.5959 32.1331 -4.5372
57.8 39.2205 32.1302 7.0903
57.85 30.1008 32.1308 -2.03
57.9 29.9505 32.1313 -2.1808
57.95 23.3912 32.1273 -8.7361
58 39.2145 32.1233 7.0912
58.05 34.4678 32.1233 2.3445
58.1 33.7833 32.1233 1.66
58.15 28.7712 32.1213 -3.3501
58.2 47.7739 32.1192 15.6547
58.25 30.1093 32.1165 -2.0072
58.3 26.6269 32.1139 -5.487
58.35 31.7377 32.1142 -0.3765
58.4 30.1779 32.1146 -1.9367
58.45 35.7043 32.1106 3.5937
58.5 19.5608 32.1065 -12.5457
58.55 26.7126 32.1066 -5.394
58.6 29.7169 32.1067 -2.3898
58.65 34.4103 32.1044 2.3059
58.7 36.6653 32.1021 4.5632
58.75 34.4694 32.0996 2.3698
58.8 30.7159 32.0971 -1.3812
58.85 35.8082 32.0973 3.7109
58.9 29.1266 32.0975 -2.9709
58.95 35.1881 32.0935 3.0946
59 30.208 32.0894 -1.8814
59.05 33.5857 32.0895 1.4962
59.1 30.1299 32.0897 -1.9598
59.15 42.5893 32.0872 10.5021
59.2 35.8901 32.0848 3.8053
59.25 35.8042 32.0824 3.7218
59.3 35.3151 32.0799 3.2352
59.35 28.6673 32.08 -3.4127
59.4 39.5205 32.0801 7.4404
59.45 36.4208 32.0761 4.3447
59.5 35.0314 32.072 2.9594
59.55 31.8725 32.0721 -0.1996
59.6 24.0828 32.0722 -7.9894
59.65 38.0325 32.0697 5.9628
59.7 33.8985 32.0672 1.8313
59.75 30.6098 32.0648 -1.455
59.8 29.7569 32.0623 -2.3054
59.85 30.7553 32.0624 -1.3071
59.9 27.4304 32.0624 -4.632
59.95 40.5241 32.054 8.4701
60 23.8951 32.0456 -8.1505
60.05 30.9021 32.0438 -1.1417
60.1 41.2169 32.0419 9.175
60.15 35.9692 32.0398 3.9294
60.2 30.9144 32.0377 -1.1233
60.25 34.9576 32.0365 2.9211
60.3 28.7781 32.0353 -3.2572
60.35 26.4866 32.0328 -5.5462
60.4 39.2717 32.0304 7.2413
60.45 37.0822 32.029 5.0532
60.5 28.7166 32.0276 -3.311
60.55 35.805 32.0258 3.7792
60.6 36.57 32.0239 4.5461
60.65 36.0545 32.0217 4.0328
60.7 26.6917 32.0195 -5.3278
60.75 23.7993 32.0183 -8.219
60.8 29.6258 32.0172 -2.3914
60.85 30.5307 32.0147 -1.484
60.9 25.0216 32.0122 -6.9906
60.95 38.5745 32.0108 6.5637
61 37.1538 32.0093 5.1445
61.05 36.0598 32.0076 4.0522
61.1 25.0366 32.0058 -6.9692
61.15 27.5872 32.0035 -4.4163
61.2 26.6576 32.0012 -5.3436
61.25 30.4402 32.0001 -1.5599
61.3 25.4527 31.9991 -6.5464
61.35 30.7341 31.9966 -1.2625
61.4 29.3497 31.9941 -2.6444
61.45 25.6305 31.9926 -6.3621
61.5 28.9059 31.9912 -3.0853
61.55 32.1847 31.9896 0.1951
61.6 33.2473 31.988 1.2593
61.65 32.4359 31.9856 0.4503
61.7 29.7921 31.9832 -2.1911
61.75 26.3431 31.9823 -5.6392
61.8 26.3499 31.9815 -5.6316
61.85 33.4747 31.979 1.4957
61.9 25.6993 31.9766 -6.2773
61.95 36.1639 31.9752 4.1887
62 29.3659 31.9738 -2.6079
62.05 20.9291 31.9725 -11.0434
62.1 26.178 31.9713 -5.7933
62.15 28.5429 31.9688 -3.4259
62.2 30.576 31.9664 -1.3904
62.25 36.6589 31.9659 4.693
62.3 38.4558 31.9654 6.4904
62.35 30.0782 31.9632 -1.885
62.4 30.2217 31.9611 -1.7394
62.45 30.0601 31.9598 -1.8997
62.5 41.7759 31.9586 9.8173
62.55 24.0643 31.958 -7.8937
62.6 27.1189 31.9574 -4.8385
62.65 22.7816 31.9552 -9.1736
62.7 34.7153 31.953 2.7623
62.75 19.1486 31.9533 -12.8047
62.8 38.8531 31.9535 6.8996
62.85 19.0581 31.9523 -12.8942
62.9 29.3606 31.951 -2.5904
62.95 35.4387 31.9504 3.4883
63 28.4831 31.9498 -3.4667
63.05 36.7827 31.9509 4.8318
63.1 27.561 31.952 -4.391
63.15 29.6158 31.951 -2.3352
63.2 21.1888 31.9501 -10.7613
63.25 23.2042 31.9525 -8.7483
63.3 39.8855 31.9549 7.9306
63.35 42.7511 31.9568 10.7943
63.4 39.0148 31.9588 7.056
63.45 34.095 31.962 2.133
63.5 36.1211 31.9652 4.1559
63.55 24.3396 31.975 -7.6354
63.6 30.9573 31.9849 -1.0276
63.65 24.1799 32.0049 -7.825
63.7 28.9832 32.025 -3.0418
63.75 27.2087 32.0575 -4.8488
63.8 25.5045 32.09 -6.5855
63.85 41.3195 32.1183 9.2012
63.9 25.1598 32.1465 -6.9867
63.95 32.4305 32.18 0.2505
64 31.4334 32.2135 -0.7801
64.05 22.3183 32.2675 -9.9492
64.1 33.4968 32.3215 1.1753
64.15 42.548 32.401 10.147
64.2 21.2642 32.4804 -11.2162
64.25 32.5917 32.617 -0.0253
64.3 34.2521 32.7536 1.4985
64.35 32.7429 33.0104 -0.2675
64.4 35.7337 33.2671 2.4666
64.45 38.9331 33.8116 5.1215
64.5 47.5835 34.3561 13.2274
64.55 49.4058 35.4241 13.9817
64.6 38.0802 37.2651 0.8151
64.65 47.2119 40.6616 6.5503
64.7 45.8994 47.3236 -1.4242
64.75 64.6193 60.5503 4.069
64.8 94.0214 84.4029 9.6185
64.85 116.41 117.569 -1.159
64.9 134.29 144.317 -10.027
64.95 139.51 141.046 -1.536
65 102.593 108.264 -5.671
65.05 76.7996 74.2328 2.5668
65.1 60.6308 53.2651 7.3657
65.15 42.2647 43.1719 -0.9072
65.2 47.3745 38.3124 9.0621
65.25 30.531 36.388 -5.857
65.3 28.5555 34.4637 -5.9082
65.35 23.051 33.8145 -10.7635
65.4 28.9175 33.1654 -4.2479
65.45 33.4621 32.8887 0.5734
65.5 24.7213 32.612 -7.8907
65.55 21.7215 32.4681 -10.7466
65.6 32.2621 32.3241 -0.062
65.65 21.2768 32.2453 -10.9685
65.7 23.455 32.1665 -8.7115
65.75 21.486 32.1147 -10.6287
65.8 33.0683 32.0629 1.0054
65.85 29.4037 32.0269 -2.6232
65.9 34.8467 31.9909 2.8558
65.95 43.4335 31.9673 11.4662
66 27.0493 31.9437 -4.8944
66.05 20.8369 31.9178 -11.0809
66.1 25.3436 31.8919 -6.5483
66.15 37.588 31.8703 5.7177
66.2 26.0757 31.8487 -5.773
66.25 20.1515 31.8363 -11.6848
66.3 25.079 31.8238 -6.7448
66.35 22.6668 31.8124 -9.1456
66.4 34.5129 31.8011 2.7118
66.45 28.0689 31.7952 -3.7263
66.5 25.8839 31.7894 -5.9055
66.55 33.0594 31.7818 1.2776
66.6 26.1929 31.7742 -5.5813
66.65 32.2823 31.7676 0.5147
66.7 28.5868 31.7611 -3.1743
66.75 32.6821 31.7572 0.9249
66.8 34.8286 31.7532 3.0754
66.85 26.2344 31.7464 -5.512
66.9 16.106 31.7395 -15.6335
66.95 25.6438 31.7357 -6.0919
67 25.0314 31.732 -6.7006
67.05 33.2278 31.7276 1.5002
67.1 33.2811 31.7233 1.5578
67.15 23.3802 31.7176 -8.3374
67.2 27.4423 31.7119 -4.2696
67.25 37.1382 31.7093 5.4289
67.3 24.9404 31.7068 -6.7664
67.35 31.1088 31.7015 -0.5927
67.4 31.1342 31.6963 -0.5621
67.45 33.3137 31.6923 1.6214
67.5 26.246 31.6883 -5.4423
67.55 35.6902 31.6854 4.0048
67.6 25.1968 31.6825 -6.4857
67.65 21.6663 31.6771 -10.0108
67.7 23.5826 31.6717 -8.0891
67.75 22.9931 31.6691 -8.676
67.8 26.0999 31.6664 -5.5665
67.85 24.4609 31.6624 -7.2015
67.9 35.1385 31.6584 3.4801
67.95 39.506 31.6538 7.8522
68 26.8673 31.6492 -4.7819
68.05 21.6763 31.6469 -9.9706
68.1 31.7619 31.6446 0.1173
68.15 30.1666 31.6396 -1.473
68.2 31.6629 31.6346 0.0283
68.25 24.1092 31.6313 -7.5221
68.3 34.3215 31.628 2.6935
68.35 21.0617 31.6249 -10.5632
68.4 24.0252 31.6218 -7.5966
68.45 32.4656 31.6168 0.8488
68.5 38.4823 31.6118 6.8705
68.55 26.1986 31.6093 -5.4107
68.6 23.1756 31.6069 -8.4313
68.65 29.4778 31.6026 -2.1248
68.7 33.2755 31.5984 1.6771
68.75 32.3008 31.5942 0.7066
68.8 29.8303 31.59 -1.7597
68.85 32.8324 31.5875 1.2449
68.9 32.3914 31.585 0.8064
68.95 26.2354 31.58 -5.3446
69 26.2593 31.5749 -5.3156
69.05 28.1775 31.5718 -3.3943
69.1 27.4065 31.5687 -4.1622
69.15 30.4624 31.5653 -1.1029
69.2 32.2245 31.5619 0.6626
69.25 26.8055 31.557 -4.7515
69.3 24.8498 31.5521 -6.7023
69.35 31.1232 31.5495 -0.4263
69.4 26.8486 31.547 -4.6984
69.45 27.1091 31.5425 -4.4334
69.5 28.1396 31.538 -3.3984
69.55 22.4651 31.5339 -9.0688
69.6 30.893 31.5298 -0.6368
69.65 38.4503 31.5271 6.9232
69.7 23.6956 31.5243 -7.8287
69.75 31.6997 31.5191 0.1806
69.8 23.3498 31.514 -8.1642
69.85 37.0802 31.5109 5.5693
69.9 29.7002 31.5077 -1.8075
69.95 29.9785 31.504 -1.5255
70 31.0354 31.5003 -0.4649
70.05 25.9455 31.4954 -5.5499
70.1 32.8237 31.4904 1.3333
70.15 30.0536 31.4877 -1.4341
70.2 25.5957 31.4851 -5.8894
70.25 33.0377 31.4803 1.5574
70.3 32.3317 31.4756 0.8561
70.35 33.3978 31.4714 1.9264
70.4 28.8166 31.4673 -2.6507
70.45 24.4281 31.4642 -7.0361
70.5 24.1241 31.4612 -7.3371
70.55 29.8786 31.4559 -1.5773
70.6 33.4124 31.4506 1.9618
70.65 23.8481 31.4474 -7.5993
70.7 36.9852 31.4441 5.5411
70.75 18.6527 31.4401 -12.7874
70.8 38.758 31.4362 7.3218
70.85 30.6364 31.4311 -0.7947
70.9 25.1638 31.426 -6.2622
70.95 32.6983 31.4231 1.2752
71 24.1421 31.4202 -7.2781
71.05 34.6745 31.4153 3.2592
71.1 27.701 31.4103 -3.7093
71.15 31.104 31.406 -0.302
71.2 30.9979 31.4016 -0.4037
71.25 31.117 31.3983 -0.2813
71.3 33.5844 31.395 2.1894
71.35 31.3321 31.3894 -0.0573
71.4 26.9219 31.3838 -4.4619
71.45 28.9515 31.38 -2.4285
71.5 28.0881 31.3763 -3.2882
71.55 30.6996 31.3719 -0.6723
71.6 28.123 31.3674 -3.2444
71.65 26.7574 31.3617 -4.6043
71.7 30.7077 31.356 -0.6483
71.75 24.8414 31.3524 -6.511
71.8 32.073 31.3489 0.7241
71.85 30.4495 31.3432 -0.8937
71.9 36.3355 31.3376 4.9979
71.95 25.9678 31.3324 -5.3646
72 31.3187 31.3271 -0.0084
72.05 22.483 31.3231 -8.8401
72.1 28.8827 31.319 -2.4363
72.15 34.2959 31.3126 2.9833
72.2 34.1033 31.3062 2.7971
72.25 39.6093 31.3015 8.3078
72.3 28.9417 31.2968 -2.3551
72.35 28.0659 31.2918 -3.2259
72.4 21.7543 31.2868 -9.5325
72.45 33.4878 31.2802 2.2076
72.5 27.948 31.2736 -3.3256
72.55 30.5519 31.2692 -0.7173
72.6 29.534 31.2649 -1.7309
72.65 31.793 31.2587 0.5343
72.7 28.1935 31.2525 -3.059
72.75 23.864 31.2463 -7.3823
72.8 26.7481 31.24 -4.4919
72.85 26.4529 31.2354 -4.7825
72.9 32.0732 31.2308 0.8424
72.95 23.4768 31.2237 -7.7469
73 32.5776 31.2166 1.361
73.05 36.348 31.211 5.137
73.1 22.8921 31.2054 -8.3133
73.15 29.4752 31.2 -1.7248
73.2 31.3682 31.1946 0.1736
73.25 31.2625 31.1872 0.0753
73.3 39.3754 31.1797 8.1957
73.35 36.3093 31.1746 5.1347
73.4 38.4791 31.1695 7.3096
73.45 22.2019 31.1629 -8.961
73.5 32.058 31.1564 0.9016
73.55 26.8543 31.1492 -4.2949
73.6 33.5782 31.142 2.4362
73.65 22.3184 31.1369 -8.8185
73.7 23.6494 31.1318 -7.4824
73.75 32.6506 31.1243 1.5263
73.8 34.3497 31.1168 3.2329
73.85 36.5082 31.1102 5.398
73.9 33.9406 31.1036 2.837
73.95 34.1672 31.0979 3.0693
74 27.8147 31.0923 -3.2776
74.05 31.7317 31.0842 0.6475
74.1 26.2966 31.0761 -4.7795
74.15 32.6793 31.0701 1.6092
74.2 29.4859 31.0641 -1.5782
74.25 30.6986 31.0575 -0.3589
74.3 41.5279 31.051 10.4769
74.35 35.4294 31.0428 4.3866
74.4 36.5592 31.0347 5.5245
74.45 32.3287 31.0291 1.2996
74.5 23.9124 31.0234 -7.111
74.55 27.4005 31.0158 -3.6153
74.6 37.0826 31.0082 6.0744
74.65 28.5598 31.0005 -2.4407
74.7 24.2119 30.9929 -6.781
74.75 33.5161 30.9871 2.529
74.8 26.5579 30.9813 -4.4234
74.85 22.3127 30.9728 -8.6601
74.9 22.3587 30.9644 -8.6057
74.95 21.3089 30.9574 -9.6485
75 22.2764 30.9504 -8.674
75.05 32.3362 30.944 1.3922
75.1 25.472 30.9376 -5.4656
75.15 24.1446 30.9288 -6.7842
75.2 35.5209 30.9199 4.601
75.25 20.8561 30.9136 -10.0575
75.3 27.6926 30.9072 -3.2146
75.35 29.6698 30.8999 -1.2301
75.4 17.3039 30.8925 -13.5886
75.45 33.6164 30.8838 2.7326
75.5 36.3657 30.8751 5.4906
75.55 36.634 30.8691 5.7649
75.6 32.8531 30.8631 1.99
75.65 20.7225 30.8547 -10.1322
75.7 43.2298 30.8464 12.3834
75.75 24.0561 30.8383 -6.7822
75.8 25.093 30.8301 -5.7371
75.85 38.701 30.8239 7.8771
75.9 30.8682 30.8177 0.0505
75.95 25.7221 30.8087 -5.0866
76 21.0495 30.7996 -9.7501
76.05 24.9516 30.7922 -5.8406
76.1 39.0272 30.7848 8.2424
76.15 24.2837 30.7781 -6.4944
76.2 32.294 30.7713 1.5227
76.25 35.0852 30.7619 4.3233
76.3 31.3799 30.7525 0.6274
76.35 32.3952 30.7458 1.6494
76.4 34.3655 30.7391 3.6264
76.45 43.071 30.7315 12.3395
76.5 39.2133 30.7239 8.4894
76.55 28.3617 30.7146 -2.3529
76.6 44.163 30.7053 13.4577
76.65 26.8315 30.6991 -3.8676
76.7 23.6154 30.6928 -7.0774
76.75 28.3837 30.6843 -2.3006
76.8 22.2178 30.6757 -8.4579
76.85 43.6048 30.667 12.9378
76.9 27.5721 30.6583 -3.0862
76.95 25.2386 30.6521 -5.4135
77 34.8949 30.6459 4.249
77.05 50.5198 30.6373 19.8825
77.1 40.5188 30.6272 9.8916
77.15 25.4205 30.6193 -5.1988
77.2 27.1477 30.6114 -3.4637
77.25 45.2626 30.6049 14.6577
77.3 29.6578 30.5983 -0.9405
77.35 34.5035 30.5885 3.915
77.4 21.4831 30.5787 -9.0956
77.45 26.2423 30.5717 -4.3294
77.5 38.0928 30.5647 7.5281
77.55 35.1117 30.5574 4.5543
77.6 32.6386 30.5502 2.0884
77.65 25.5919 30.5404 -4.9485
77.7 29.6898 30.5306 -0.8408
77.75 32.369 30.5243 1.8447
77.8 30.9133 30.518 0.3953
77.85 39.1354 30.5099 8.6255
77.9 26.8352 30.5019 -3.6667
77.95 27.6772 30.4924 -2.8152
78 27.8894 30.483 -2.5936
78.05 31.3927 30.4772 0.9155
78.1 31.5991 30.4715 1.1276
78.15 34.7858 30.4625 4.3233
78.2 26.7274 30.4536 -3.7262
78.25 29.0621 30.445 -1.3829
78.3 31.6509 30.4364 1.2145
78.35 39.0132 30.4307 8.5825
78.4 32.9669 30.4251 2.5418
78.45 35.6573 30.4155 5.2418
78.5 31.3761 30.4059 0.9702
78.55 31.2042 30.3983 0.8059
78.6 29.0159 30.3908 -1.3749
78.65 24.3324 30.3849 -6.0525
78.7 28.9229 30.3791 -1.4562
78.75 35.2668 30.3692 4.8976
78.8 29.3805 30.3593 -0.9788
78.85 33.235 30.3529 2.8821
78.9 26.1038 30.3466 -4.2428
78.95 29.6182 30.3403 -0.7221
79 23.0139 30.334 -7.3201
79.05 31.0524 30.3242 0.7282
79.1 24.7776 30.3144 -5.5368
79.15 34.1631 30.3093 3.8538
79.2 33.4843 30.3042 3.1801
79.25 29.4108 30.2974 -0.8866
79.3 34.0265 30.2906 3.7359
79.35 37.6943 30.2814 7.4129
79.4 23.1486 30.2723 -7.1237
79.45 30.0079 30.2688 -0.2609
79.5 31.6638 30.2653 1.3985
79.55 28.6701 30.2579 -1.5878
79.6 23.8137 30.2504 -6.4367
79.65 31.5148 30.2428 1.272
79.7 33.0947 30.2352 2.8595
79.75 29.9447 30.2325 -0.2878
79.8 37.0778 30.2297 6.8481
79.85 29.1584 30.2223 -1.0639
79.9 35.2212 30.2149 5.0063
79.95 24.5511 30.2093 -5.6582
80 30.0983 30.2038 -0.1055
80.05 35.1814 30.2025 4.9789
80.1 36.0331 30.2013 5.8318
80.15 28.02 30.1948 -2.1748
80.2 22.4263 30.1883 -7.762
80.25 27.2964 30.186 -2.8896
80.3 31.599 30.1837 1.4153
80.35 24.8179 30.1851 -5.3672
80.4 32.2712 30.1865 2.0847
80.45 35.1809 30.183 4.9979
80.5 38.5699 30.1794 8.3905
80.55 35.0238 30.1832 4.8406
80.6 29.5315 30.187 -0.6555
80.65 31.5291 30.195 1.3341
80.7 31.6866 30.203 1.4836
80.75 19.6232 30.2101 -10.5869
80.8 26.0757 30.2171 -4.1414
80.85 32.4021 30.2461 2.156
80.9 34.9783 30.275 4.7033
80.95 28.1614 30.3433 -2.1819
81 29.6588 30.4116 -0.7528
81.05 25.4796 30.4809 -5.0013
81.1 20.2313 30.5502 -10.3189
81.15 31.6667 30.6292 1.0375
81.2 31.3057 30.7082 0.5975
81.25 34.6698 30.8138 3.856
81.3 34.4826 30.9194 3.5632
81.35 26.7397 31.0748 -4.3351
81.4 27.7079 31.2301 -3.5222
81.45 45.1971 31.4628 13.7343
81.5 22.3282 31.7704 -9.4422
81.55 43.9097 32.1759 11.7338
81.6 37.0805 32.7226 4.3579
81.65 39.6452 33.6764 5.9688
81.7 30.8849 34.6302 -3.7453
81.75 34.561 36.9341 -2.3731
81.8 55.9878 39.2379 16.7499
81.85 50.4581 44.3551 6.103
81.9 60.4128 53.1465 7.2663
81.95 74.4457 70.75 3.6957
82 111.098 105.408 5.69
82.05 171.267 166.269 4.998
82.1 232.791 244.316 -11.525
82.15 259.862 292.825 -32.963
82.2 281.914 264.338 17.576
82.25 186.488 183.567 2.921
82.3 109.792 113.099 -3.307
82.35 60.6529 73.5945 -12.9416
82.4 76.9676 53.6182 23.3494
82.45 35.5413 43.9033 -8.362
82.5 43.0605 38.7604 4.3001
82.55 53.75 35.8393 17.9107
82.6 32.7773 34.0753 -1.298
82.65 30.7546 33.143 -2.3884
82.7 39.0565 32.2108 6.8457
82.75 26.0381 31.7595 -5.7214
82.8 28.8578 31.3083 -2.4505
82.85 29.5573 31.0517 -1.4944
82.9 33.9667 30.7951 3.1716
82.95 24.6662 30.6463 -5.9801
83 21.1224 30.4976 -9.3752
83.05 23.7487 30.3973 -6.6486
83.1 35.5701 30.2971 5.273
83.15 29.6703 30.219 -0.5487
83.2 26.5837 30.141 -3.5573
83.25 40.716 30.0825 10.6335
83.3 26.9894 30.0241 -3.0347
83.35 32.2377 29.9641 2.2736
83.4 26.5298 29.9042 -3.3744
83.45 29.0889 29.8625 -0.7736
83.5 28.1664 29.8209 -1.6545
83.55 21.2283 29.7995 -8.5712
83.6 33.0932 29.778 3.3152
83.65 26.6381 29.7583 -3.1202
83.7 26.8104 29.7387 -2.9283
83.75 20.1423 29.7185 -9.5762
83.8 36.5659 29.6982 6.8677
83.85 34.2764 29.687 4.5894
83.9 37.8726 29.6759 8.1967
83.95 28.4042 29.6627 -1.2585
84 42.2735 29.6495 12.624
84.05 24.0184 29.6349 -5.6165
84.1 34.0101 29.6204 4.3897
84.15 34.7083 29.6128 5.0955
84.2 34.1439 29.6052 4.5387
84.25 34.9937 29.5948 5.3989
84.3 29.4316 29.5844 -0.1528
84.35 29.3432 29.5728 -0.2296
84.4 24.6903 29.5612 -4.8709
84.45 26.306 29.5554 -3.2494
84.5 31.78 29.5497 2.2303
84.55 26.8155 29.5407 -2.7252
84.6 34.7162 29.5317 5.1845
84.65 35.6292 29.522 6.1072
84.7 32.5842 29.5122 3.072
84.75 27.9885 29.5075 -1.519
84.8 29.4909 29.5028 -0.0119
84.85 18.8958 29.4948 -10.599
84.9 27.2669 29.4867 -2.2198
84.95 27.5981 29.4783 -1.8802
85 25.6777 29.4699 -3.7922
85.05 32.0106 29.4659 2.5447
85.1 35.5364 29.4618 6.0746
85.15 35.8422 29.4545 6.3877
85.2 24.6954 29.4471 -4.7517
85.25 33.827 29.4397 4.3873
85.3 28.0236 29.4323 -1.4087
85.35 26.3264 29.4287 -3.1023
85.4 38.4401 29.4252 9.0149
85.45 23.7179 29.4184 -5.7005
85.5 31.6638 29.4116 2.2522
85.55 34.8397 29.405 5.4347
85.6 35.9342 29.3984 6.5358
85.65 32.8888 29.3952 3.4936
85.7 29.7999 29.3921 0.4078
85.75 27.4908 29.3857 -1.8949
85.8 24.5453 29.3794 -4.8341
85.85 23.6536 29.3735 -5.7199
85.9 31.5616 29.3676 2.194
85.95 21.4259 29.3648 -7.9389
86 24.0062 29.362 -5.3558
86.05 36.6375 29.3561 7.2814
86.1 25.5228 29.3503 -3.8275
86.15 24.8732 29.345 -4.4718
86.2 29.455 29.3397 0.1153
86.25 25.6264 29.3372 -3.7108
86.3 30.3421 29.3347 1.0074
86.35 37.4406 29.3294 8.1112
86.4 37.1593 29.324 7.8353
86.45 38.7272 29.3192 9.408
86.5 36.5449 29.3145 7.2304
86.55 33.0233 29.3123 3.711
86.6 29.6255 29.3101 0.3154
86.65 27.1124 29.3052 -2.1928
86.7 22.3503 29.3003 -6.95
86.75 31.8633 29.2961 2.5672
86.8 37.5739 29.2918 8.2821
86.85 31.3827 29.29 2.0927
86.9 37.8553 29.2881 8.5672
86.95 29.3714 29.2837 0.0877
87 31.4878 29.2793 2.2085
87.05 25.5535 29.2755 -3.722
87.1 25.5495 29.2717 -3.7222
87.15 29.7446 29.2702 0.4744
87.2 33.3321 29.2687 4.0634
87.25 26.3542 29.2648 -2.9106
87.3 30.343 29.2609 1.0821
87.35 32.4074 29.2575 3.1499
87.4 32.8531 29.2541 3.599
87.45 25.1361 29.253 -4.1169
87.5 33.6686 29.2519 4.4167
87.55 33.5949 29.2485 4.3464
87.6 26.4059 29.245 -2.8391
87.65 33.5833 29.2421 4.3412
87.7 29.2586 29.2391 0.0195
87.75 34.8518 29.2384 5.6134
87.8 32.0759 29.2376 2.8383
87.85 29.9275 29.2347 0.6928
87.9 24.8477 29.2318 -4.3841
87.95 38.6624 29.2293 9.4331
88 28.7389 29.2268 -0.4879
88.05 23.3606 29.2264 -5.8658
88.1 19.3015 29.226 -9.9245
88.15 31.6543 29.2237 2.4306
88.2 35.3776 29.2213 6.1563
88.25 31.1247 29.2192 1.9055
88.3 41.4227 29.217 12.2057
88.35 40.3838 29.217 11.1668
88.4 19.5219 29.2171 -9.6952
88.45 37.725 29.2153 8.5097
88.5 35.8705 29.2135 6.657
88.55 30.0056 29.2118 0.7938
88.6 22.2363 29.2101 -6.9738
88.65 35.3863 29.2105 6.1758
88.7 31.2082 29.211 1.9972
88.75 27.6225 29.2098 -1.5873
88.8 35.001 29.2085 5.7925
88.85 31.2397 29.2072 2.0325
88.9 30.8959 29.2058 1.6901
88.95 29.9139 29.2067 0.7072
89 30.2964 29.2075 1.0889
89.05 36.3771 29.2068 7.1703
89.1 31.7149 29.2061 2.5088
89.15 33.7762 29.2051 4.5711
89.2 27.8185 29.2041 -1.3856
89.25 23.8221 29.2052 -5.3831
89.3 34.8309 29.2063 5.6246
89.35 32.1523 29.2062 2.9461
89.4 24.4468 29.2061 -4.7593
89.45 32.8694 29.2054 3.664
89.5 34.3572 29.2046 5.1526
89.55 27.6334 29.206 -1.5726
89.6 23.9269 29.2075 -5.2806
89.65 24.4192 29.2079 -4.7887
89.7 34.1534 29.2083 4.9451
89.75 28.8652 29.2079 -0.3427
89.8 26.3159 29.2074 -2.8915
89.85 30.0319 29.2091 0.8228
89.9 34.1749 29.2108 4.9641
89.95 29.5899 29.2117 0.3782
90 27.1443 29.2127 -2.0684
90.05 36.8572 29.2125 7.6447
90.1 33.429 29.2124 4.2166
90.15 28.6992 29.2143 -0.5151
90.2 39.4687 29.2162 10.2525
90.25 26.8034 29.2177 -2.4143
90.3 33.9776 29.2192 4.7584
90.35 24.4011 29.2194 -4.8183
90.4 30.8156 29.2196 1.596
90.45 25.9903 29.2216 -3.2313
90.5 26.2803 29.2237 -2.9434
90.55 34.0463 29.2257 4.8206
90.6 27.7062 29.2277 -1.5215
90.65 33.292 29.2282 4.0638
90.7 28.2555 29.2288 -0.9733
90.75 26.2534 29.231 -2.9776
90.8 33.2965 29.2332 4.0633
90.85 36.4986 29.2357 7.2629
90.9 36.1135 29.2382 6.8753
90.95 29.5125 29.2391 0.2734
91 36.2378 29.24 6.9978
91.05 35.2761 29.2423 6.0338
91.1 34.6327 29.2446 5.3881
91.15 38.6807 29.2476 9.4331
91.2 28.8253 29.2506 -0.4253
91.25 39.9893 29.2519 10.7374
91.3 20.3905 29.2532 -8.8627
91.35 26.9534 29.2556 -2.3022
91.4 31.281 29.258 2.023
91.45 36.6 29.2614 7.3386
91.5 24.0603 29.2648 -5.2045
91.55 32.8291 29.2665 3.5626
91.6 22.71 29.2683 -6.5583
91.65 27.3436 29.2707 -1.9271
91.7 31.541 29.2732 2.2678
91.75 21.4556 29.2769 -7.8213
91.8 33.2908 29.2807 4.0101
91.85 29.2664 29.283 -0.0166
91.9 32.436 29.2852 3.1508
91.95 16.9335 29.2877 -12.3542
92 26.1555 29.2902 -3.1347
92.05 31.8952 29.2942 2.601
92.1 26.2685 29.2983 -3.0298
92.15 32.2957 29.3011 2.9946
92.2 32.666 29.3039 3.3621
92.25 19.5393 29.3064 -9.7671
92.3 31.8021 29.309 2.4931
92.35 29.8268 29.3133 0.5135
92.4 43.6436 29.3175 14.3261
92.45 32.6615 29.3209 3.3406
92.5 31.3984 29.3242 2.0742
92.55 35.7058 29.3269 6.3789
92.6 40.6656 29.3296 11.336
92.65 37.9009 29.3339 8.567
92.7 28.5245 29.3383 -0.8138
92.75 31.0116 29.3422 1.6694
92.8 26.266 29.3462 -3.0802
92.85 24.0862 29.349 -5.2628
92.9 30.2818 29.3518 0.93
92.95 22.6377 29.3562 -6.7185
93 29.1571 29.3606 -0.2035
93.05 29.6397 29.3651 0.2746
93.1 29.6438 29.3696 0.2742
93.15 37.5666 29.3727 8.1939
93.2 24.9604 29.3758 -4.4154
93.25 32.438 29.3802 3.0578
93.3 32.0947 29.3845 2.7102
93.35 38.3586 29.3895 8.9691
93.4 24.3507 29.3945 -5.0438
93.45 23.2212 29.398 -6.1768
93.5 33.6946 29.4014 4.2932
93.55 26.1198 29.4061 -3.2863
93.6 33.3078 29.4107 3.8971
93.65 25.6968 29.416 -3.7192
93.7 28.791 29.4213 -0.6303
93.75 36.2964 29.4253 6.8711
93.8 31.6905 29.4293 2.2612
93.85 18.8261 29.4335 -10.6074
93.9 36.1715 29.4377 6.7338
93.95 29.2737 29.4433 -0.1696
94 30.1743 29.4488 0.7255
94.05 29.6167 29.4534 0.1633
94.1 32.2505 29.4579 2.7926
94.15 37.9424 29.4621 8.4803
94.2 19.8233 29.4664 -9.6431
94.25 37.9863 29.472 8.5143
94.3 27.5749 29.4777 -1.9028
94.35 24.8062 29.4829 -4.6767
94.4 41.0662 29.488 11.5782
94.45 32.8237 29.4923 3.3314
94.5 25.9471 29.4966 -3.5495
94.55 30.5615 29.5023 1.0592
94.6 32.3906 29.508 2.8826
94.65 22.5467 29.5137 -6.967
94.7 28.5918 29.5195 -0.9277
94.75 30.0205 29.524 0.4965
94.8 24.7582 29.5285 -4.7703
94.85 39.1438 29.5341 9.6097
94.9 31.5844 29.5397 2.0447
94.95 28.8234 29.546 -0.7226
95 34.6199 29.5523 5.0676
95.05 30.1254 29.5572 0.5682
95.1 32.2013 29.5622 2.6391
95.15 22.5148 29.5676 -7.0528
95.2 33.4433 29.573 3.8703
95.25 33.9461 29.5797 4.3664
95.3 25.2889 29.5865 -4.2976
95.35 28.7423 29.592 -0.8497
95.4 27.758 29.5976 -1.8396
95.45 28.0965 29.603 -1.5065
95.5 24.9796 29.6083 -4.6287
95.55 30.0642 29.6153 0.4489
95.6 24.8576 29.6222 -4.7646
95.65 28.7591 29.6286 -0.8695
95.7 29.3999 29.635 -0.2351
95.75 28.4265 29.6405 -1.214
95.8 27.1221 29.646 -2.5239
95.85 46.1799 29.653 16.5269
95.9 33.0311 29.66 3.3711
95.95 19.5375 29.6673 -10.1298
96 31.1779 29.6746 1.5033
96.05 27.8921 29.6806 -1.7885
96.1 25.0076 29.6865 -4.6789
96.15 18.9486 29.6936 -10.745
96.2 28.0421 29.7006 -1.6585
96.25 24.4792 29.7089 -5.2297
96.3 29.4788 29.7172 -0.2384
96.35 30.5726 29.7241 0.8485
96.4 30.7736 29.7311 1.0425
96.45 32.1322 29.7384 2.3938
96.5 23.7409 29.7456 -6.0047
96.55 28.0161 29.7549 -1.7388
96.6 27.5343 29.7642 -2.2299
96.65 29.5006 29.7729 -0.2723
96.7 39.6947 29.7816 9.9131
96.75 23.5499 29.7898 -6.2399
96.8 29.8846 29.798 0.0866
96.85 30.2367 29.8087 0.428
96.9 24.5306 29.8194 -5.2888
96.95 34.3011 29.8311 4.47
97 28.6266 29.8427 -1.2161
97.05 39.3016 29.8537 9.4479
97.1 26.8239 29.8647 -3.0408
97.15 36.1671 29.8786 6.2885
97.2 28.549 29.8925 -1.3435
97.25 31.3921 29.9105 1.4816
97.3 33.5731 29.9285 3.6446
97.35 39.3363 29.9495 9.3868
97.4 18.9294 29.9705 -11.0411
97.45 33.5871 30.0012 3.5859
97.5 21.8775 30.0319 -8.1544
97.55 35.5651 30.076 5.4891
97.6 30.3095 30.1201 0.1894
97.65 29.1501 30.1695 -1.0194
97.7 28.7734 30.219 -1.4456
97.75 38.5884 30.2806 8.3078
97.8 24.473 30.3421 -5.8691
97.85 31.1869 30.4338 0.7531
97.9 22.2042 30.5255 -8.3213
97.95 23.3022 30.67 -7.3678
98 25.26 30.8145 -5.5545
98.05 27.2938 31.0584 -3.7646
98.1 35.344 31.3023 4.0417
98.15 32.3989 31.7706 0.6283
98.2 25.5193 32.2389 -6.7196
98.25 43.9032 33.0523 10.8509
98.3 40.61 34.2943 6.3157
98.35 41.7432 36.2615 5.4817
98.4 51.223 39.4924 11.7306
98.45 47.6078 44.9488 2.659
98.5 52.9312 54.1928 -1.2616
98.55 75.1197 69.2224 5.8973
98.6 82.4284 89.9768 -7.5484
98.65 116.109 112.031 4.078
98.7 120.591 124.602 -4.011
98.75 114.618 119.297 -4.679
98.8 99.9512 100.043 -0.0918
98.85 91.5957 77.9197 13.676
98.9 68.7999 60.6569 8.143
98.95 46.9898 49.4238 -2.434
99 35.3759 42.5969 -7.221
99.05 36.4176 39.2614 -2.8438
99.1 30.6378 35.9259 -5.2881
99.15 25.7971 34.579 -8.7819
99.2 27.2162 33.232 -6.0158
99.25 32.8957 32.6144 0.2813
99.3 39.398 31.9968 7.4012
99.35 19.5361 31.6797 -12.1436
99.4 26.794 31.3625 -4.5685
99.45 30.1755 31.1807 -1.0052
99.5 24.1324 30.9988 -6.8664
99.55 27.553 30.8869 -3.3339
99.6 30.4918 30.775 -0.2832
99.65 26.2198 30.7037 -4.4839
99.7 33.5616 30.6323 2.9293
99.75 25.4826 30.5785 -5.0959
99.8 26.4953 30.5246 -4.0293
99.85 27.6596 30.4731 -2.8135
99.9 23.589 30.4216 -6.8326
99.95 41.1873 30.3853 10.802
100 26.8682 30.3489 -3.4807
100.05 31.6513 30.3333 1.318
100.1 30.5037 30.3178 0.1859
100.15 24.6679 30.3098 -5.6419
100.2 23.8544 30.3018 -6.4474
100.25 32.5827 30.298 2.2847
100.3 29.6116 30.2943 -0.6827
100.35 34.3893 30.2951 4.0942
100.4 35.3136 30.296 5.0176
100.45 31.9639 30.2976 1.6663
100.5 25.1188 30.2991 -5.1803
100.55 28.25 30.3002 -2.0502
100.6 27.8182 30.3013 -2.4831
100.65 20.3044 30.3047 -10.0003
100.7 26.9396 30.3081 -3.3685
100.75 27.5364 30.3128 -2.7764
100.8 19.9296 30.3176 -10.388
100.85 24.9918 30.3211 -5.3293
100.9 30.8531 30.3246 0.5285
100.95 22.2543 30.3285 -8.0742
101 38.8285 30.3324 8.4961
101.05 41.0843 30.3383 10.746
101.1 25.6988 30.3442 -4.6454
101.15 30.0708 30.3494 -0.2786
101.2 44.6696 30.3547 14.3149
101.25 38.0057 30.359 7.6467
101.3 23.9449 30.3633 -6.4184
101.35 32.9336 30.369 2.5646
101.4 31.7315 30.3748 1.3567
101.45 29.8378 30.3813 -0.5435
101.5 29.7363 30.3877 -0.6514
101.55 37.7276 30.3927 7.3349
101.6 36.0423 30.3977 5.6446
101.65 32.1958 30.403 1.7928
101.7 22.4486 30.4083 -7.9597
101.75 41.4769 30.415 11.0619
101.8 34.773 30.4218 4.3512
101.85 31.739 30.4278 1.3112
101.9 36.5577 30.4337 6.124
101.95 35.975 30.4377 5.5373
102 28.1192 30.4417 -2.3225
102.05 31.0441 30.4486 0.5955
102.1 25.681 30.4555 -4.7745
102.15 31.977 30.4618 1.5152
102.2 28.9257 30.4681 -1.5424
102.25 29.9271 30.4731 -0.546
102.3 24.4636 30.4782 -6.0146
102.35 33.2999 30.4845 2.8154
102.4 27.4506 30.4907 -3.0401
102.45 34.6254 30.4976 4.1278
102.5 29.7178 30.5046 -0.7868
102.55 33.0125 30.51 2.5025
102.6 34.4262 30.5155 3.9107
102.65 25.8536 30.521 -4.6674
102.7 34.7684 30.5266 4.2418
102.75 28.0719 30.5335 -2.4616
102.8 28.7273 30.5403 -1.813
102.85 32.2233 30.5465 1.6768
102.9 35.6073 30.5527 5.0546
102.95 30.5017 30.5579 -0.0562
103 34.1796 30.5631 3.6165
103.05 31.4653 30.5694 0.8959
103.1 32.8704 30.5757 2.2947
103.15 31.8764 30.5824 1.294
103.2 39.299 30.5891 8.7099
103.25 37.5437 30.5946 6.9491
103.3 21.7492 30.6 -8.8508
103.35 24.8597 30.6055 -5.7458
103.4 37.1064 30.611 6.4954
103.45 32.3682 30.6177 1.7505
103.5 32.8726 30.6244 2.2482
103.55 28.1435 30.6304 -2.4869
103.6 21.2224 30.6365 -9.4141
103.65 38.4791 30.6416 7.8375
103.7 36.7142 30.6467 6.0675
103.75 33.4141 30.6528 2.7613
103.8 27.3204 30.6588 -3.3384
103.85 28.1887 30.6653 -2.4766
103.9 34.266 30.6718 3.5942
103.95 31.7291 30.6771 1.052
104 19.9343 30.6825 -10.7482
104.05 21.4418 30.6878 -9.246
104.1 32.228 30.6931 1.5349
104.15 34.8804 30.6994 4.181
104.2 39.7613 30.7058 9.0555
104.25 32.0369 30.7116 1.3253
104.3 33.8138 30.7175 3.0963
104.35 28.8211 30.7224 -1.9013
104.4 45.6797 30.7273 14.9524
104.45 34.1515 30.7331 3.4184
104.5 31.9367 30.7388 1.1979
104.55 29.1538 30.745 -1.5912
104.6 32.907 30.7512 2.1558
104.65 36.8628 30.7563 6.1065
104.7 29.7841 30.7614 -0.9773
104.75 30.9362 30.7664 0.1698
104.8 29.0123 30.7713 -1.759
104.85 32.9176 30.7773 2.1403
104.9 23.5692 30.7832 -7.214
104.95 33.582 30.7889 2.7931
105 26.2147 30.7945 -4.5798
105.05 31.482 30.7992 0.6828
105.1 31.5216 30.8038 0.7178
105.15 41.5727 30.8091 10.7636
105.2 29.6144 30.8143 -1.1999
105.25 24.6253 30.8201 -6.1948
105.3 42.6185 30.826 11.7925
105.35 37.776 30.8309 6.9451
105.4 32.9867 30.8358 2.1509
105.45 45.2924 30.8404 14.452
105.5 31.336 30.8449 0.4911
105.55 22.4131 30.8503 -8.4372
105.6 23.6143 30.8557 -7.2414
105.65 28.7182 30.8611 -2.1429
105.7 35.7578 30.8665 4.8913
105.75 27.2725 30.8709 -3.5984
105.8 31.8717 30.8752 0.9965
105.85 28.6493 30.8799 -2.2306
105.9 32.5448 30.8845 1.6603
105.95 34.1092 30.8899 3.2193
106 35.3 30.8953 4.4047
106.05 25.7036 30.9 -5.1964
106.1 36.2918 30.9047 5.3871
106.15 36.7558 30.9088 5.847
106.2 27.5513 30.9128 -3.3615
106.25 40.2081 30.9176 9.2905
106.3 31.2983 30.9224 0.3759
106.35 30.6961 30.9274 -0.2313
106.4 26.7062 30.9325 -4.2263
106.45 27.6433 30.9366 -3.2933
106.5 36.1876 30.9406 5.247
106.55 21.7296 30.9446 -9.215
106.6 29.923 30.9486 -1.0256
106.65 36.8636 30.9534 5.9102
106.7 29.8827 30.9582 -1.0755
106.75 36.5157 30.9627 5.553
106.8 34.1202 30.9672 3.153
106.85 28.6528 30.9708 -2.318
106.9 24.7436 30.9744 -6.2308
106.95 25.5934 30.9784 -5.385
107 34.8068 30.9824 3.8244
107.05 24.9751 30.987 -6.0119
107.1 28.6784 30.9916 -2.3132
107.15 32.3463 30.9954 1.3509
107.2 31.9484 30.9993 0.9491
107.25 36.4236 31.0026 5.421
107.3 38.0704 31.0059 7.0645
107.35 25.5209 31.01 -5.4891
107.4 25.7356 31.0141 -5.2785
107.45 20.5323 31.0183 -10.486
107.5 24.681 31.0226 -6.3416
107.55 27.9989 31.026 -3.0271
107.6 21.3856 31.0294 -9.6438
107.65 25.7082 31.0328 -5.3246
107.7 26.7575 31.0362 -4.2787
107.75 27.9836 31.0404 -3.0568
107.8 34.9757 31.0447 3.931
107.85 28.2744 31.0486 -2.7742
107.9 41.3561 31.0526 10.3035
107.95 34.3723 31.0557 3.3166
108 28.9715 31.0589 -2.0874
108.05 31.286 31.0625 0.2235
108.1 36.8295 31.0662 5.7633
108.15 35.0516 31.0704 3.9812
108.2 32.8161 31.0746 1.7415
108.25 28.2943 31.0782 -2.7839
108.3 25.3579 31.0818 -5.7239
108.35 27.1849 31.0849 -3.9
108.4 32.034 31.088 0.946
108.45 34.5522 31.0919 3.4603
108.5 30.1516 31.0957 -0.9441
108.55 33.0283 31.0998 1.9285
108.6 33.975 31.1039 2.8711
108.65 24.8673 31.1072 -6.2399
108.7 22.9244 31.1105 -8.1861
108.75 32.9674 31.1136 1.8538
108.8 21.5903 31.1168 -9.5265
108.85 36.9786 31.1208 5.8578
108.9 24.4366 31.1248 -6.6882
108.95 27.7715 31.1287 -3.3572
109 36.0244 31.1325 4.8919
109.05 21.1302 31.1356 -10.0054
109.1 30.8125 31.1386 -0.3261
109.15 28.3418 31.1419 -2.8001
109.2 38.7517 31.1452 7.6065
109.25 29.5885 31.1493 -1.5608
109.3 35.5959 31.1533 4.4426
109.35 27.9774 31.1569 -3.1795
109.4 29.1801 31.1605 -1.9804
109.45 25.3002 31.1634 -5.8632
109.5 27.3586 31.1664 -3.8078
109.55 22.9461 31.1699 -8.2238
109.6 28.0315 31.1733 -3.1418
109.65 32.8222 31.1774 1.6448
109.7 35.0269 31.1814 3.8455
109.75 31.8182 31.1847 0.6335
109.8 23.8185 31.188 -7.3695
109.85 29.6453 31.1909 -1.5456
109.9 26.0549 31.1938 -5.1389
109.95 35.7782 31.1975 4.5807
110 25.2951 31.2011 -5.906
110.05 33.5753 31.205 2.3703
110.1 27.1422 31.2089 -4.0667
110.15 22.598 31.212 -8.614
110.2 29.5994 31.2151 -1.6157
110.25 42.4359 31.218 11.2179
110.3 20.8536 31.221 -10.3674
110.35 36.4943 31.2248 5.2695
110.4 28.4364 31.2285 -2.7921
110.45 32.7427 31.2323 1.5104
110.5 44.1147 31.236 12.8787
110.55 25.1748 31.239 -6.0642
110.6 22.198 31.2419 -9.0439
110.65 31.638 31.2449 0.3931
110.7 30.0743 31.248 -1.1737
110.75 25.429 31.2518 -5.8228
110.8 31.1864 31.2557 -0.0693
110.85 19.4225 31.2593 -11.8368
110.9 27.7334 31.2629 -3.5295
110.95 34.6803 31.2657 3.4146
111 34.065 31.2685 2.7965
111.05 28.9778 31.2717 -2.2939
111.1 26.7003 31.2749 -4.5746
111.15 30.5257 31.2788 -0.7531
111.2 25.4967 31.2827 -5.786
111.25 27.6984 31.2862 -3.5878
111.3 19.7822 31.2896 -11.5074
111.35 24.1382 31.2924 -7.1542
111.4 26.7999 31.2951 -4.4952
111.45 36.3594 31.2984 5.061
111.5 31.65 31.3018 0.3482
111.55 26.3252 31.3058 -4.9806
111.6 34.069 31.3097 2.7593
111.65 36.418 31.3131 5.1049
111.7 34.8011 31.3164 3.4847
111.75 31.212 31.3192 -0.1072
111.8 27.6002 31.322 -3.7218
111.85 36.5215 31.3255 5.196
111.9 37.0207 31.329 5.6917
111.95 30.8084 31.333 -0.5246
112 22.3156 31.3371 -9.0215
112.05 26.3541 31.3404 -4.9863
112.1 36.1514 31.3436 4.8078
112.15 37.0846 31.3465 5.7381
112.2 28.8849 31.3494 -2.4645
112.25 31.4685 31.3531 0.1154
112.3 32.3432 31.3569 0.9863
112.35 33.8525 31.361 2.4915
112.4 26.51 31.3652 -4.8552
112.45 38.4036 31.3685 7.0351
112.5 24.1613 31.3719 -7.2106
112.55 27.447 31.3749 -3.9279
112.6 41.8169 31.378 10.4389
112.65 31.8162 31.3821 0.4341
112.7 29.4713 31.3861 -1.9148
112.75 32.6621 31.3905 1.2716
112.8 24.9462 31.395 -6.4488
112.85 35.4033 31.3985 4.0048
112.9 35.5903 31.402 4.1883
112.95 21.8363 31.4055 -9.5692
113 24.607 31.4089 -6.8019
113.05 34.7171 31.4135 3.3036
113.1 31.5135 31.4181 0.0954
113.15 27.2777 31.423 -4.1453
113.2 42.6098 31.4279 11.1819
113.25 27.5709 31.432 -3.8611
113.3 34.1586 31.436 2.7226
113.35 37.6184 31.4402 6.1782
113.4 31.2217 31.4444 -0.2227
113.45 17.6681 31.4499 -13.7818
113.5 29.6755 31.4554 -1.7799
113.55 31.1017 31.4614 -0.3597
113.6 23.6964 31.4673 -7.7709
113.65 24.7668 31.4726 -6.7058
113.7 19.9172 31.4779 -11.5607
113.75 38.0016 31.4836 6.518
113.8 28.0214 31.4893 -3.4679
113.85 31.421 31.4968 -0.0758
113.9 29.4342 31.5043 -2.0701
113.95 35.4902 31.5127 3.9775
114 32.3256 31.5211 0.8045
114.05 33.7493 31.5294 2.2199
114.1 25.9001 31.5377 -5.6376
114.15 33.7318 31.5473 2.1845
114.2 32.1246 31.5568 0.5678
114.25 28.0378 31.5694 -3.5316
114.3 24.1507 31.5821 -7.4314
114.35 33.7282 31.5974 2.1308
114.4 26.493 31.6128 -5.1198
114.45 34.0032 31.6304 2.3728
114.5 38.401 31.6481 6.7529
114.55 22.756 31.6709 -8.9149
114.6 29.4599 31.6936 -2.2337
114.65 29.7738 31.7259 -1.9521
114.7 31.7816 31.7582 0.0234
114.75 33.5727 31.8029 1.7698
114.8 31.4459 31.8477 -0.4018
114.85 29.5697 31.9078 -2.3381
114.9 29.6156 31.9679 -2.3523
114.95 37.9558 32.0494 5.9064
115 21.4224 32.1309 -10.7085
115.05 37.0608 32.2462 4.8146
115.1 43.7791 32.3614 11.4177
115.15 30.1184 32.5319 -2.4135
115.2 30.2644 32.7023 -2.4379
115.25 32.6263 32.9682 -0.3419
115.3 37.8524 33.2342 4.6182
115.35 35.0005 33.6773 1.3232
115.4 43.6388 34.1205 9.5183
115.45 41.6988 34.7887 6.9101
115.5 46.2723 35.6872 10.5851
115.55 34.581 37.1314 -2.5504
115.6 36.7772 38.5757 -1.7985
115.65 35.4522 41.2873 -5.8351
115.7 53.9861 43.999 9.9871
115.75 34.2358 48.2418 -14.006
115.8 51.0341 53.8487 -2.8146
115.85 60.0803 61.0239 -0.9436
115.9 70.9615 69.3486 1.6129
115.95 80.7573 78.2793 2.478
116 90.8161 86.393 4.4231
116.05 90.5471 91.8303 -1.2832
116.1 95.8388 93.2835 2.5553
116.15 94.3216 90.1885 4.1331
116.2 90.0134 83.5754 6.438
116.25 68.7418 74.9987 -6.2569
116.3 65.2319 66.1875 -0.9556
116.35 55.8151 58.3573 -2.5422
116.4 45.0843 51.7775 -6.6932
116.45 59.2437 46.8009 12.4428
116.5 63.2531 42.9429 20.3102
116.55 36.4578 40.1512 -3.6934
116.6 35.9319 38.1086 -2.1767
116.65 37.631 36.8118 0.8192
116.7 25.468 35.5151 -10.0471
116.75 35.9561 34.8033 1.1528
116.8 26.2973 34.0915 -7.7942
116.85 23.645 33.6833 -10.0383
116.9 38.6185 33.2752 5.3433
116.95 43.4261 33.0272 10.3989
117 31.8468 32.7793 -0.9325
117.05 30.0862 32.6194 -2.5332
117.1 28.0222 32.4596 -4.4374
117.15 31.0891 32.3513 -1.2622
117.2 46.375 32.243 14.132
117.25 34.0309 32.1667 1.8642
117.3 32.436 32.0903 0.3457
117.35 36.2905 32.0355 4.255
117.4 24.323 31.9807 -7.6577
117.45 33.9773 31.9419 2.0354
117.5 27.4918 31.903 -4.4112
117.55 30.9195 31.8764 -0.9569
117.6 27.5224 31.8498 -4.3274
117.65 27.2538 31.8319 -4.5781
117.7 24.9949 31.814 -6.8191
117.75 29.8519 31.8011 -1.9492
117.8 26.5912 31.7882 -5.197
117.85 44.7259 31.7781 12.9478
117.9 34.4964 31.7679 2.7285
117.95 29.8507 31.7603 -1.9096
118 31.0504 31.7527 -0.7023
118.05 24.3723 31.7477 -7.3754
118.1 23.0662 31.7428 -8.6766
118.15 39.671 31.7393 7.9317
118.2 36.4501 31.7358 4.7143
118.25 28.2419 31.7327 -3.4908
118.3 29.8545 31.7295 -1.875
118.35 25.7602 31.727 -5.9668
118.4 24.1927 31.7245 -7.5318
118.45 28.4199 31.7233 -3.3034
118.5 34.2531 31.7221 2.531
118.55 25.1661 31.7218 -6.5557
118.6 32.1703 31.7214 0.4489
118.65 31.4772 31.7209 -0.2437
118.7 26.084 31.7204 -5.6364
118.75 25.3759 31.7199 -6.344
118.8 31.8237 31.7194 0.1043
118.85 34.1436 31.7197 2.4239
118.9 35.6689 31.7199 3.949
118.95 39.713 31.7208 7.9922
119 21.0344 31.7217 -10.6873
119.05 18.8197 31.7224 -12.9027
119.1 28.7826 31.7232 -2.9406
119.15 23.0472 31.7237 -8.6765
119.2 28.4659 31.7242 -3.2583
119.25 23.0143 31.7251 -8.7108
119.3 35.2483 31.726 3.5223
119.35 25.2108 31.7274 -6.5166
119.4 43.702 31.7289 11.9731
119.45 27.5129 31.7303 -4.2174
119.5 30.2545 31.7318 -1.4773
119.55 28.7858 31.7328 -2.947
119.6 30.7649 31.7339 -0.969
119.65 29.3346 31.7351 -2.4005
119.7 41.0804 31.7363 9.3441
119.75 26.3949 31.738 -5.3431
119.8 33.6299 31.7397 1.8902
119.85 24.8929 31.7415 -6.8486
119.9 29.6035 31.7433 -2.1398
119.95 32.1728 31.7448 0.428
120 34.0747 31.7463 2.3284
120.05 30.1869 31.7477 -1.5608
120.1 36.4426 31.749 4.6936
120.15 33.5846 31.7508 1.8338
120.2 31.6052 31.7525 -0.1473
120.25 28.1925 31.7545 -3.562
120.3 27.5348 31.7566 -4.2218
120.35 42.4741 31.7583 10.7158
120.4 24.6732 31.7601 -7.0869
120.45 35.1958 31.7617 3.4341
120.5 28.2635 31.7632 -3.4997
120.55 32.1507 31.7649 0.3858
120.6 36.9488 31.7667 5.1821
120.65 27.0901 31.7687 -4.6786
120.7 37.739 31.7708 5.9682
120.75 27.9172 31.7728 -3.8556
120.8 30.6266 31.7748 -1.1482
120.85 29.2877 31.7765 -2.4888
120.9 36.415 31.7782 4.6368
120.95 36.3455 31.7799 4.5656
121 30.0004 31.7816 -1.7812
121.05 31.4678 31.7837 -0.3159
121.1 30.2014 31.7857 -1.5843
121.15 31.9845 31.7879 0.1966
121.2 26.2794 31.79 -5.5106
121.25 47.2679 31.7919 15.476
121.3 11.0325 31.7937 -20.7612
121.35 29.6951 31.7954 -2.1003
121.4 31.5193 31.7972 -0.2779
121.45 26.8247 31.7991 -4.9744
121.5 27.385 31.8011 -4.4161
121.55 27.3834 31.8033 -4.4199
121.6 37.6371 31.8055 5.8316
121.65 33.9243 31.8075 2.1168
121.7 28.6048 31.8095 -3.2047
121.75 22.5493 31.8113 -9.262
121.8 33.8615 31.8131 2.0484
121.85 22.7799 31.815 -9.0351
121.9 38.5556 31.8169 6.7387
121.95 35.7609 31.819 3.9419
122 22.3308 31.8212 -9.4904
122.05 30.3363 31.8233 -1.487
122.1 33.1234 31.8255 1.2979
122.15 32.636 31.8273 0.8087
122.2 29.6901 31.8292 -2.1391
122.25 22.4165 31.8311 -9.4146
122.3 15.9276 31.8329 -15.9053
122.35 24.845 31.835 -6.99
122.4 26.4353 31.837 -5.4017
122.45 28.0465 31.8392 -3.7927
122.5 23.1165 31.8414 -8.7249
122.55 27.4306 31.8435 -4.4129
122.6 22.649 31.8455 -9.1965
122.65 23.2243 31.8473 -8.623
122.7 35.7702 31.8492 3.921
122.75 24.9308 31.8511 -6.9203
122.8 31.9118 31.8531 0.0587
122.85 33.5418 31.8553 1.6865
122.9 31.8076 31.8574 -0.0498
122.95 33.6313 31.8592 1.7721
123 39.616 31.8609 7.7551
123.05 22.1803 31.863 -9.6827
123.1 38.6598 31.8651 6.7947
123.15 42.2697 31.867 10.4027
123.2 35.431 31.8689 3.5621
123.25 26.6724 31.8708 -5.1984
123.3 19.8017 31.8726 -12.0709
123.35 35.5158 31.8748 3.641
123.4 47.5502 31.8769 15.6733
123.45 29.4781 31.8792 -2.4011
123.5 35.0903 31.8814 3.2089
123.55 30.7284 31.8834 -1.155
123.6 33.6209 31.8854 1.7355
123.65 32.7679 31.8873 0.8806
123.7 29.694 31.8891 -2.1951
123.75 23.9056 31.8911 -7.9855
123.8 31.9235 31.8931 0.0304
123.85 36.8453 31.8954 4.9499
123.9 19.2826 31.8976 -12.615
123.95 28.2186 31.8998 -3.6812
124 26.5181 31.9019 -5.3838
124.05 46.724 31.9039 14.8201
124.1 27.217 31.9058 -4.6888
124.15 29.3276 31.9077 -2.5801
124.2 45.4593 31.9096 13.5497
124.25 25.2924 31.9117 -6.6193
124.3 27.777 31.9138 -4.1368
124.35 35.6655 31.9161 3.7494
124.4 29.5852 31.9183 -2.3331
124.45 31.7055 31.9204 -0.2149
124.5 36.8376 31.9225 4.9151
124.55 28.4181 31.9244 -3.5063
124.6 27.3389 31.9263 -4.5874
124.65 31.9607 31.9283 0.0324
124.7 37.143 31.9303 5.2127
124.75 26.5732 31.9324 -5.3592
124.8 27.2075 31.9346 -4.7271
124.85 33.1239 31.9369 1.187
124.9 31.4094 31.9391 -0.5297
124.95 39.0198 31.9411 7.0787
125 26.5484 31.9432 -5.3948
125.05 29.2961 31.9451 -2.649
125.1 21.0645 31.947 -10.8825
125.15 22.2133 31.949 -9.7357
125.2 25.1699 31.9511 -6.7812
125.25 35.8594 31.9533 3.9061
125.3 30.0519 31.9555 -1.9036
125.35 42.6145 31.9577 10.6568
125.4 28.2249 31.9599 -3.735
125.45 23.6444 31.9619 -8.3175
125.5 29.8335 31.9639 -2.1304
125.55 32.5746 31.9659 0.6087
125.6 30.4283 31.9678 -1.5395
125.65 26.1206 31.9699 -5.8493
125.7 26.3654 31.972 -5.6066
125.75 31.0231 31.9743 -0.9512
125.8 28.6534 31.9765 -3.3231
125.85 22.3654 31.9787 -9.6133
125.9 30.4063 31.9809 -1.5746
125.95 32.3856 31.9828 0.4028
126 37.9276 31.9848 5.9428
126.05 26.7058 31.9868 -5.281
126.1 27.4598 31.9888 -4.529
126.15 28.9503 31.991 -3.0407
126.2 26.5253 31.9931 -5.4678
126.25 21.3579 31.9954 -10.6375
126.3 20.7558 31.9977 -11.2419
126.35 29.842 31.9998 -2.1578
126.4 24.5293 32.0019 -7.4726
126.45 24.1346 32.0039 -7.8693
126.5 36.526 32.0059 4.5201
126.55 33.0531 32.0079 1.0452
126.6 34.9094 32.01 2.8994
126.65 31.2737 32.0122 -0.7385
126.7 36.7663 32.0144 4.7519
126.75 34.2906 32.0167 2.2739
126.8 29.4545 32.019 -2.5645
126.85 32.7297 32.0211 0.7086
126.9 26.599 32.0232 -5.4242
126.95 28.7132 32.0252 -3.312
127 34.7531 32.0272 2.7259
127.05 29.6994 32.0293 -2.3299
127.1 26.9784 32.0314 -5.053
127.15 26.7863 32.0336 -5.2473
127.2 31.1248 32.0359 -0.9111
127.25 27.1066 32.0381 -4.9315
127.3 33.6483 32.0404 1.6079
127.35 40.5065 32.0425 8.464
127.4 26.7158 32.0447 -5.3289
127.45 33.5333 32.0467 1.4866
127.5 33.0377 32.0487 0.989
127.55 32.3929 32.0508 0.3421
127.6 35.6955 32.053 3.6425
127.65 26.6244 32.0552 -5.4308
127.7 31.7829 32.0575 -0.2746
127.75 25.5783 32.0598 -6.4815
127.8 33.7715 32.0621 1.7094
127.85 37.0175 32.0642 4.9533
127.9 32.1354 32.0664 0.069
127.95 39.8465 32.0684 7.7781
128 26.5685 32.0705 -5.502
128.05 32.578 32.0726 0.5054
128.1 38.5018 32.0748 6.427
128.15 27.2125 32.0771 -4.8646
128.2 35.805 32.0794 3.7256
128.25 31.4649 32.0817 -0.6168
128.3 23.6873 32.084 -8.3967
128.35 37.2274 32.0862 5.1412
128.4 33.3428 32.0883 1.2545
128.45 21.4706 32.0904 -10.6198
128.5 26.4107 32.0925 -5.6818
128.55 25.4542 32.0947 -6.6405
128.6 26.52 32.0969 -5.5769
128.65 33.9539 32.0992 1.8547
128.7 22.8503 32.1016 -9.2513
128.75 23.9797 32.1039 -8.1242
128.8 28.8081 32.1062 -3.2981
128.85 24.9307 32.1084 -7.1777
128.9 34.2024 32.1106 2.0918
128.95 35.1939 32.1127 3.0812
129 40.8483 32.1148 8.7335
129.05 24.5405 32.117 -7.5765
129.1 31.8308 32.1193 -0.2885
129.15 28.2145 32.1216 -3.9071
129.2 23.3251 32.124 -8.7989
129.25 36.6299 32.1263 4.5036
129.3 35.8668 32.1287 3.7381
129.35 32.438 32.1309 0.3071
129.4 22.4164 32.1332 -9.7168
129.45 29.3704 32.1353 -2.7649
129.5 24.9735 32.1375 -7.164
129.55 31.1728 32.1397 -0.9669
129.6 47.4528 32.142 15.3108
129.65 35.7543 32.1443 3.61
129.7 34.8647 32.1467 2.718
129.75 30.072 32.1491 -2.0771
129.8 36.4644 32.1515 4.3129
129.85 30.6729 32.1538 -1.4809
129.9 29.777 32.1561 -2.3791
129.95 34.8968 32.1685 2.7283
130 27.0918 32.1808 -5.089
