
#Surface 0 of 1 surfaces

#IsoCurve 0, 1801 points
#x y z type
 40  40.028  32.69 i
 40.05  31.7025  32.6877 i
 40.1  42.017  32.6854 i
 40.15  28.6423  32.6831 i
 40.2  44.5413  32.6808 i
 40.25  31.5493  32.6785 i
 40.3  33.7608  32.6762 i
 40.35  49.7941  32.6739 i
 40.4  36.3509  32.6716 i
 40.45  41.3645  32.6693 i
 40.5  37.501  32.6671 i
 40.55  38.4178  32.6648 i
 40.6  45.9811  32.6626 i
 40.65  48.4662  32.6604 i
 40.7  36.5584  32.6581 i
 40.75  37.2617  32.6559 i
 40.8  46.9565  32.6537 i
 40.85  33.1199  32.6515 i
 40.9  38.6161  32.6493 i
 40.95  34.9684  32.6471 i
 41  35.2569  32.6449 i
 41.05  44.9534  32.6428 i
 41.1  32.8475  32.6406 i
 41.15  30.4859  32.6385 i
 41.2  29.1513  32.6363 i
 41.25  35.8935  32.6342 i
 41.3  32.551  32.632 i
 41.35  42.2163  32.6299 i
 41.4  34.4686  32.6278 i
 41.45  48.4339  32.6257 i
 41.5  40.0636  32.6236 i
 41.55  28.4524  32.6215 i
 41.6  49.5406  32.6194 i
 41.65  37.2515  32.6173 i
 41.7  46.9118  32.6152 i
 41.75  33.8178  32.6132 i
 41.8  39.5508  32.6111 i
 41.85  36.5362  32.609 i
 41.9  32.0854  32.607 i
 41.95  37.5744  32.605 i
 42  48.3139  32.6029 i
 42.05  39.7781  32.6009 i
 42.1  27.3136  32.5989 i
 42.15  31.2367  32.5969 i
 42.2  35.7259  32.5949 i
 42.25  30.0342  32.5929 i
 42.3  31.9391  32.5909 i
 42.35  37.051  32.5889 i
 42.4  34.905  32.5869 i
 42.45  33.2947  32.5849 i
 42.5  39.8539  32.583 i
 42.55  36.5263  32.581 i
 42.6  30.6982  32.5791 i
 42.65  38.7576  32.5771 i
 42.7  33.5493  32.5752 i
 42.75  34.3181  32.5733 i
 42.8  37.0079  32.5713 i
 42.85  41.8393  32.5694 i
 42.9  30.8497  32.5675 i
 42.95  44.9708  32.5656 i
 43  40.6525  32.5637 i
 43.05  41.9568  32.5618 i
 43.1  34.493  32.5599 i
 43.15  36.9817  32.558 i
 43.2  39.6637  32.5562 i
 43.25  33.3346  32.5543 i
 43.3  28.6188  32.5524 i
 43.35  32.4314  32.5506 i
 43.4  33.5538  32.5487 i
 43.45  46.0688  32.5469 i
 43.5  42.0486  32.545 i
 43.55  33.1787  32.5432 i
 43.6  42.0697  32.5414 i
 43.65  40.0445  32.5396 i
 43.7  35.5892  32.5377 i
 43.75  32.333  32.5359 i
 43.8  32.1862  32.5341 i
 43.85  34.6545  32.5323 i
 43.9  32.8571  32.5305 i
 43.95  34.9908  32.5288 i
 44  38.6758  32.527 i
 44.05  40.9667  32.5252 i
 44.1  62.4257  32.5234 i
 44.15  48.41  32.5217 i
 44.2  54.2826  32.5199 i
 44.25  60.32  32.5181 i
 44.3  78.0715  32.5164 i
 44.35  95.7907  32.5147 i
 44.4  164.947  32.5129 i
 44.45  315.532  32.5112 i
 44.5  806.586  32.5095 i
 44.55  1493.87  32.5077 i
 44.6  1889.38  32.506 i
 44.65  1465.26  32.5043 i
 44.7  541.665  32.5026 i
 44.75  175.963  32.5009 i
 44.8  88.8371  32.4992 i
 44.85  56.0864  32.4975 i
 44.9  44.9121  32.4958 i
 44.95  44.4067  32.4941 i
 45  44.5514  32.4924 i
 45.05  60.1839  32.4908 i
 45.1  37.4105  32.4891 i
 45.15  38.3455  32.4874 i
 45.2  38.3896  32.4858 i
 45.25  39.0387  32.4841 i
 45.3  30.9206  32.4825 i
 45.35  43.1288  32.4808 i
 45.4  34.5205  32.4792 i
 45.45  23.4276  32.4776 i
 45.5  32.4292  32.4759 i
 45.55  38.9373  32.4743 i
 45.6  38.8  32.4727 i
 45.65  35.874  32.471 i
 45.7  29.3046  32.4694 i
 45.75  45.9023  32.4678 i
 45.8  31.5675  32.4662 i
 45.85  39.1253  32.4646 i
 45.9  26.1875  32.463 i
 45.95  30.234  32.4614 i
 46  44.739  32.4598 i
 46.05  38.5995  32.4582 i
 46.1  33.657  32.4567 i
 46.15  34.3149  32.4551 i
 46.2  36.0815  32.4535 i
 46.25  33.8881  32.4519 i
 46.3  36.6284  32.4504 i
 46.35  41.3348  32.4488 i
 46.4  30.1319  32.4473 i
 46.45  32.327  32.4457 i
 46.5  37.3311  32.4442 i
 46.55  29.302  32.4426 i
 46.6  30.052  32.4411 i
 46.65  38.586  32.4395 i
 46.7  34.9991  32.438 i
 46.75  32.0556  32.4365 i
 46.8  30.6932  32.4349 i
 46.85  31.2094  32.4334 i
 46.9  47.8651  32.4319 i
 46.95  40.2773  32.4304 i
 47  35.6962  32.4288 i
 47.05  38.7928  32.4273 i
 47.1  29.1822  32.4258 i
 47.15  36.7914  32.4243 i
 47.2  35.0038  32.4228 i
 47.25  34.4573  32.4213 i
 47.3  40.4736  32.4198 i
 47.35  43.5882  32.4183 i
 47.4  34.7654  32.4168 i
 47.45  32.8133  32.4153 i
 47.5  33.5422  32.4139 i
 47.55  36.0655  32.4124 i
 47.6  37.3766  32.4109 i
 47.65  28.2759  32.4094 i
 47.7  46.5503  32.408 i
 47.75  27.875  32.4065 i
 47.8  39.2317  32.405 i
 47.85  35.821  32.4036 i
 47.9  30.4177  32.4021 i
 47.95  32.4539  32.4006 i
 48  23.2755  32.3992 i
 48.05  31.6944  32.3977 i
 48.1  31.5098  32.3963 i
 48.15  36.2049  32.3948 i
 48.2  39.6104  32.3934 i
 48.25  36.1297  32.3919 i
 48.3  29.7038  32.3905 i
 48.35  33.424  32.3891 i
 48.4  41.8448  32.3876 i
 48.45  38.6096  32.3862 i
 48.5  29.8242  32.3848 i
 48.55  35.0783  32.3833 i
 48.6  27.2065  32.3819 i
 48.65  35.4631  32.3805 i
 48.7  37.614  32.3791 i
 48.75  22.0801  32.3776 i
 48.8  49.2304  32.3762 i
 48.85  32.1606  32.3748 i
 48.9  35.0356  32.3734 i
 48.95  31.207  32.372 i
 49  33.0992  32.3706 i
 49.05  39.3871  32.3692 i
 49.1  40.2479  32.3677 i
 49.15  27.4756  32.3663 i
 49.2  27.8085  32.3649 i
 49.25  25.5825  32.3635 i
 49.3  28.1383  32.3621 i
 49.35  21.1547  32.3607 i
 49.4  31.4959  32.3593 i
 49.45  23.1757  32.3579 i
 49.5  33.6959  32.3565 i
 49.55  38.2154  32.3552 i
 49.6  26.1132  32.3538 i
 49.65  32.9034  32.3524 i
 49.7  35.096  32.351 i
 49.75  20.9159  32.3496 i
 49.8  23.2863  32.3482 i
 49.85  32.0098  32.3468 i
 49.9  38.1588  32.3454 i
 49.95  39.8757  32.3441 i
 50  39.2898  32.3427 i
 50.05  45.3826  32.3413 i
 50.1  35.6426  32.3399 i
 50.15  31.4311  32.3386 i
 50.2  29.5905  32.3372 i
 50.25  35.149  32.3358 i
 50.3  37.6962  32.3344 i
 50.35  43.1226  32.3331 i
 50.4  33.5444  32.3317 i
 50.45  29.8112  32.3303 i
 50.5  33.0954  32.3289 i
 50.55  26.9074  32.3276 i
 50.6  31.3059  32.3262 i
 50.65  36.6794  32.3248 i
 50.7  39.9119  32.3235 i
 50.75  27.3971  32.3221 i
 50.8  34.8105  32.3207 i
 50.85  27.7875  32.3194 i
 50.9  35.6004  32.318 i
 50.95  40.5997  32.3166 i
 51  29.6708  32.3153 i
 51.05  25.8622  32.3139 i
 51.1  31.0158  32.3125 i
 51.15  39.1132  32.3112 i
 51.2  29.2377  32.3098 i
 51.25  33.5821  32.3084 i
 51.3  30.0993  32.3071 i
 51.35  38.3836  32.3057 i
 51.4  38.0319  32.3044 i
 51.45  33.52  32.303 i
 51.5  33.6284  32.3016 i
 51.55  30.767  32.3003 i
 51.6  34.0299  32.2989 i
 51.65  36.4751  32.2975 i
 51.7  31.618  32.2962 i
 51.75  30.9411  32.2948 i
 51.8  43.6904  32.2935 i
 51.85  27.7861  32.2921 i
 51.9  32.7477  32.2907 i
 51.95  33.3121  32.2894 i
 52  24.2769  32.288 i
 52.05  18.0648  32.2866 i
 52.1  28.8858  32.2853 i
 52.15  32.7835  32.2839 i
 52.2  29.5184  32.2826 i
 52.25  29.6891  32.2812 i
 52.3  39.9312  32.2798 i
 52.35  29.01  32.2785 i
 52.4  34.5479  32.2771 i
 52.45  34.3432  32.2757 i
 52.5  32.9908  32.2743 i
 52.55  23.4556  32.273 i
 52.6  32.4932  32.2716 i
 52.65  32.484  32.2702 i
 52.7  36.5496  32.2689 i
 52.75  36.3853  32.2675 i
 52.8  31.227  32.2661 i
 52.85  34.3881  32.2648 i
 52.9  29.8098  32.2634 i
 52.95  35.7131  32.262 i
 53  37.0793  32.2606 i
 53.05  29.9322  32.2592 i
 53.1  33.3397  32.2579 i
 53.15  33.3809  32.2565 i
 53.2  31.5483  32.2551 i
 53.25  30.2908  32.2537 i
 53.3  27.4547  32.2523 i
 53.35  22.7506  32.251 i
 53.4  45.3282  32.2496 i
 53.45  23.9299  32.2482 i
 53.5  29.0303  32.2468 i
 53.55  35.4395  32.2454 i
 53.6  32.721  32.244 i
 53.65  27.1128  32.2426 i
 53.7  34.9181  32.2412 i
 53.75  22.0853  32.2398 i
 53.8  38.0826  32.2384 i
 53.85  24.5038  32.237 i
 53.9  26.3391  32.2356 i
 53.95  29.9101  32.2342 i
 54  33.3448  32.2328 i
 54.05  26.7462  32.2314 i
 54.1  24.1761  32.23 i
 54.15  25.8318  32.2286 i
 54.2  41.9148  32.2272 i
 54.25  31.2618  32.2258 i
 54.3  31.6381  32.2244 i
 54.35  31.2373  32.2229 i
 54.4  29.9042  32.2215 i
 54.45  29.6287  32.2201 i
 54.5  33.3865  32.2187 i
 54.55  30.1717  32.2172 i
 54.6  23.1948  32.2158 i
 54.65  35.866  32.2144 i
 54.7  31.387  32.2129 i
 54.75  33.3101  32.2115 i
 54.8  30.8597  32.2101 i
 54.85  33.3012  32.2086 i
 54.9  27.2739  32.2072 i
 54.95  28.4383  32.2057 i
 55  35.8209  32.2043 i
 55.05  22.716  32.2029 i
 55.1  24.2605  32.2014 i
 55.15  37.0516  32.1999 i
 55.2  30.9671  32.1985 i
 55.25  35.7078  32.197 i
 55.3  27.1584  32.1956 i
 55.35  22.1984  32.1941 i
 55.4  39.5758  32.1926 i
 55.45  40.4059  32.1912 i
 55.5  34.9189  32.1897 i
 55.55  35.7588  32.1882 i
 55.6  32.3797  32.1867 i
 55.65  19.1861  32.1852 i
 55.7  36.1849  32.1838 i
 55.75  27.1558  32.1823 i
 55.8  28.7375  32.1808 i
 55.85  31.233  32.1793 i
 55.9  33.323  32.1778 i
 55.95  33.3488  32.1763 i
 56  29.679  32.1748 i
 56.05  26.2977  32.1733 i
 56.1  25.6613  32.1718 i
 56.15  33.106  32.1702 i
 56.2  30.3194  32.1687 i
 56.25  34.9974  32.1672 i
 56.3  23.6659  32.1657 i
 56.35  31.6684  32.1642 i
 56.4  33.5981  32.1626 i
 56.45  33.6663  32.1611 i
 56.5  33.2025  32.1596 i
 56.55  37.6311  32.158 i
 56.6  37.1226  32.1565 i
 56.65  28.8273  32.1549 i
 56.7  30.853  32.1534 i
 56.75  33.0827  32.1518 i
 56.8  34.596  32.1502 i
 56.85  33.8042  32.1487 i
 56.9  36.4221  32.1471 i
 56.95  28.2171  32.1455 i
 57  28.7728  32.144 i
 57.05  33.3806  32.1424 i
 57.1  27.7875  32.1408 i
 57.15  31.0603  32.1392 i
 57.2  35.0517  32.1376 i
 57.25  36.5531  32.136 i
 57.3  30.3705  32.1344 i
 57.35  25.6379  32.1328 i
 57.4  36.7611  32.1312 i
 57.45  34.9592  32.1296 i
 57.5  22.1746  32.128 i
 57.55  29.4309  32.1264 i
 57.6  39.3063  32.1247 i
 57.65  20.2505  32.1231 i
 57.7  25.6626  32.1215 i
 57.75  27.5959  32.1198 i
 57.8  39.2205  32.1182 i
 57.85  30.1008  32.1165 i
 57.9  29.9505  32.1149 i
 57.95  23.3912  32.1132 i
 58  39.2145  32.1116 i
 58.05  34.4678  32.1099 i
 58.1  33.7833  32.1082 i
 58.15  28.7712  32.1065 i
 58.2  47.7739  32.1049 i
 58.25  30.1093  32.1032 i
 58.3  26.6269  32.1015 i
 58.35  31.7377  32.0998 i
 58.4  30.1779  32.0981 i
 58.45  35.7043  32.0964 i
 58.5  19.5608  32.0947 i
 58.55  26.7126  32.093 i
 58.6  29.7169  32.0912 i
 58.65  34.4103  32.0895 i
 58.7  36.6653  32.0878 i
 58.75  34.4694  32.086 i
 58.8  30.7159  32.0843 i
 58.85  35.8082  32.0826 i
 58.9  29.1266  32.0808 i
 58.95  35.1881  32.079 i
 59  30.208  32.0773 i
 59.05  33.5857  32.0755 i
 59.1  30.1299  32.0737 i
 59.15  42.5893  32.072 i
 59.2  35.8901  32.0702 i
 59.25  35.8042  32.0684 i
 59.3  35.3151  32.0666 i
 59.35  28.6673  32.0648 i
 59.4  39.5205  32.063 i
 59.45  36.4208  32.0612 i
 59.5  35.0314  32.0593 i
 59.55  31.8725  32.0575 i
 59.6  24.0828  32.0557 i
 59.65  38.0325  32.0539 i
 59.7  33.8985  32.052 i
 59.75  30.6098  32.0502 i
 59.8  29.7569  32.0483 i
 59.85  30.7553  32.0464 i
 59.9  27.4304  32.0446 i
 59.95  40.5241  32.0427 i
 60  23.8951  32.0408 i
 60.05  30.9021  32.0389 i
 60.1  41.2169  32.0371 i
 60.15  35.9692  32.0352 i
 60.2  30.9144  32.0333 i
 60.25  34.9576  32.0313 i
 60.3  28.7781  32.0294 i
 60.35  26.4866  32.0275 i
 60.4  39.2717  32.0256 i
 60.45  37.0822  32.0236 i
 60.5  28.7166  32.0217 i
 60.55  35.805  32.0198 i
 60.6  36.57  32.0178 i
 60.65  36.0545  32.0158 i
 60.7  26.6917  32.0139 i
 60.75  23.7993  32.0119 i
 60.8  29.6258  32.0099 i
 60.85  30.5307  32.0079 i
 60.9  25.0216  32.0059 i
 60.95  38.5745  32.0039 i
 61  37.1538  32.0019 i
 61.05  36.0598  31.9999 i
 61.1  25.0366  31.9979 i
 61.15  27.5872  31.9959 i
 61.2  26.6576  31.9938 i
 61.25  30.4402  31.9918 i
 61.3  25.4527  31.9897 i
 61.35  30.7341  31.9877 i
 61.4  29.3497  31.9856 i
 61.45  25.6305  31.9835 i
 61.5  28.9059  31.9815 i
 61.55  32.1847  31.9794 i
 61.6  33.2473  31.9773 i
 61.65  32.4359  31.9752 i
 61.7  29.7921  31.9731 i
 61.75  26.3431  31.9709 i
 61.8  26.3499  31.9688 i
 61.85  33.4747  31.9667 i
 61.9  25.6993  31.9646 i
 61.95  36.1639  31.9624 i
 62  29.3659  31.9603 i
 62.05  20.9291  31.9581 i
 62.1  26.178  31.9559 i
 62.15  28.5429  31.9537 i
 62.2  30.576  31.9516 i
 62.25  36.6589  31.9494 i
 62.3  38.4558  31.9472 i
 62.35  30.0782  31.945 i
 62.4  30.2217  31.9428 i
 62.45  30.0601  31.9405 i
 62.5  41.7759  31.9383 i
 62.55  24.0643  31.9361 i
 62.6  27.1189  31.9338 i
 62.65  22.7816  31.9316 i
 62.7  34.7153  31.9293 i
 62.75  19.1486  31.927 i
 62.8  38.8531  31.9247 i
 62.85  19.0581  31.9225 i
 62.9  29.3606  31.9202 i
 62.95  35.4387  31.9179 i
 63  28.4831  31.9155 i
 63.05  36.7827  31.9132 i
 63.1  27.561  31.9109 i
 63.15  29.6158  31.9086 i
 63.2  21.1888  31.9062 i
 63.25  23.2042  31.9039 i
 63.3  39.8855  31.9015 i
 63.35  42.7511  31.8991 i
 63.4  39.0148  31.8967 i
 63.45  34.095  31.8944 i
 63.5  36.1211  31.892 i
 63.55  24.3396  31.8896 i
 63.6  30.9573  31.8871 i
 63.65  24.1799  31.8847 i
 63.7  28.9832  31.8823 i
 63.75  27.2087  31.8798 i
 63.8  25.5045  31.8774 i
 63.85  41.3195  31.8749 i
 63.9  25.1598  31.8725 i
 63.95  32.4305  31.87 i
 64  31.4334  31.8675 i
 64.05  22.3183  31.865 i
 64.1  33.4968  31.8625 i
 64.15  42.548  31.86 i
 64.2  21.2642  31.8575 i
 64.25  32.5917  31.8549 i
 64.3  34.2521  31.8524 i
 64.35  32.7429  31.8498 i
 64.4  35.7337  31.8473 i
 64.45  38.9331  31.8447 i
 64.5  47.5835  31.8421 i
 64.55  49.4058  31.8395 i
 64.6  38.0802  31.8369 i
 64.65  47.2119  31.8343 i
 64.7  45.8994  31.8317 i
 64.75  64.6193  31.8291 i
 64.8  94.0214  31.8265 i
 64.85  116.41  31.8238 i
 64.9  134.29  31.8212 i
 64.95  139.51  31.8185 i
 65  102.593  31.8158 i
 65.05  76.7996  31.8131 i
 65.1  60.6308  31.8104 i
 65.15  42.2647  31.8077 i
 65.2  47.3745  31.805 i
 65.25  30.531  31.8023 i
 65.3  28.5555  31.7996 i
 65.35  23.051  31.7968 i
 65.4  28.9175  31.7941 i
 65.45  33.4621  31.7913 i
 65.5  24.7213  31.7885 i
 65.55  21.7215  31.7858 i
 65.6  32.2621  31.783 i
 65.65  21.2768  31.7802 i
 65.7  23.455  31.7773 i
 65.75  21.486  31.7745 i
 65.8  33.0683  31.7717 i
 65.85  29.4037  31.7688 i
 65.9  34.8467  31.766 i
 65.95  43.4335  31.7631 i
 66  27.0493  31.7602 i
 66.05  20.8369  31.7573 i
 66.1  25.3436  31.7544 i
 66.15  37.588  31.7515 i
 66.2  26.0757  31.7486 i
 66.25  20.1515  31.7457 i
 66.3  25.079  31.7427 i
 66.35  22.6668  31.7398 i
 66.4  34.5129  31.7368 i
 66.45  28.0689  31.7339 i
 66.5  25.8839  31.7309 i
 66.55  33.0594  31.7279 i
 66.6  26.1929  31.7249 i
 66.65  32.2823  31.7219 i
 66.7  28.5868  31.7188 i
 66.75  32.6821  31.7158 i
 66.8  34.8286  31.7127 i
 66.85  26.2344  31.7097 i
 66.9  16.106  31.7066 i
 66.95  25.6438  31.7035 i
 67  25.0314  31.7004 i
 67.05  33.2278  31.6973 i
 67.1  33.2811  31.6942 i
 67.15  23.3802  31.6911 i
 67.2  27.4423  31.6879 i
 67.25  37.1382  31.6848 i
 67.3  24.9404  31.6816 i
 67.35  31.1088  31.6784 i
 67.4  31.1342  31.6753 i
 67.45  33.3137  31.6721 i
 67.5  26.246  31.6688 i
 67.55  35.6902  31.6656 i
 67.6  25.1968  31.6624 i
 67.65  21.6663  31.6592 i
 67.7  23.5826  31.6559 i
 67.75  22.9931  31.6526 i
 67.8  26.0999  31.6493 i
 67.85  24.4609  31.6461 i
 67.9  35.1385  31.6428 i
 67.95  39.506  31.6394 i
 68  26.8673  31.6361 i
 68.05  21.6763  31.6328 i
 68.1  31.7619  31.6294 i
 68.15  30.1666  31.6261 i
 68.2  31.6629  31.6227 i
 68.25  24.1092  31.6193 i
 68.3  34.3215  31.6159 i
 68.35  21.0617  31.6125 i
 68.4  24.0252  31.6091 i
 68.45  32.4656  31.6056 i
 68.5  38.4823  31.6022 i
 68.55  26.1986  31.5987 i
 68.6  23.1756  31.5952 i
 68.65  29.4778  31.5918 i
 68.7  33.2755  31.5883 i
 68.75  32.3008  31.5848 i
 68.8  29.8303  31.5812 i
 68.85  32.8324  31.5777 i
 68.9  32.3914  31.5741 i
 68.95  26.2354  31.5706 i
 69  26.2593  31.567 i
 69.05  28.1775  31.5634 i
 69.1  27.4065  31.5598 i
 69.15  30.4624  31.5562 i
 69.2  32.2245  31.5526 i
 69.25  26.8055  31.5489 i
 69.3  24.8498  31.5453 i
 69.35  31.1232  31.5416 i
 69.4  26.8486  31.538 i
 69.45  27.1091  31.5343 i
 69.5  28.1396  31.5306 i
 69.55  22.4651  31.5269 i
 69.6  30.893  31.5231 i
 69.65  38.4503  31.5194 i
 69.7  23.6956  31.5156 i
 69.75  31.6997  31.5119 i
 69.8  23.3498  31.5081 i
 69.85  37.0802  31.5043 i
 69.9  29.7002  31.5005 i
 69.95  29.9785  31.4967 i
 70  31.0354  31.4928 i
 70.05  25.9455  31.489 i
 70.1  32.8237  31.4851 i
 70.15  30.0536  31.4812 i
 70.2  25.5957  31.4773 i
 70.25  33.0377  31.4734 i
 70.3  32.3317  31.4695 i
 70.35  33.3978  31.4656 i
 70.4  28.8166  31.4617 i
 70.45  24.4281  31.4577 i
 70.5  24.1241  31.4537 i
 70.55  29.8786  31.4497 i
 70.6  33.4124  31.4457 i
 70.65  23.8481  31.4417 i
 70.7  36.9852  31.4377 i
 70.75  18.6527  31.4337 i
 70.8  38.758  31.4296 i
 70.85  30.6364  31.4255 i
 70.9  25.1638  31.4215 i
 70.95  32.6983  31.4174 i
 71  24.1421  31.4132 i
 71.05  34.6745  31.4091 i
 71.1  27.701  31.405 i
 71.15  31.104  31.4008 i
 71.2  30.9979  31.3967 i
 71.25  31.117  31.3924 i
 71.3  33.5844  31.3881 i
 71.35  31.3321  31.3838 i
 71.4  26.9219  31.3794 i
 71.45  28.9515  31.3749 i
 71.5  28.0881  31.3704 i
 71.55  30.6996  31.3659 i
 71.6  28.123  31.3612 i
 71.65  26.7574  31.3566 i
 71.7  30.7077  31.3519 i
 71.75  24.8414  31.3471 i
 71.8  32.073  31.3423 i
 71.85  30.4495  31.3374 i
 71.9  36.3355  31.3325 i
 71.95  25.9678  31.3275 i
 72  31.3187  31.3225 i
 72.05  22.483  31.3174 i
 72.1  28.8827  31.3123 i
 72.15  34.2959  31.3071 i
 72.2  34.1033  31.3019 i
 72.25  39.6093  31.2966 i
 72.3  28.9417  31.2913 i
 72.35  28.0659  31.286 i
 72.4  21.7543  31.2805 i
 72.45  33.4878  31.2751 i
 72.5  27.948  31.2696 i
 72.55  30.5519  31.264 i
 72.6  29.534  31.2584 i
 72.65  31.793  31.2528 i
 72.7  28.1935  31.2471 i
 72.75  23.864  31.2414 i
 72.8  26.7481  31.2356 i
 72.85  26.4529  31.2298 i
 72.9  32.0732  31.224 i
 72.95  23.4768  31.2181 i
 73  32.5776  31.2121 i
 73.05  36.348  31.2061 i
 73.1  22.8921  31.2001 i
 73.15  29.4752  31.194 i
 73.2  31.3682  31.1879 i
 73.25  31.2625  31.1818 i
 73.3  39.3754  31.1756 i
 73.35  36.3093  31.1694 i
 73.4  38.4791  31.1631 i
 73.45  22.2019  31.1568 i
 73.5  32.058  31.1504 i
 73.55  26.8543  31.1441 i
 73.6  33.5782  31.1376 i
 73.65  22.3184  31.1312 i
 73.7  23.6494  31.1247 i
 73.75  32.6506  31.1182 i
 73.8  34.3497  31.1116 i
 73.85  36.5082  31.105 i
 73.9  33.9406  31.0983 i
 73.95  34.1672  31.0917 i
 74  27.8147  31.085 i
 74.05  31.7317  31.0782 i
 74.1  26.2966  31.0714 i
 74.15  32.6793  31.0646 i
 74.2  29.4859  31.0578 i
 74.25  30.6986  31.0509 i
 74.3  41.5279  31.044 i
 74.35  35.4294  31.037 i
 74.4  36.5592  31.03 i
 74.45  32.3287  31.023 i
 74.5  23.9124  31.016 i
 74.55  27.4005  31.0089 i
 74.6  37.0826  31.0018 i
 74.65  28.5598  30.9947 i
 74.7  24.2119  30.9875 i
 74.75  33.5161  30.9803 i
 74.8  26.5579  30.9731 i
 74.85  22.3127  30.9659 i
 74.9  22.3587  30.9586 i
 74.95  21.3089  30.9513 i
 75  22.2764  30.944 i
 75.05  32.3362  30.9366 i
 75.1  25.472  30.9292 i
 75.15  24.1446  30.9218 i
 75.2  35.5209  30.9144 i
 75.25  20.8561  30.9069 i
 75.3  27.6926  30.8994 i
 75.35  29.6698  30.8919 i
 75.4  17.3039  30.8844 i
 75.45  33.6164  30.8768 i
 75.5  36.3657  30.8692 i
 75.55  36.634  30.8616 i
 75.6  32.8531  30.854 i
 75.65  20.7225  30.8464 i
 75.7  43.2298  30.8387 i
 75.75  24.0561  30.831 i
 75.8  25.093  30.8233 i
 75.85  38.701  30.8155 i
 75.9  30.8682  30.8078 i
 75.95  25.7221  30.8 i
 76  21.0495  30.7922 i
 76.05  24.9516  30.7844 i
 76.1  39.0272  30.7765 i
 76.15  24.2837  30.7687 i
 76.2  32.294  30.7608 i
 76.25  35.0852  30.7529 i
 76.3  31.3799  30.745 i
 76.35  32.3952  30.7371 i
 76.4  34.3655  30.7291 i
 76.45  43.071  30.7211 i
 76.5  39.2133  30.7132 i
 76.55  28.3617  30.7052 i
 76.6  44.163  30.6972 i
 76.65  26.8315  30.6891 i
 76.7  23.6154  30.6811 i
 76.75  28.3837  30.673 i
 76.8  22.2178  30.665 i
 76.85  43.6048  30.6569 i
 76.9  27.5721  30.6488 i
 76.95  25.2386  30.6407 i
 77  34.8949  30.6326 i
 77.05  50.5198  30.6244 i
 77.1  40.5188  30.6163 i
 77.15  25.4205  30.6081 i
 77.2  27.1477  30.6 i
 77.25  45.2626  30.5918 i
 77.3  29.6578  30.5836 i
 77.35  34.5035  30.5754 i
 77.4  21.4831  30.5672 i
 77.45  26.2423  30.559 i
 77.5  38.0928  30.5508 i
 77.55  35.1117  30.5425 i
 77.6  32.6386  30.5343 i
 77.65  25.5919  30.5261 i
 77.7  29.6898  30.5178 i
 77.75  32.369  30.5095 i
 77.8  30.9133  30.5013 i
 77.85  39.1354  30.493 i
 77.9  26.8352  30.4847 i
 77.95  27.6772  30.4764 i
 78  27.8894  30.4681 i
 78.05  31.3927  30.4599 i
 78.1  31.5991  30.4516 i
 78.15  34.7858  30.4433 i
 78.2  26.7274  30.4349 i
 78.25  29.0621  30.4266 i
 78.3  31.6509  30.4183 i
 78.35  39.0132  30.41 i
 78.4  32.9669  30.4017 i
 78.45  35.6573  30.3934 i
 78.5  31.3761  30.3851 i
 78.55  31.2042  30.3767 i
 78.6  29.0159  30.3684 i
 78.65  24.3324  30.3601 i
 78.7  28.9229  30.3518 i
 78.75  35.2668  30.3435 i
 78.8  29.3805  30.3351 i
 78.85  33.235  30.3268 i
 78.9  26.1038  30.3185 i
 78.95  29.6182  30.3102 i
 79  23.0139  30.3019 i
 79.05  31.0524  30.2936 i
 79.1  24.7776  30.2853 i
 79.15  34.1631  30.277 i
 79.2  33.4843  30.2687 i
 79.25  29.4108  30.2604 i
 79.3  34.0265  30.2521 i
 79.35  37.6943  30.2438 i
 79.4  23.1486  30.2356 i
 79.45  30.0079  30.2273 i
 79.5  31.6638  30.219 i
 79.55  28.6701  30.2108 i
 79.6  23.8137  30.2025 i
 79.65  31.5148  30.1943 i
 79.7  33.0947  30.186 i
 79.75  29.9447  30.1778 i
 79.8  37.0778  30.1696 i
 79.85  29.1584  30.1614 i
 79.9  35.2212  30.1532 i
 79.95  24.5511  30.145 i
 80  30.0983  30.1368 i
 80.05  35.1814  30.1286 i
 80.1  36.0331  30.1205 i
 80.15  28.02  30.1123 i
 80.2  22.4263  30.1042 i
 80.25  27.2964  30.0961 i
 80.3  31.599  30.088 i
 80.35  24.8179  30.0799 i
 80.4  32.2712  30.0718 i
 80.45  35.1809  30.0637 i
 80.5  38.5699  30.0557 i
 80.55  35.0238  30.0476 i
 80.6  29.5315  30.0396 i
 80.65  31.5291  30.0316 i
 80.7  31.6866  30.0236 i
 80.75  19.6232  30.0156 i
 80.8  26.0757  30.0076 i
 80.85  32.4021  29.9997 i
 80.9  34.9783  29.9917 i
 80.95  28.1614  29.9838 i
 81  29.6588  29.9759 i
 81.05  25.4796  29.968 i
 81.1  20.2313  29.9602 i
 81.15  31.6667  29.9523 i
 81.2  31.3057  29.9445 i
 81.25  34.6698  29.9367 i
 81.3  34.4826  29.9289 i
 81.35  26.7397  29.9211 i
 81.4  27.7079  29.9134 i
 81.45  45.1971  29.9057 i
 81.5  22.3282  29.898 i
 81.55  43.9097  29.8903 i
 81.6  37.0805  29.8826 i
 81.65  39.6452  29.875 i
 81.7  30.8849  29.8674 i
 81.75  34.561  29.8598 i
 81.8  55.9878  29.8522 i
 81.85  50.4581  29.8447 i
 81.9  60.4128  29.8371 i
 81.95  74.4457  29.8296 i
 82  111.098  29.8222 i
 82.05  171.267  29.8147 i
 82.1  232.791  29.8073 i
 82.15  259.862  29.7999 i
 82.2  281.914  29.7925 i
 82.25  186.488  29.7852 i
 82.3  109.792  29.7779 i
 82.35  60.6529  29.7706 i
 82.4  76.9676  29.7633 i
 82.45  35.5413  29.7561 i
 82.5  43.0605  29.7489 i
 82.55  53.75  29.7418 i
 82.6  32.7773  29.7346 i
 82.65  30.7546  29.7275 i
 82.7  39.0565  29.7204 i
 82.75  26.0381  29.7134 i
 82.8  28.8578  29.7063 i
 82.85  29.5573  29.6994 i
 82.9  33.9667  29.6924 i
 82.95  24.6662  29.6855 i
 83  21.1224  29.6786 i
 83.05  23.7487  29.6717 i
 83.1  35.5701  29.6649 i
 83.15  29.6703  29.6581 i
 83.2  26.5837  29.6514 i
 83.25  40.716  29.6446 i
 83.3  26.9894  29.6379 i
 83.35  32.2377  29.6313 i
 83.4  26.5298  29.6247 i
 83.45  29.0889  29.6181 i
 83.5  28.1664  29.6115 i
 83.55  21.2283  29.605 i
 83.6  33.0932  29.5986 i
 83.65  26.6381  29.5921 i
 83.7  26.8104  29.5857 i
 83.75  20.1423  29.5794 i
 83.8  36.5659  29.5731 i
 83.85  34.2764  29.5668 i
 83.9  37.8726  29.5605 i
 83.95  28.4042  29.5543 i
 84  42.2735  29.5482 i
 84.05  24.0184  29.542 i
 84.1  34.0101  29.536 i
 84.15  34.7083  29.5299 i
 84.2  34.1439  29.5239 i
 84.25  34.9937  29.518 i
 84.3  29.4316  29.5121 i
 84.35  29.3432  29.5062 i
 84.4  24.6903  29.5004 i
 84.45  26.306  29.4946 i
 84.5  31.78  29.4888 i
 84.55  26.8155  29.4831 i
 84.6  34.7162  29.4775 i
 84.65  35.6292  29.4719 i
 84.7  32.5842  29.4663 i
 84.75  27.9885  29.4608 i
 84.8  29.4909  29.4553 i
 84.85  18.8958  29.4499 i
 84.9  27.2669  29.4445 i
 84.95  27.5981  29.4392 i
 85  25.6777  29.4339 i
 85.05  32.0106  29.4287 i
 85.1  35.5364  29.4235 i
 85.15  35.8422  29.4183 i
 85.2  24.6954  29.4133 i
 85.25  33.827  29.4082 i
 85.3  28.0236  29.4032 i
 85.35  26.3264  29.3983 i
 85.4  38.4401  29.3934 i
 85.45  23.7179  29.3886 i
 85.5  31.6638  29.3838 i
 85.55  34.8397  29.379 i
 85.6  35.9342  29.3744 i
 85.65  32.8888  29.3697 i
 85.7  29.7999  29.3651 i
 85.75  27.4908  29.3606 i
 85.8  24.5453  29.3561 i
 85.85  23.6536  29.3517 i
 85.9  31.5616  29.3474 i
 85.95  21.4259  29.3431 i
 86  24.0062  29.3388 i
 86.05  36.6375  29.3346 i
 86.1  25.5228  29.3305 i
 86.15  24.8732  29.3264 i
 86.2  29.455  29.3223 i
 86.25  25.6264  29.3184 i
 86.3  30.3421  29.3144 i
 86.35  37.4406  29.3106 i
 86.4  37.1593  29.3068 i
 86.45  38.7272  29.303 i
 86.5  36.5449  29.2994 i
 86.55  33.0233  29.2957 i
 86.6  29.6255  29.2922 i
 86.65  27.1124  29.2887 i
 86.7  22.3503  29.2852 i
 86.75  31.8633  29.2818 i
 86.8  37.5739  29.2785 i
 86.85  31.3827  29.2753 i
 86.9  37.8553  29.2721 i
 86.95  29.3714  29.2689 i
 87  31.4878  29.2658 i
 87.05  25.5535  29.2628 i
 87.1  25.5495  29.2599 i
 87.15  29.7446  29.257 i
 87.2  33.3321  29.2542 i
 87.25  26.3542  29.2514 i
 87.3  30.343  29.2487 i
 87.35  32.4074  29.2461 i
 87.4  32.8531  29.2435 i
 87.45  25.1361  29.241 i
 87.5  33.6686  29.2386 i
 87.55  33.5949  29.2362 i
 87.6  26.4059  29.2339 i
 87.65  33.5833  29.2317 i
 87.7  29.2586  29.2295 i
 87.75  34.8518  29.2275 i
 87.8  32.0759  29.2254 i
 87.85  29.9275  29.2235 i
 87.9  24.8477  29.2216 i
 87.95  38.6624  29.2198 i
 88  28.7389  29.218 i
 88.05  23.3606  29.2163 i
 88.1  19.3015  29.2147 i
 88.15  31.6543  29.2132 i
 88.2  35.3776  29.2117 i
 88.25  31.1247  29.2103 i
 88.3  41.4227  29.209 i
 88.35  40.3838  29.2078 i
 88.4  19.5219  29.2066 i
 88.45  37.725  29.2055 i
 88.5  35.8705  29.2045 i
 88.55  30.0056  29.2035 i
 88.6  22.2363  29.2027 i
 88.65  35.3863  29.2018 i
 88.7  31.2082  29.2011 i
 88.75  27.6225  29.2005 i
 88.8  35.001  29.1999 i
 88.85  31.2397  29.1994 i
 88.9  30.8959  29.1989 i
 88.95  29.9139  29.1986 i
 89  30.2964  29.1982 i
 89.05  36.3771  29.198 i
 89.1  31.7149  29.1978 i
 89.15  33.7762  29.1977 i
 89.2  27.8185  29.1976 i
 89.25  23.8221  29.1976 i
 89.3  34.8309  29.1976 i
 89.35  32.1523  29.1978 i
 89.4  24.4468  29.1979 i
 89.45  32.8694  29.1982 i
 89.5  34.3572  29.1985 i
 89.55  27.6334  29.1988 i
 89.6  23.9269  29.1993 i
 89.65  24.4192  29.1997 i
 89.7  34.1534  29.2003 i
 89.75  28.8652  29.2009 i
 89.8  26.3159  29.2015 i
 89.85  30.0319  29.2023 i
 89.9  34.1749  29.203 i
 89.95  29.5899  29.2039 i
 90  27.1443  29.2047 i
 90.05  36.8572  29.2057 i
 90.1  33.429  29.2067 i
 90.15  28.6992  29.2078 i
 90.2  39.4687  29.2089 i
 90.25  26.8034  29.2101 i
 90.3  33.9776  29.2113 i
 90.35  24.4011  29.2126 i
 90.4  30.8156  29.2139 i
 90.45  25.9903  29.2153 i
 90.5  26.2803  29.2168 i
 90.55  34.0463  29.2183 i
 90.6  27.7062  29.2198 i
 90.65  33.292  29.2214 i
 90.7  28.2555  29.2231 i
 90.75  26.2534  29.2248 i
 90.8  33.2965  29.2266 i
 90.85  36.4986  29.2284 i
 90.9  36.1135  29.2303 i
 90.95  29.5125  29.2322 i
 91  36.2378  29.2342 i
 91.05  35.2761  29.2363 i
 91.1  34.6327  29.2383 i
 91.15  38.6807  29.2405 i
 91.2  28.8253  29.2427 i
 91.25  39.9893  29.2449 i
 91.3  20.3905  29.2472 i
 91.35  26.9534  29.2495 i
 91.4  31.281  29.2519 i
 91.45  36.6  29.2544 i
 91.5  24.0603  29.2569 i
 91.55  32.8291  29.2594 i
 91.6  22.71  29.262 i
 91.65  27.3436  29.2646 i
 91.7  31.541  29.2673 i
 91.75  21.4556  29.27 i
 91.8  33.2908  29.2728 i
 91.85  29.2664  29.2756 i
 91.9  32.436  29.2785 i
 91.95  16.9335  29.2814 i
 92  26.1555  29.2844 i
 92.05  31.8952  29.2874 i
 92.1  26.2685  29.2905 i
 92.15  32.2957  29.2936 i
 92.2  32.666  29.2967 i
 92.25  19.5393  29.2999 i
 92.3  31.8021  29.3031 i
 92.35  29.8268  29.3064 i
 92.4  43.6436  29.3097 i
 92.45  32.6615  29.3131 i
 92.5  31.3984  29.3165 i
 92.55  35.7058  29.32 i
 92.6  40.6656  29.3235 i
 92.65  37.9009  29.327 i
 92.7  28.5245  29.3306 i
 92.75  31.0116  29.3342 i
 92.8  26.266  29.3379 i
 92.85  24.0862  29.3416 i
 92.9  30.2818  29.3454 i
 92.95  22.6377  29.3491 i
 93  29.1571  29.353 i
 93.05  29.6397  29.3568 i
 93.1  29.6438  29.3608 i
 93.15  37.5666  29.3647 i
 93.2  24.9604  29.3687 i
 93.25  32.438  29.3727 i
 93.3  32.0947  29.3768 i
 93.35  38.3586  29.3809 i
 93.4  24.3507  29.3851 i
 93.45  23.2212  29.3892 i
 93.5  33.6946  29.3935 i
 93.55  26.1198  29.3977 i
 93.6  33.3078  29.402 i
 93.65  25.6968  29.4064 i
 93.7  28.791  29.4107 i
 93.75  36.2964  29.4151 i
 93.8  31.6905  29.4196 i
 93.85  18.8261  29.4241 i
 93.9  36.1715  29.4286 i
 93.95  29.2737  29.4331 i
 94  30.1743  29.4377 i
 94.05  29.6167  29.4423 i
 94.1  32.2505  29.447 i
 94.15  37.9424  29.4517 i
 94.2  19.8233  29.4564 i
 94.25  37.9863  29.4612 i
 94.3  27.5749  29.466 i
 94.35  24.8062  29.4708 i
 94.4  41.0662  29.4756 i
 94.45  32.8237  29.4805 i
 94.5  25.9471  29.4854 i
 94.55  30.5615  29.4904 i
 94.6  32.3906  29.4954 i
 94.65  22.5467  29.5004 i
 94.7  28.5918  29.5054 i
 94.75  30.0205  29.5105 i
 94.8  24.7582  29.5156 i
 94.85  39.1438  29.5208 i
 94.9  31.5844  29.5259 i
 94.95  28.8234  29.5311 i
 95  34.6199  29.5364 i
 95.05  30.1254  29.5416 i
 95.1  32.2013  29.5469 i
 95.15  22.5148  29.5522 i
 95.2  33.4433  29.5576 i
 95.25  33.9461  29.5629 i
 95.3  25.2889  29.5683 i
 95.35  28.7423  29.5737 i
 95.4  27.758  29.5792 i
 95.45  28.0965  29.5847 i
 95.5  24.9796  29.5902 i
 95.55  30.0642  29.5957 i
 95.6  24.8576  29.6013 i
 95.65  28.7591  29.6069 i
 95.7  29.3999  29.6125 i
 95.75  28.4265  29.6181 i
 95.8  27.1221  29.6237 i
 95.85  46.1799  29.6294 i
 95.9  33.0311  29.6351 i
 95.95  19.5375  29.6409 i
 96  31.1779  29.6466 i
 96.05  27.8921  29.6524 i
 96.1  25.0076  29.6582 i
 96.15  18.9486  29.664 i
 96.2  28.0421  29.6699 i
 96.25  24.4792  29.6757 i
 96.3  29.4788  29.6816 i
 96.35  30.5726  29.6875 i
 96.4  30.7736  29.6935 i
 96.45  32.1322  29.6994 i
 96.5  23.7409  29.7054 i
 96.55  28.0161  29.7114 i
 96.6  27.5343  29.7174 i
 96.65  29.5006  29.7235 i
 96.7  39.6947  29.7295 i
 96.75  23.5499  29.7356 i
 96.8  29.8846  29.7417 i
 96.85  30.2367  29.7478 i
 96.9  24.5306  29.7539 i
 96.95  34.3011  29.7601 i
 97  28.6266  29.7662 i
 97.05  39.3016  29.7724 i
 97.1  26.8239  29.7786 i
 97.15  36.1671  29.7848 i
 97.2  28.549  29.7911 i
 97.25  31.3921  29.7973 i
 97.3  33.5731  29.8036 i
 97.35  39.3363  29.8099 i
 97.4  18.9294  29.8162 i
 97.45  33.5871  29.8225 i
 97.5  21.8775  29.8288 i
 97.55  35.5651  29.8352 i
 97.6  30.3095  29.8416 i
 97.65  29.1501  29.8479 i
 97.7  28.7734  29.8543 i
 97.75  38.5884  29.8607 i
 97.8  24.473  29.8671 i
 97.85  31.1869  29.8736 i
 97.9  22.2042  29.88 i
 97.95  23.3022  29.8865 i
 98  25.26  29.8929 i
 98.05  27.2938  29.8994 i
 98.1  35.344  29.9059 i
 98.15  32.3989  29.9124 i
 98.2  25.5193  29.9189 i
 98.25  43.9032  29.9255 i
 98.3  40.61  29.932 i
 98.35  41.7432  29.9385 i
 98.4  51.223  29.9451 i
 98.45  47.6078  29.9517 i
 98.5  52.9312  29.9582 i
 98.55  75.1197  29.9648 i
 98.6  82.4284  29.9714 i
 98.65  116.109  29.978 i
 98.7  120.591  29.9846 i
 98.75  114.618  29.9913 i
 98.8  99.9512  29.9979 i
 98.85  91.5957  30.0045 i
 98.9  68.7999  30.0112 i
 98.95  46.9898  30.0178 i
 99  35.3759  30.0245 i
 99.05  36.4176  30.0311 i
 99.1  30.6378  30.0378 i
 99.15  25.7971  30.0445 i
 99.2  27.2162  30.0511 i
 99.25  32.8957  30.0578 i
 99.3  39.398  30.0645 i
 99.35  19.5361  30.0712 i
 99.4  26.794  30.0779 i
 99.45  30.1755  30.0846 i
 99.5  24.1324  30.0913 i
 99.55  27.553  30.098 i
 99.6  30.4918  30.1047 i
 99.65  26.2198  30.1115 i
 99.7  33.5616  30.1182 i
 99.75  25.4826  30.1249 i
 99.8  26.4953  30.1316 i
 99.85  27.6596  30.1383 i
 99.9  23.589  30.1451 i
 99.95  41.1873  30.1518 i
 100  26.8682  30.1585 i
 100.05  31.6513  30.1653 i
 100.1  30.5037  30.172 i
 100.15  24.6679  30.1787 i
 100.2  23.8544  30.1854 i
 100.25  32.5827  30.1922 i
 100.3  29.6116  30.1989 i
 100.35  34.3893  30.2056 i
 100.4  35.3136  30.2124 i
 100.45  31.9639  30.2191 i
 100.5  25.1188  30.2258 i
 100.55  28.25  30.2325 i
 100.6  27.8182  30.2393 i
 100.65  20.3044  30.246 i
 100.7  26.9396  30.2527 i
 100.75  27.5364  30.2594 i
 100.8  19.9296  30.2661 i
 100.85  24.9918  30.2728 i
 100.9  30.8531  30.2795 i
 100.95  22.2543  30.2862 i
 101  38.8285  30.2929 i
 101.05  41.0843  30.2996 i
 101.1  25.6988  30.3062 i
 101.15  30.0708  30.3129 i
 101.2  44.6696  30.3196 i
 101.25  38.0057  30.3262 i
 101.3  23.9449  30.3329 i
 101.35  32.9336  30.3396 i
 101.4  31.7315  30.3462 i
 101.45  29.8378  30.3528 i
 101.5  29.7363  30.3595 i
 101.55  37.7276  30.3661 i
 101.6  36.0423  30.3727 i
 101.65  32.1958  30.3793 i
 101.7  22.4486  30.3859 i
 101.75  41.4769  30.3925 i
 101.8  34.773  30.399 i
 101.85  31.739  30.4056 i
 101.9  36.5577  30.4122 i
 101.95  35.975  30.4187 i
 102  28.1192  30.4252 i
 102.05  31.0441  30.4318 i
 102.1  25.681  30.4383 i
 102.15  31.977  30.4448 i
 102.2  28.9257  30.4513 i
 102.25  29.9271  30.4578 i
 102.3  24.4636  30.4642 i
 102.35  33.2999  30.4707 i
 102.4  27.4506  30.4771 i
 102.45  34.6254  30.4836 i
 102.5  29.7178  30.49 i
 102.55  33.0125  30.4964 i
 102.6  34.4262  30.5028 i
 102.65  25.8536  30.5091 i
 102.7  34.7684  30.5155 i
 102.75  28.0719  30.5219 i
 102.8  28.7273  30.5282 i
 102.85  32.2233  30.5345 i
 102.9  35.6073  30.5408 i
 102.95  30.5017  30.5471 i
 103  34.1796  30.5534 i
 103.05  31.4653  30.5596 i
 103.1  32.8704  30.5659 i
 103.15  31.8764  30.5721 i
 103.2  39.299  30.5783 i
 103.25  37.5437  30.5845 i
 103.3  21.7492  30.5906 i
 103.35  24.8597  30.5968 i
 103.4  37.1064  30.6029 i
 103.45  32.3682  30.609 i
 103.5  32.8726  30.6151 i
 103.55  28.1435  30.6212 i
 103.6  21.2224  30.6272 i
 103.65  38.4791  30.6333 i
 103.7  36.7142  30.6393 i
 103.75  33.4141  30.6453 i
 103.8  27.3204  30.6513 i
 103.85  28.1887  30.6572 i
 103.9  34.266  30.6632 i
 103.95  31.7291  30.6691 i
 104  19.9343  30.675 i
 104.05  21.4418  30.6808 i
 104.1  32.228  30.6867 i
 104.15  34.8804  30.6925 i
 104.2  39.7613  30.6983 i
 104.25  32.0369  30.7041 i
 104.3  33.8138  30.7098 i
 104.35  28.8211  30.7156 i
 104.4  45.6797  30.7213 i
 104.45  34.1515  30.7269 i
 104.5  31.9367  30.7326 i
 104.55  29.1538  30.7382 i
 104.6  32.907  30.7438 i
 104.65  36.8628  30.7494 i
 104.7  29.7841  30.755 i
 104.75  30.9362  30.7605 i
 104.8  29.0123  30.766 i
 104.85  32.9176  30.7715 i
 104.9  23.5692  30.7769 i
 104.95  33.582  30.7824 i
 105  26.2147  30.7878 i
 105.05  31.482  30.7931 i
 105.1  31.5216  30.7985 i
 105.15  41.5727  30.8038 i
 105.2  29.6144  30.8091 i
 105.25  24.6253  30.8143 i
 105.3  42.6185  30.8196 i
 105.35  37.776  30.8247 i
 105.4  32.9867  30.8299 i
 105.45  45.2924  30.8351 i
 105.5  31.336  30.8402 i
 105.55  22.4131  30.8452 i
 105.6  23.6143  30.8503 i
 105.65  28.7182  30.8553 i
 105.7  35.7578  30.8603 i
 105.75  27.2725  30.8652 i
 105.8  31.8717  30.8702 i
 105.85  28.6493  30.875 i
 105.9  32.5448  30.8799 i
 105.95  34.1092  30.8847 i
 106  35.3  30.8895 i
 106.05  25.7036  30.8943 i
 106.1  36.2918  30.899 i
 106.15  36.7558  30.9037 i
 106.2  27.5513  30.9083 i
 106.25  40.2081  30.913 i
 106.3  31.2983  30.9175 i
 106.35  30.6961  30.9221 i
 106.4  26.7062  30.9266 i
 106.45  27.6433  30.9311 i
 106.5  36.1876  30.9355 i
 106.55  21.7296  30.9399 i
 106.6  29.923  30.9443 i
 106.65  36.8636  30.9486 i
 106.7  29.8827  30.9529 i
 106.75  36.5157  30.9572 i
 106.8  34.1202  30.9614 i
 106.85  28.6528  30.9656 i
 106.9  24.7436  30.9698 i
 106.95  25.5934  30.9739 i
 107  34.8068  30.9779 i
 107.05  24.9751  30.982 i
 107.1  28.6784  30.986 i
 107.15  32.3463  30.9899 i
 107.2  31.9484  30.9938 i
 107.25  36.4236  30.9977 i
 107.3  38.0704  31.0015 i
 107.35  25.5209  31.0053 i
 107.4  25.7356  31.0092 i
 107.45  20.5323  31.013 i
 107.5  24.681  31.0167 i
 107.55  27.9989  31.0205 i
 107.6  21.3856  31.0243 i
 107.65  25.7082  31.028 i
 107.7  26.7575  31.0318 i
 107.75  27.9836  31.0355 i
 107.8  34.9757  31.0393 i
 107.85  28.2744  31.043 i
 107.9  41.3561  31.0467 i
 107.95  34.3723  31.0504 i
 108  28.9715  31.0541 i
 108.05  31.286  31.0577 i
 108.1  36.8295  31.0614 i
 108.15  35.0516  31.0651 i
 108.2  32.8161  31.0687 i
 108.25  28.2943  31.0724 i
 108.3  25.3579  31.076 i
 108.35  27.1849  31.0796 i
 108.4  32.034  31.0832 i
 108.45  34.5522  31.0868 i
 108.5  30.1516  31.0904 i
 108.55  33.0283  31.094 i
 108.6  33.975  31.0976 i
 108.65  24.8673  31.1011 i
 108.7  22.9244  31.1047 i
 108.75  32.9674  31.1082 i
 108.8  21.5903  31.1118 i
 108.85  36.9786  31.1153 i
 108.9  24.4366  31.1188 i
 108.95  27.7715  31.1223 i
 109  36.0244  31.1258 i
 109.05  21.1302  31.1293 i
 109.1  30.8125  31.1328 i
 109.15  28.3418  31.1363 i
 109.2  38.7517  31.1397 i
 109.25  29.5885  31.1432 i
 109.3  35.5959  31.1466 i
 109.35  27.9774  31.15 i
 109.4  29.1801  31.1535 i
 109.45  25.3002  31.1569 i
 109.5  27.3586  31.1603 i
 109.55  22.9461  31.1637 i
 109.6  28.0315  31.1671 i
 109.65  32.8222  31.1705 i
 109.7  35.0269  31.1738 i
 109.75  31.8182  31.1772 i
 109.8  23.8185  31.1806 i
 109.85  29.6453  31.1839 i
 109.9  26.0549  31.1872 i
 109.95  35.7782  31.1906 i
 110  25.2951  31.1939 i
 110.05  33.5753  31.1972 i
 110.1  27.1422  31.2005 i
 110.15  22.598  31.2038 i
 110.2  29.5994  31.2071 i
 110.25  42.4359  31.2104 i
 110.3  20.8536  31.2136 i
 110.35  36.4943  31.2169 i
 110.4  28.4364  31.2201 i
 110.45  32.7427  31.2234 i
 110.5  44.1147  31.2266 i
 110.55  25.1748  31.2298 i
 110.6  22.198  31.2331 i
 110.65  31.638  31.2363 i
 110.7  30.0743  31.2395 i
 110.75  25.429  31.2427 i
 110.8  31.1864  31.2459 i
 110.85  19.4225  31.249 i
 110.9  27.7334  31.2522 i
 110.95  34.6803  31.2554 i
 111  34.065  31.2585 i
 111.05  28.9778  31.2617 i
 111.1  26.7003  31.2648 i
 111.15  30.5257  31.2679 i
 111.2  25.4967  31.2711 i
 111.25  27.6984  31.2742 i
 111.3  19.7822  31.2773 i
 111.35  24.1382  31.2804 i
 111.4  26.7999  31.2835 i
 111.45  36.3594  31.2866 i
 111.5  31.65  31.2896 i
 111.55  26.3252  31.2927 i
 111.6  34.069  31.2958 i
 111.65  36.418  31.2988 i
 111.7  34.8011  31.3019 i
 111.75  31.212  31.3049 i
 111.8  27.6002  31.3079 i
 111.85  36.5215  31.3109 i
 111.9  37.0207  31.314 i
 111.95  30.8084  31.317 i
 112  22.3156  31.32 i
 112.05  26.3541  31.323 i
 112.1  36.1514  31.3259 i
 112.15  37.0846  31.3289 i
 112.2  28.8849  31.3319 i
 112.25  31.4685  31.3349 i
 112.3  32.3432  31.3378 i
 112.35  33.8525  31.3408 i
 112.4  26.51  31.3437 i
 112.45  38.4036  31.3466 i
 112.5  24.1613  31.3496 i
 112.55  27.447  31.3525 i
 112.6  41.8169  31.3554 i
 112.65  31.8162  31.3583 i
 112.7  29.4713  31.3612 i
 112.75  32.6621  31.3641 i
 112.8  24.9462  31.367 i
 112.85  35.4033  31.3699 i
 112.9  35.5903  31.3727 i
 112.95  21.8363  31.3756 i
 113  24.607  31.3785 i
 113.05  34.7171  31.3813 i
 113.1  31.5135  31.3842 i
 113.15  27.2777  31.387 i
 113.2  42.6098  31.3898 i
 113.25  27.5709  31.3927 i
 113.3  34.1586  31.3955 i
 113.35  37.6184  31.3983 i
 113.4  31.2217  31.4011 i
 113.45  17.6681  31.4039 i
 113.5  29.6755  31.4067 i
 113.55  31.1017  31.4095 i
 113.6  23.6964  31.4123 i
 113.65  24.7668  31.415 i
 113.7  19.9172  31.4178 i
 113.75  38.0016  31.4206 i
 113.8  28.0214  31.4233 i
 113.85  31.421  31.4261 i
 113.9  29.4342  31.4288 i
 113.95  35.4902  31.4315 i
 114  32.3256  31.4343 i
 114.05  33.7493  31.437 i
 114.1  25.9001  31.4397 i
 114.15  33.7318  31.4424 i
 114.2  32.1246  31.4451 i
 114.25  28.0378  31.4478 i
 114.3  24.1507  31.4505 i
 114.35  33.7282  31.4532 i
 114.4  26.493  31.4559 i
 114.45  34.0032  31.4586 i
 114.5  38.401  31.4612 i
 114.55  22.756  31.4639 i
 114.6  29.4599  31.4666 i
 114.65  29.7738  31.4692 i
 114.7  31.7816  31.4719 i
 114.75  33.5727  31.4745 i
 114.8  31.4459  31.4771 i
 114.85  29.5697  31.4798 i
 114.9  29.6156  31.4824 i
 114.95  37.9558  31.485 i
 115  21.4224  31.4876 i
 115.05  37.0608  31.4902 i
 115.1  43.7791  31.4928 i
 115.15  30.1184  31.4954 i
 115.2  30.2644  31.498 i
 115.25  32.6263  31.5006 i
 115.3  37.8524  31.5032 i
 115.35  35.0005  31.5057 i
 115.4  43.6388  31.5083 i
 115.45  41.6988  31.5109 i
 115.5  46.2723  31.5134 i
 115.55  34.581  31.516 i
 115.6  36.7772  31.5185 i
 115.65  35.4522  31.5211 i
 115.7  53.9861  31.5236 i
 115.75  34.2358  31.5262 i
 115.8  51.0341  31.5287 i
 115.85  60.0803  31.5312 i
 115.9  70.9615  31.5337 i
 115.95  80.7573  31.5362 i
 116  90.8161  31.5387 i
 116.05  90.5471  31.5412 i
 116.1  95.8388  31.5437 i
 116.15  94.3216  31.5462 i
 116.2  90.0134  31.5487 i
 116.25  68.7418  31.5512 i
 116.3  65.2319  31.5537 i
 116.35  55.8151  31.5562 i
 116.4  45.0843  31.5586 i
 116.45  59.2437  31.5611 i
 116.5  63.2531  31.5636 i
 116.55  36.4578  31.566 i
 116.6  35.9319  31.5685 i
 116.65  37.631  31.5709 i
 116.7  25.468  31.5734 i
 116.75  35.9561  31.5758 i
 116.8  26.2973  31.5782 i
 116.85  23.645  31.5807 i
 116.9  38.6185  31.5831 i
 116.95  43.4261  31.5855 i
 117  31.8468  31.5879 i
 117.05  30.0862  31.5903 i
 117.1  28.0222  31.5927 i
 117.15  31.0891  31.5951 i
 117.2  46.375  31.5975 i
 117.25  34.0309  31.5999 i
 117.3  32.436  31.6023 i
 117.35  36.2905  31.6047 i
 117.4  24.323  31.6071 i
 117.45  33.9773  31.6095 i
 117.5  27.4918  31.6118 i
 117.55  30.9195  31.6142 i
 117.6  27.5224  31.6166 i
 117.65  27.2538  31.6189 i
 117.7  24.9949  31.6213 i
 117.75  29.8519  31.6236 i
 117.8  26.5912  31.626 i
 117.85  44.7259  31.6283 i
 117.9  34.4964  31.6307 i
 117.95  29.8507  31.633 i
 118  31.0504  31.6354 i
 118.05  24.3723  31.6377 i
 118.1  23.0662  31.64 i
 118.15  39.671  31.6423 i
 118.2  36.4501  31.6447 i
 118.25  28.2419  31.647 i
 118.3  29.8545  31.6493 i
 118.35  25.7602  31.6516 i
 118.4  24.1927  31.6539 i
 118.45  28.4199  31.6562 i
 118.5  34.2531  31.6585 i
 118.55  25.1661  31.6608 i
 118.6  32.1703  31.6631 i
 118.65  31.4772  31.6654 i
 118.7  26.084  31.6677 i
 118.75  25.3759  31.6699 i
 118.8  31.8237  31.6722 i
 118.85  34.1436  31.6745 i
 118.9  35.6689  31.6768 i
 118.95  39.713  31.679 i
 119  21.0344  31.6813 i
 119.05  18.8197  31.6836 i
 119.1  28.7826  31.6858 i
 119.15  23.0472  31.6881 i
 119.2  28.4659  31.6903 i
 119.25  23.0143  31.6926 i
 119.3  35.2483  31.6948 i
 119.35  25.2108  31.6971 i
 119.4  43.702  31.6993 i
 119.45  27.5129  31.7016 i
 119.5  30.2545  31.7038 i
 119.55  28.7858  31.706 i
 119.6  30.7649  31.7083 i
 119.65  29.3346  31.7105 i
 119.7  41.0804  31.7127 i
 119.75  26.3949  31.715 i
 119.8  33.6299  31.7172 i
 119.85  24.8929  31.7194 i
 119.9  29.6035  31.7216 i
 119.95  32.1728  31.7238 i
 120  34.0747  31.726 i
 120.05  30.1869  31.7282 i
 120.1  36.4426  31.7305 i
 120.15  33.5846  31.7327 i
 120.2  31.6052  31.7349 i
 120.25  28.1925  31.7371 i
 120.3  27.5348  31.7393 i
 120.35  42.4741  31.7414 i
 120.4  24.6732  31.7436 i
 120.45  35.1958  31.7458 i
 120.5  28.2635  31.748 i
 120.55  32.1507  31.7502 i
 120.6  36.9488  31.7524 i
 120.65  27.0901  31.7546 i
 120.7  37.739  31.7567 i
 120.75  27.9172  31.7589 i
 120.8  30.6266  31.7611 i
 120.85  29.2877  31.7633 i
 120.9  36.415  31.7654 i
 120.95  36.3455  31.7676 i
 121  30.0004  31.7698 i
 121.05  31.4678  31.7719 i
 121.1  30.2014  31.7741 i
 121.15  31.9845  31.7763 i
 121.2  26.2794  31.7784 i
 121.25  47.2679  31.7806 i
 121.3  11.0325  31.7827 i
 121.35  29.6951  31.7849 i
 121.4  31.5193  31.787 i
 121.45  26.8247  31.7892 i
 121.5  27.385  31.7913 i
 121.55  27.3834  31.7935 i
 121.6  37.6371  31.7956 i
 121.65  33.9243  31.7978 i
 121.7  28.6048  31.7999 i
 121.75  22.5493  31.8021 i
 121.8  33.8615  31.8042 i
 121.85  22.7799  31.8064 i
 121.9  38.5556  31.8085 i
 121.95  35.7609  31.8106 i
 122  22.3308  31.8128 i
 122.05  30.3363  31.8149 i
 122.1  33.1234  31.817 i
 122.15  32.636  31.8192 i
 122.2  29.6901  31.8213 i
 122.25  22.4165  31.8234 i
 122.3  15.9276  31.8255 i
 122.35  24.845  31.8277 i
 122.4  26.4353  31.8298 i
 122.45  28.0465  31.8319 i
 122.5  23.1165  31.834 i
 122.55  27.4306  31.8362 i
 122.6  22.649  31.8383 i
 122.65  23.2243  31.8404 i
 122.7  35.7702  31.8425 i
 122.75  24.9308  31.8447 i
 122.8  31.9118  31.8468 i
 122.85  33.5418  31.8489 i
 122.9  31.8076  31.851 i
 122.95  33.6313  31.8531 i
 123  39.616  31.8552 i
 123.05  22.1803  31.8574 i
 123.1  38.6598  31.8595 i
 123.15  42.2697  31.8616 i
 123.2  35.431  31.8637 i
 123.25  26.6724  31.8658 i
 123.3  19.8017  31.8679 i
 123.35  35.5158  31.87 i
 123.4  47.5502  31.8722 i
 123.45  29.4781  31.8743 i
 123.5  35.0903  31.8764 i
 123.55  30.7284  31.8785 i
 123.6  33.6209  31.8806 i
 123.65  32.7679  31.8827 i
 123.7  29.694  31.8848 i
 123.75  23.9056  31.8869 i
 123.8  31.9235  31.889 i
 123.85  36.8453  31.8911 i
 123.9  19.2826  31.8933 i
 123.95  28.2186  31.8954 i
 124  26.5181  31.8975 i
 124.05  46.724  31.8996 i
 124.1  27.217  31.9017 i
 124.15  29.3276  31.9038 i
 124.2  45.4593  31.9059 i
 124.25  25.2924  31.908 i
 124.3  27.777  31.9101 i
 124.35  35.6655  31.9122 i
 124.4  29.5852  31.9143 i
 124.45  31.7055  31.9165 i
 124.5  36.8376  31.9186 i
 124.55  28.4181  31.9207 i
 124.6  27.3389  31.9228 i
 124.65  31.9607  31.9249 i
 124.7  37.143  31.927 i
 124.75  26.5732  31.9291 i
 124.8  27.2075  31.9312 i
 124.85  33.1239  31.9333 i
 124.9  31.4094  31.9355 i
 124.95  39.0198  31.9376 i
 125  26.5484  31.9397 i
 125.05  29.2961  31.9418 i
 125.1  21.0645  31.9439 i
 125.15  22.2133  31.946 i
 125.2  25.1699  31.9481 i
 125.25  35.8594  31.9503 i
 125.3  30.0519  31.9524 i
 125.35  42.6145  31.9545 i
 125.4  28.2249  31.9566 i
 125.45  23.6444  31.9587 i
 125.5  29.8335  31.9609 i
 125.55  32.5746  31.963 i
 125.6  30.4283  31.9651 i
 125.65  26.1206  31.9672 i
 125.7  26.3654  31.9693 i
 125.75  31.0231  31.9715 i
 125.8  28.6534  31.9736 i
 125.85  22.3654  31.9757 i
 125.9  30.4063  31.9779 i
 125.95  32.3856  31.98 i
 126  37.9276  31.9821 i
 126.05  26.7058  31.9843 i
 126.1  27.4598  31.9864 i
 126.15  28.9503  31.9885 i
 126.2  26.5253  31.9907 i
 126.25  21.3579  31.9928 i
 126.3  20.7558  31.9949 i
 126.35  29.842  31.9971 i
 126.4  24.5293  31.9992 i
 126.45  24.1346  32.0014 i
 126.5  36.526  32.0035 i
 126.55  33.0531  32.0056 i
 126.6  34.9094  32.0078 i
 126.65  31.2737  32.0099 i
 126.7  36.7663  32.0121 i
 126.75  34.2906  32.0142 i
 126.8  29.4545  32.0164 i
 126.85  32.7297  32.0186 i
 126.9  26.599  32.0207 i
 126.95  28.7132  32.0229 i
 127  34.7531  32.025 i
 127.05  29.6994  32.0272 i
 127.1  26.9784  32.0294 i
 127.15  26.7863  32.0315 i
 127.2  31.1248  32.0337 i
 127.25  27.1066  32.0359 i
 127.3  33.6483  32.038 i
 127.35  40.5065  32.0402 i
 127.4  26.7158  32.0424 i
 127.45  33.5333  32.0446 i
 127.5  33.0377  32.0467 i
 127.55  32.3929  32.0489 i
 127.6  35.6955  32.0511 i
 127.65  26.6244  32.0533 i
 127.7  31.7829  32.0555 i
 127.75  25.5783  32.0577 i
 127.8  33.7715  32.0599 i
 127.85  37.0175  32.0621 i
 127.9  32.1354  32.0643 i
 127.95  39.8465  32.0665 i
 128  26.5685  32.0687 i
 128.05  32.578  32.0709 i
 128.1  38.5018  32.0731 i
 128.15  27.2125  32.0753 i
 128.2  35.805  32.0775 i
 128.25  31.4649  32.0797 i
 128.3  23.6873  32.0819 i
 128.35  37.2274  32.0842 i
 128.4  33.3428  32.0864 i
 128.45  21.4706  32.0886 i
 128.5  26.4107  32.0908 i
 128.55  25.4542  32.0931 i
 128.6  26.52  32.0953 i
 128.65  33.9539  32.0975 i
 128.7  22.8503  32.0998 i
 128.75  23.9797  32.102 i
 128.8  28.8081  32.1043 i
 128.85  24.9307  32.1065 i
 128.9  34.2024  32.1087 i
 128.95  35.1939  32.111 i
 129  40.8483  32.1133 i
 129.05  24.5405  32.1155 i
 129.1  31.8308  32.1178 i
 129.15  28.2145  32.12 i
 129.2  23.3251  32.1223 i
 129.25  36.6299  32.1246 i
 129.3  35.8668  32.1269 i
 129.35  32.438  32.1291 i
 129.4  22.4164  32.1314 i
 129.45  29.3704  32.1337 i
 129.5  24.9735  32.136 i
 129.55  31.1728  32.1383 i
 129.6  47.4528  32.1406 i
 129.65  35.7543  32.1429 i
 129.7  34.8647  32.1452 i
 129.75  30.072  32.1475 i
 129.8  36.4644  32.1498 i
 129.85  30.6729  32.1521 i
 129.9  29.777  32.1544 i
 129.95  34.8968  32.1567 i
 130  27.0918  32.1591 i

