
#Surface 0 of 1 surfaces

#IsoCurve 0, 1801 points
#x y z type
 40  40.028  0 i
 40.05  31.7025  0 i
 40.1  42.017  0 i
 40.15  28.6423  0 i
 40.2  44.5413  0 i
 40.25  31.5493  0 i
 40.3  33.7608  0 i
 40.35  49.7941  0 i
 40.4  36.3509  0 i
 40.45  41.3645  0 i
 40.5  37.501  0 i
 40.55  38.4178  0 i
 40.6  45.9811  0 i
 40.65  48.4662  0 i
 40.7  36.5584  0 i
 40.75  37.2617  0 i
 40.8  46.9565  0 i
 40.85  33.1199  0 i
 40.9  38.6161  0 i
 40.95  34.9684  0 i
 41  35.2569  0 i
 41.05  44.9534  0 i
 41.1  32.8475  0 i
 41.15  30.4859  0 i
 41.2  29.1513  0 i
 41.25  35.8935  0 i
 41.3  32.551  0 i
 41.35  42.2163  0 i
 41.4  34.4686  0 i
 41.45  48.4339  0 i
 41.5  40.0636  0 i
 41.55  28.4524  0 i
 41.6  49.5406  0 i
 41.65  37.2515  0 i
 41.7  46.9118  0 i
 41.75  33.8178  0 i
 41.8  39.5508  0 i
 41.85  36.5362  0 i
 41.9  32.0854  0 i
 41.95  37.5744  0 i
 42  48.3139  0 i
 42.05  39.7781  0 i
 42.1  27.3136  0 i
 42.15  31.2367  0 i
 42.2  35.7259  0 i
 42.25  30.0342  0 i
 42.3  31.9391  0 i
 42.35  37.051  0 i
 42.4  34.905  0 i
 42.45  33.2947  0 i
 42.5  39.8539  0 i
 42.55  36.5263  0 i
 42.6  30.6982  0 i
 42.65  38.7576  0 i
 42.7  33.5493  0 i
 42.75  34.3181  0 i
 42.8  37.0079  0 i
 42.85  41.8393  0 i
 42.9  30.8497  0 i
 42.95  44.9708  0 i
 43  40.6525  0 i
 43.05  41.9568  0 i
 43.1  34.493  0 i
 43.15  36.9817  0 i
 43.2  39.6637  0 i
 43.25  33.3346  0 i
 43.3  28.6188  0 i
 43.35  32.4314  0 i
 43.4  33.5538  0 i
 43.45  46.0688  0 i
 43.5  42.0486  0 i
 43.55  33.1787  0 i
 43.6  42.0697  0 i
 43.65  40.0445  0 i
 43.7  35.5892  0 i
 43.75  32.333  0 i
 43.8  32.1862  0 i
 43.85  34.6545  0 i
 43.9  32.8571  0 i
 43.95  34.9908  0 i
 44  38.6758  0 i
 44.05  40.9667  0 i
 44.1  62.4257  0 i
 44.15  48.41  0 i
 44.2  54.2826  0 i
 44.25  60.32  0 i
 44.3  78.0715  0 i
 44.35  95.7907  0 i
 44.4  164.947  0 i
 44.45  315.532  0 i
 44.5  806.586  0 i
 44.55  1493.87  0 i
 44.6  1889.38  0 i
 44.65  1465.26  0 i
 44.7  541.665  0 i
 44.75  175.963  0 i
 44.8  88.8371  0 i
 44.85  56.0864  0 i
 44.9  44.9121  0 i
 44.95  44.4067  0 i
 45  44.5514  0 i
 45.05  60.1839  0 i
 45.1  37.4105  0 i
 45.15  38.3455  0 i
 45.2  38.3896  0 i
 45.25  39.0387  0 i
 45.3  30.9206  0 i
 45.35  43.1288  0 i
 45.4  34.5205  0 i
 45.45  23.4276  0 i
 45.5  32.4292  0 i
 45.55  38.9373  0 i
 45.6  38.8  0 i
 45.65  35.874  0 i
 45.7  29.3046  0 i
 45.75  45.9023  0 i
 45.8  31.5675  0 i
 45.85  39.1253  0 i
 45.9  26.1875  0 i
 45.95  30.234  0 i
 46  44.739  0 i
 46.05  38.5995  0 i
 46.1  33.657  0 i
 46.15  34.3149  0 i
 46.2  36.0815  0 i
 46.25  33.8881  0 i
 46.3  36.6284  0 i
 46.35  41.3348  0 i
 46.4  30.1319  0 i
 46.45  32.327  0 i
 46.5  37.3311  0 i
 46.55  29.302  0 i
 46.6  30.052  0 i
 46.65  38.586  0 i
 46.7  34.9991  0 i
 46.75  32.0556  0 i
 46.8  30.6932  0 i
 46.85  31.2094  0 i
 46.9  47.8651  0 i
 46.95  40.2773  0 i
 47  35.6962  0 i
 47.05  38.7928  0 i
 47.1  29.1822  0 i
 47.15  36.7914  0 i
 47.2  35.0038  0 i
 47.25  34.4573  0 i
 47.3  40.4736  0 i
 47.35  43.5882  0 i
 47.4  34.7654  0 i
 47.45  32.8133  0 i
 47.5  33.5422  0 i
 47.55  36.0655  0 i
 47.6  37.3766  0 i
 47.65  28.2759  0 i
 47.7  46.5503  0 i
 47.75  27.875  0 i
 47.8  39.2317  0 i
 47.85  35.821  0 i
 47.9  30.4177  0 i
 47.95  32.4539  0 i
 48  23.2755  0 i
 48.05  31.6944  0 i
 48.1  31.5098  0 i
 48.15  36.2049  0 i
 48.2  39.6104  0 i
 48.25  36.1297  0 i
 48.3  29.7038  0 i
 48.35  33.424  0 i
 48.4  41.8448  0 i
 48.45  38.6096  0 i
 48.5  29.8242  0 i
 48.55  35.0783  0 i
 48.6  27.2065  0 i
 48.65  35.4631  0 i
 48.7  37.614  0 i
 48.75  22.0801  0 i
 48.8  49.2304  0 i
 48.85  32.1606  0 i
 48.9  35.0356  0 i
 48.95  31.207  0 i
 49  33.0992  0 i
 49.05  39.3871  0 i
 49.1  40.2479  0 i
 49.15  27.4756  0 i
 49.2  27.8085  0 i
 49.25  25.5825  0 i
 49.3  28.1383  0 i
 49.35  21.1547  0 i
 49.4  31.4959  0 i
 49.45  23.1757  0 i
 49.5  33.6959  0 i
 49.55  38.2154  0 i
 49.6  26.1132  0 i
 49.65  32.9034  0 i
 49.7  35.096  0 i
 49.75  20.9159  0 i
 49.8  23.2863  0 i
 49.85  32.0098  0 i
 49.9  38.1588  0 i
 49.95  39.8757  0 i
 50  39.2898  0 i
 50.05  45.3826  0 i
 50.1  35.6426  0 i
 50.15  31.4311  0 i
 50.2  29.5905  0 i
 50.25  35.149  0 i
 50.3  37.6962  0 i
 50.35  43.1226  0 i
 50.4  33.5444  0 i
 50.45  29.8112  0 i
 50.5  33.0954  0 i
 50.55  26.9074  0 i
 50.6  31.3059  0 i
 50.65  36.6794  0 i
 50.7  39.9119  0 i
 50.75  27.3971  0 i
 50.8  34.8105  0 i
 50.85  27.7875  0 i
 50.9  35.6004  0 i
 50.95  40.5997  0 i
 51  29.6708  0 i
 51.05  25.8622  0 i
 51.1  31.0158  0 i
 51.15  39.1132  0 i
 51.2  29.2377  0 i
 51.25  33.5821  0 i
 51.3  30.0993  0 i
 51.35  38.3836  0 i
 51.4  38.0319  0 i
 51.45  33.52  0 i
 51.5  33.6284  0 i
 51.55  30.767  0 i
 51.6  34.0299  0 i
 51.65  36.4751  0 i
 51.7  31.618  0 i
 51.75  30.9411  0 i
 51.8  43.6904  0 i
 51.85  27.7861  0 i
 51.9  32.7477  0 i
 51.95  33.3121  0 i
 52  24.2769  0 i
 52.05  18.0648  0 i
 52.1  28.8858  0 i
 52.15  32.7835  0 i
 52.2  29.5184  0 i
 52.25  29.6891  0 i
 52.3  39.9312  0 i
 52.35  29.01  0 i
 52.4  34.5479  0 i
 52.45  34.3432  0 i
 52.5  32.9908  0 i
 52.55  23.4556  0 i
 52.6  32.4932  0 i
 52.65  32.484  0 i
 52.7  36.5496  0 i
 52.75  36.3853  0 i
 52.8  31.227  0 i
 52.85  34.3881  0 i
 52.9  29.8098  0 i
 52.95  35.7131  0 i
 53  37.0793  0 i
 53.05  29.9322  0 i
 53.1  33.3397  0 i
 53.15  33.3809  0 i
 53.2  31.5483  0 i
 53.25  30.2908  0 i
 53.3  27.4547  0 i
 53.35  22.7506  0 i
 53.4  45.3282  0 i
 53.45  23.9299  0 i
 53.5  29.0303  0 i
 53.55  35.4395  0 i
 53.6  32.721  0 i
 53.65  27.1128  0 i
 53.7  34.9181  0 i
 53.75  22.0853  0 i
 53.8  38.0826  0 i
 53.85  24.5038  0 i
 53.9  26.3391  0 i
 53.95  29.9101  0 i
 54  33.3448  0 i
 54.05  26.7462  0 i
 54.1  24.1761  0 i
 54.15  25.8318  0 i
 54.2  41.9148  0 i
 54.25  31.2618  0 i
 54.3  31.6381  0 i
 54.35  31.2373  0 i
 54.4  29.9042  0 i
 54.45  29.6287  0 i
 54.5  33.3865  0 i
 54.55  30.1717  0 i
 54.6  23.1948  0 i
 54.65  35.866  0 i
 54.7  31.387  0 i
 54.75  33.3101  0 i
 54.8  30.8597  0 i
 54.85  33.3012  0 i
 54.9  27.2739  0 i
 54.95  28.4383  0 i
 55  35.8209  0 i
 55.05  22.716  0 i
 55.1  24.2605  0 i
 55.15  37.0516  0 i
 55.2  30.9671  0 i
 55.25  35.7078  0 i
 55.3  27.1584  0 i
 55.35  22.1984  0 i
 55.4  39.5758  0 i
 55.45  40.4059  0 i
 55.5  34.9189  0 i
 55.55  35.7588  0 i
 55.6  32.3797  0 i
 55.65  19.1861  0 i
 55.7  36.1849  0 i
 55.75  27.1558  0 i
 55.8  28.7375  0 i
 55.85  31.233  0 i
 55.9  33.323  0 i
 55.95  33.3488  0 i
 56  29.679  0 i
 56.05  26.2977  0 i
 56.1  25.6613  0 i
 56.15  33.106  0 i
 56.2  30.3194  0 i
 56.25  34.9974  0 i
 56.3  23.6659  0 i
 56.35  31.6684  0 i
 56.4  33.5981  0 i
 56.45  33.6663  0 i
 56.5  33.2025  0 i
 56.55  37.6311  0 i
 56.6  37.1226  0 i
 56.65  28.8273  0 i
 56.7  30.853  0 i
 56.75  33.0827  0 i
 56.8  34.596  0 i
 56.85  33.8042  0 i
 56.9  36.4221  0 i
 56.95  28.2171  0 i
 57  28.7728  0 i
 57.05  33.3806  0 i
 57.1  27.7875  0 i
 57.15  31.0603  0 i
 57.2  35.0517  0 i
 57.25  36.5531  0 i
 57.3  30.3705  0 i
 57.35  25.6379  0 i
 57.4  36.7611  0 i
 57.45  34.9592  0 i
 57.5  22.1746  0 i
 57.55  29.4309  0 i
 57.6  39.3063  0 i
 57.65  20.2505  0 i
 57.7  25.6626  0 i
 57.75  27.5959  0 i
 57.8  39.2205  0 i
 57.85  30.1008  0 i
 57.9  29.9505  0 i
 57.95  23.3912  0 i
 58  39.2145  0 i
 58.05  34.4678  0 i
 58.1  33.7833  0 i
 58.15  28.7712  0 i
 58.2  47.7739  0 i
 58.25  30.1093  0 i
 58.3  26.6269  0 i
 58.35  31.7377  0 i
 58.4  30.1779  0 i
 58.45  35.7043  0 i
 58.5  19.5608  0 i
 58.55  26.7126  0 i
 58.6  29.7169  0 i
 58.65  34.4103  0 i
 58.7  36.6653  0 i
 58.75  34.4694  0 i
 58.8  30.7159  0 i
 58.85  35.8082  0 i
 58.9  29.1266  0 i
 58.95  35.1881  0 i
 59  30.208  0 i
 59.05  33.5857  0 i
 59.1  30.1299  0 i
 59.15  42.5893  0 i
 59.2  35.8901  0 i
 59.25  35.8042  0 i
 59.3  35.3151  0 i
 59.35  28.6673  0 i
 59.4  39.5205  0 i
 59.45  36.4208  0 i
 59.5  35.0314  0 i
 59.55  31.8725  0 i
 59.6  24.0828  0 i
 59.65  38.0325  0 i
 59.7  33.8985  0 i
 59.75  30.6098  0 i
 59.8  29.7569  0 i
 59.85  30.7553  0 i
 59.9  27.4304  0 i
 59.95  40.5241  0 i
 60  23.8951  0 i
 60.05  30.9021  0 i
 60.1  41.2169  0 i
 60.15  35.9692  0 i
 60.2  30.9144  0 i
 60.25  34.9576  0 i
 60.3  28.7781  0 i
 60.35  26.4866  0 i
 60.4  39.2717  0 i
 60.45  37.0822  0 i
 60.5  28.7166  0 i
 60.55  35.805  0 i
 60.6  36.57  0 i
 60.65  36.0545  0 i
 60.7  26.6917  0 i
 60.75  23.7993  0 i
 60.8  29.6258  0 i
 60.85  30.5307  0 i
 60.9  25.0216  0 i
 60.95  38.5745  0 i
 61  37.1538  0 i
 61.05  36.0598  0 i
 61.1  25.0366  0 i
 61.15  27.5872  0 i
 61.2  26.6576  0 i
 61.25  30.4402  0 i
 61.3  25.4527  0 i
 61.35  30.7341  0 i
 61.4  29.3497  0 i
 61.45  25.6305  0 i
 61.5  28.9059  0 i
 61.55  32.1847  0 i
 61.6  33.2473  0 i
 61.65  32.4359  0 i
 61.7  29.7921  0 i
 61.75  26.3431  0 i
 61.8  26.3499  0 i
 61.85  33.4747  0 i
 61.9  25.6993  0 i
 61.95  36.1639  0 i
 62  29.3659  0 i
 62.05  20.9291  0 i
 62.1  26.178  0 i
 62.15  28.5429  0 i
 62.2  30.576  0 i
 62.25  36.6589  0 i
 62.3  38.4558  0 i
 62.35  30.0782  0 i
 62.4  30.2217  0 i
 62.45  30.0601  0 i
 62.5  41.7759  0 i
 62.55  24.0643  0 i
 62.6  27.1189  0 i
 62.65  22.7816  0 i
 62.7  34.7153  0 i
 62.75  19.1486  0 i
 62.8  38.8531  0 i
 62.85  19.0581  0 i
 62.9  29.3606  0 i
 62.95  35.4387  0 i
 63  28.4831  0 i
 63.05  36.7827  0 i
 63.1  27.561  0 i
 63.15  29.6158  0 i
 63.2  21.1888  0 i
 63.25  23.2042  0 i
 63.3  39.8855  0 i
 63.35  42.7511  0 i
 63.4  39.0148  0 i
 63.45  34.095  0 i
 63.5  36.1211  0 i
 63.55  24.3396  0 i
 63.6  30.9573  0 i
 63.65  24.1799  0 i
 63.7  28.9832  0 i
 63.75  27.2087  0 i
 63.8  25.5045  0 i
 63.85  41.3195  0 i
 63.9  25.1598  0 i
 63.95  32.4305  0 i
 64  31.4334  0 i
 64.05  22.3183  0 i
 64.1  33.4968  0 i
 64.15  42.548  0 i
 64.2  21.2642  0 i
 64.25  32.5917  0 i
 64.3  34.2521  0 i
 64.35  32.7429  0 i
 64.4  35.7337  0 i
 64.45  38.9331  0 i
 64.5  47.5835  0 i
 64.55  49.4058  0 i
 64.6  38.0802  0 i
 64.65  47.2119  0 i
 64.7  45.8994  0 i
 64.75  64.6193  0 i
 64.8  94.0214  0 i
 64.85  116.41  0 i
 64.9  134.29  0 i
 64.95  139.51  0 i
 65  102.593  0 i
 65.05  76.7996  0 i
 65.1  60.6308  0 i
 65.15  42.2647  0 i
 65.2  47.3745  0 i
 65.25  30.531  0 i
 65.3  28.5555  0 i
 65.35  23.051  0 i
 65.4  28.9175  0 i
 65.45  33.4621  0 i
 65.5  24.7213  0 i
 65.55  21.7215  0 i
 65.6  32.2621  0 i
 65.65  21.2768  0 i
 65.7  23.455  0 i
 65.75  21.486  0 i
 65.8  33.0683  0 i
 65.85  29.4037  0 i
 65.9  34.8467  0 i
 65.95  43.4335  0 i
 66  27.0493  0 i
 66.05  20.8369  0 i
 66.1  25.3436  0 i
 66.15  37.588  0 i
 66.2  26.0757  0 i
 66.25  20.1515  0 i
 66.3  25.079  0 i
 66.35  22.6668  0 i
 66.4  34.5129  0 i
 66.45  28.0689  0 i
 66.5  25.8839  0 i
 66.55  33.0594  0 i
 66.6  26.1929  0 i
 66.65  32.2823  0 i
 66.7  28.5868  0 i
 66.75  32.6821  0 i
 66.8  34.8286  0 i
 66.85  26.2344  0 i
 66.9  16.106  0 i
 66.95  25.6438  0 i
 67  25.0314  0 i
 67.05  33.2278  0 i
 67.1  33.2811  0 i
 67.15  23.3802  0 i
 67.2  27.4423  0 i
 67.25  37.1382  0 i
 67.3  24.9404  0 i
 67.35  31.1088  0 i
 67.4  31.1342  0 i
 67.45  33.3137  0 i
 67.5  26.246  0 i
 67.55  35.6902  0 i
 67.6  25.1968  0 i
 67.65  21.6663  0 i
 67.7  23.5826  0 i
 67.75  22.9931  0 i
 67.8  26.0999  0 i
 67.85  24.4609  0 i
 67.9  35.1385  0 i
 67.95  39.506  0 i
 68  26.8673  0 i
 68.05  21.6763  0 i
 68.1  31.7619  0 i
 68.15  30.1666  0 i
 68.2  31.6629  0 i
 68.25  24.1092  0 i
 68.3  34.3215  0 i
 68.35  21.0617  0 i
 68.4  24.0252  0 i
 68.45  32.4656  0 i
 68.5  38.4823  0 i
 68.55  26.1986  0 i
 68.6  23.1756  0 i
 68.65  29.4778  0 i
 68.7  33.2755  0 i
 68.75  32.3008  0 i
 68.8  29.8303  0 i
 68.85  32.8324  0 i
 68.9  32.3914  0 i
 68.95  26.2354  0 i
 69  26.2593  0 i
 69.05  28.1775  0 i
 69.1  27.4065  0 i
 69.15  30.4624  0 i
 69.2  32.2245  0 i
 69.25  26.8055  0 i
 69.3  24.8498  0 i
 69.35  31.1232  0 i
 69.4  26.8486  0 i
 69.45  27.1091  0 i
 69.5  28.1396  0 i
 69.55  22.4651  0 i
 69.6  30.893  0 i
 69.65  38.4503  0 i
 69.7  23.6956  0 i
 69.75  31.6997  0 i
 69.8  23.3498  0 i
 69.85  37.0802  0 i
 69.9  29.7002  0 i
 69.95  29.9785  0 i
 70  31.0354  0 i
 70.05  25.9455  0 i
 70.1  32.8237  0 i
 70.15  30.0536  0 i
 70.2  25.5957  0 i
 70.25  33.0377  0 i
 70.3  32.3317  0 i
 70.35  33.3978  0 i
 70.4  28.8166  0 i
 70.45  24.4281  0 i
 70.5  24.1241  0 i
 70.55  29.8786  0 i
 70.6  33.4124  0 i
 70.65  23.8481  0 i
 70.7  36.9852  0 i
 70.75  18.6527  0 i
 70.8  38.758  0 i
 70.85  30.6364  0 i
 70.9  25.1638  0 i
 70.95  32.6983  0 i
 71  24.1421  0 i
 71.05  34.6745  0 i
 71.1  27.701  0 i
 71.15  31.104  0 i
 71.2  30.9979  0 i
 71.25  31.117  0 i
 71.3  33.5844  0 i
 71.35  31.3321  0 i
 71.4  26.9219  0 i
 71.45  28.9515  0 i
 71.5  28.0881  0 i
 71.55  30.6996  0 i
 71.6  28.123  0 i
 71.65  26.7574  0 i
 71.7  30.7077  0 i
 71.75  24.8414  0 i
 71.8  32.073  0 i
 71.85  30.4495  0 i
 71.9  36.3355  0 i
 71.95  25.9678  0 i
 72  31.3187  0 i
 72.05  22.483  0 i
 72.1  28.8827  0 i
 72.15  34.2959  0 i
 72.2  34.1033  0 i
 72.25  39.6093  0 i
 72.3  28.9417  0 i
 72.35  28.0659  0 i
 72.4  21.7543  0 i
 72.45  33.4878  0 i
 72.5  27.948  0 i
 72.55  30.5519  0 i
 72.6  29.534  0 i
 72.65  31.793  0 i
 72.7  28.1935  0 i
 72.75  23.864  0 i
 72.8  26.7481  0 i
 72.85  26.4529  0 i
 72.9  32.0732  0 i
 72.95  23.4768  0 i
 73  32.5776  0 i
 73.05  36.348  0 i
 73.1  22.8921  0 i
 73.15  29.4752  0 i
 73.2  31.3682  0 i
 73.25  31.2625  0 i
 73.3  39.3754  0 i
 73.35  36.3093  0 i
 73.4  38.4791  0 i
 73.45  22.2019  0 i
 73.5  32.058  0 i
 73.55  26.8543  0 i
 73.6  33.5782  0 i
 73.65  22.3184  0 i
 73.7  23.6494  0 i
 73.75  32.6506  0 i
 73.8  34.3497  0 i
 73.85  36.5082  0 i
 73.9  33.9406  0 i
 73.95  34.1672  0 i
 74  27.8147  0 i
 74.05  31.7317  0 i
 74.1  26.2966  0 i
 74.15  32.6793  0 i
 74.2  29.4859  0 i
 74.25  30.6986  0 i
 74.3  41.5279  0 i
 74.35  35.4294  0 i
 74.4  36.5592  0 i
 74.45  32.3287  0 i
 74.5  23.9124  0 i
 74.55  27.4005  0 i
 74.6  37.0826  0 i
 74.65  28.5598  0 i
 74.7  24.2119  0 i
 74.75  33.5161  0 i
 74.8  26.5579  0 i
 74.85  22.3127  0 i
 74.9  22.3587  0 i
 74.95  21.3089  0 i
 75  22.2764  0 i
 75.05  32.3362  0 i
 75.1  25.472  0 i
 75.15  24.1446  0 i
 75.2  35.5209  0 i
 75.25  20.8561  0 i
 75.3  27.6926  0 i
 75.35  29.6698  0 i
 75.4  17.3039  0 i
 75.45  33.6164  0 i
 75.5  36.3657  0 i
 75.55  36.634  0 i
 75.6  32.8531  0 i
 75.65  20.7225  0 i
 75.7  43.2298  0 i
 75.75  24.0561  0 i
 75.8  25.093  0 i
 75.85  38.701  0 i
 75.9  30.8682  0 i
 75.95  25.7221  0 i
 76  21.0495  0 i
 76.05  24.9516  0 i
 76.1  39.0272  0 i
 76.15  24.2837  0 i
 76.2  32.294  0 i
 76.25  35.0852  0 i
 76.3  31.3799  0 i
 76.35  32.3952  0 i
 76.4  34.3655  0 i
 76.45  43.071  0 i
 76.5  39.2133  0 i
 76.55  28.3617  0 i
 76.6  44.163  0 i
 76.65  26.8315  0 i
 76.7  23.6154  0 i
 76.75  28.3837  0 i
 76.8  22.2178  0 i
 76.85  43.6048  0 i
 76.9  27.5721  0 i
 76.95  25.2386  0 i
 77  34.8949  0 i
 77.05  50.5198  0 i
 77.1  40.5188  0 i
 77.15  25.4205  0 i
 77.2  27.1477  0 i
 77.25  45.2626  0 i
 77.3  29.6578  0 i
 77.35  34.5035  0 i
 77.4  21.4831  0 i
 77.45  26.2423  0 i
 77.5  38.0928  0 i
 77.55  35.1117  0 i
 77.6  32.6386  0 i
 77.65  25.5919  0 i
 77.7  29.6898  0 i
 77.75  32.369  0 i
 77.8  30.9133  0 i
 77.85  39.1354  0 i
 77.9  26.8352  0 i
 77.95  27.6772  0 i
 78  27.8894  0 i
 78.05  31.3927  0 i
 78.1  31.5991  0 i
 78.15  34.7858  0 i
 78.2  26.7274  0 i
 78.25  29.0621  0 i
 78.3  31.6509  0 i
 78.35  39.0132  0 i
 78.4  32.9669  0 i
 78.45  35.6573  0 i
 78.5  31.3761  0 i
 78.55  31.2042  0 i
 78.6  29.0159  0 i
 78.65  24.3324  0 i
 78.7  28.9229  0 i
 78.75  35.2668  0 i
 78.8  29.3805  0 i
 78.85  33.235  0 i
 78.9  26.1038  0 i
 78.95  29.6182  0 i
 79  23.0139  0 i
 79.05  31.0524  0 i
 79.1  24.7776  0 i
 79.15  34.1631  0 i
 79.2  33.4843  0 i
 79.25  29.4108  0 i
 79.3  34.0265  0 i
 79.35  37.6943  0 i
 79.4  23.1486  0 i
 79.45  30.0079  0 i
 79.5  31.6638  0 i
 79.55  28.6701  0 i
 79.6  23.8137  0 i
 79.65  31.5148  0 i
 79.7  33.0947  0 i
 79.75  29.9447  0 i
 79.8  37.0778  0 i
 79.85  29.1584  0 i
 79.9  35.2212  0 i
 79.95  24.5511  0 i
 80  30.0983  0 i
 80.05  35.1814  0 i
 80.1  36.0331  0 i
 80.15  28.02  0 i
 80.2  22.4263  0 i
 80.25  27.2964  0 i
 80.3  31.599  0 i
 80.35  24.8179  0 i
 80.4  32.2712  0 i
 80.45  35.1809  0 i
 80.5  38.5699  0 i
 80.55  35.0238  0 i
 80.6  29.5315  0 i
 80.65  31.5291  0 i
 80.7  31.6866  0 i
 80.75  19.6232  0 i
 80.8  26.0757  0 i
 80.85  32.4021  0 i
 80.9  34.9783  0 i
 80.95  28.1614  0 i
 81  29.6588  0 i
 81.05  25.4796  0 i
 81.1  20.2313  0 i
 81.15  31.6667  0 i
 81.2  31.3057  0 i
 81.25  34.6698  0 i
 81.3  34.4826  0 i
 81.35  26.7397  0 i
 81.4  27.7079  0 i
 81.45  45.1971  0 i
 81.5  22.3282  0 i
 81.55  43.9097  0 i
 81.6  37.0805  0 i
 81.65  39.6452  0 i
 81.7  30.8849  0 i
 81.75  34.561  0 i
 81.8  55.9878  0 i
 81.85  50.4581  0 i
 81.9  60.4128  0 i
 81.95  74.4457  0 i
 82  111.098  0 i
 82.05  171.267  0 i
 82.1  232.791  0 i
 82.15  259.862  0 i
 82.2  281.914  0 i
 82.25  186.488  0 i
 82.3  109.792  0 i
 82.35  60.6529  0 i
 82.4  76.9676  0 i
 82.45  35.5413  0 i
 82.5  43.0605  0 i
 82.55  53.75  0 i
 82.6  32.7773  0 i
 82.65  30.7546  0 i
 82.7  39.0565  0 i
 82.75  26.0381  0 i
 82.8  28.8578  0 i
 82.85  29.5573  0 i
 82.9  33.9667  0 i
 82.95  24.6662  0 i
 83  21.1224  0 i
 83.05  23.7487  0 i
 83.1  35.5701  0 i
 83.15  29.6703  0 i
 83.2  26.5837  0 i
 83.25  40.716  0 i
 83.3  26.9894  0 i
 83.35  32.2377  0 i
 83.4  26.5298  0 i
 83.45  29.0889  0 i
 83.5  28.1664  0 i
 83.55  21.2283  0 i
 83.6  33.0932  0 i
 83.65  26.6381  0 i
 83.7  26.8104  0 i
 83.75  20.1423  0 i
 83.8  36.5659  0 i
 83.85  34.2764  0 i
 83.9  37.8726  0 i
 83.95  28.4042  0 i
 84  42.2735  0 i
 84.05  24.0184  0 i
 84.1  34.0101  0 i
 84.15  34.7083  0 i
 84.2  34.1439  0 i
 84.25  34.9937  0 i
 84.3  29.4316  0 i
 84.35  29.3432  0 i
 84.4  24.6903  0 i
 84.45  26.306  0 i
 84.5  31.78  0 i
 84.55  26.8155  0 i
 84.6  34.7162  0 i
 84.65  35.6292  0 i
 84.7  32.5842  0 i
 84.75  27.9885  0 i
 84.8  29.4909  0 i
 84.85  18.8958  0 i
 84.9  27.2669  0 i
 84.95  27.5981  0 i
 85  25.6777  0 i
 85.05  32.0106  0 i
 85.1  35.5364  0 i
 85.15  35.8422  0 i
 85.2  24.6954  0 i
 85.25  33.827  0 i
 85.3  28.0236  0 i
 85.35  26.3264  0 i
 85.4  38.4401  0 i
 85.45  23.7179  0 i
 85.5  31.6638  0 i
 85.55  34.8397  0 i
 85.6  35.9342  0 i
 85.65  32.8888  0 i
 85.7  29.7999  0 i
 85.75  27.4908  0 i
 85.8  24.5453  0 i
 85.85  23.6536  0 i
 85.9  31.5616  0 i
 85.95  21.4259  0 i
 86  24.0062  0 i
 86.05  36.6375  0 i
 86.1  25.5228  0 i
 86.15  24.8732  0 i
 86.2  29.455  0 i
 86.25  25.6264  0 i
 86.3  30.3421  0 i
 86.35  37.4406  0 i
 86.4  37.1593  0 i
 86.45  38.7272  0 i
 86.5  36.5449  0 i
 86.55  33.0233  0 i
 86.6  29.6255  0 i
 86.65  27.1124  0 i
 86.7  22.3503  0 i
 86.75  31.8633  0 i
 86.8  37.5739  0 i
 86.85  31.3827  0 i
 86.9  37.8553  0 i
 86.95  29.3714  0 i
 87  31.4878  0 i
 87.05  25.5535  0 i
 87.1  25.5495  0 i
 87.15  29.7446  0 i
 87.2  33.3321  0 i
 87.25  26.3542  0 i
 87.3  30.343  0 i
 87.35  32.4074  0 i
 87.4  32.8531  0 i
 87.45  25.1361  0 i
 87.5  33.6686  0 i
 87.55  33.5949  0 i
 87.6  26.4059  0 i
 87.65  33.5833  0 i
 87.7  29.2586  0 i
 87.75  34.8518  0 i
 87.8  32.0759  0 i
 87.85  29.9275  0 i
 87.9  24.8477  0 i
 87.95  38.6624  0 i
 88  28.7389  0 i
 88.05  23.3606  0 i
 88.1  19.3015  0 i
 88.15  31.6543  0 i
 88.2  35.3776  0 i
 88.25  31.1247  0 i
 88.3  41.4227  0 i
 88.35  40.3838  0 i
 88.4  19.5219  0 i
 88.45  37.725  0 i
 88.5  35.8705  0 i
 88.55  30.0056  0 i
 88.6  22.2363  0 i
 88.65  35.3863  0 i
 88.7  31.2082  0 i
 88.75  27.6225  0 i
 88.8  35.001  0 i
 88.85  31.2397  0 i
 88.9  30.8959  0 i
 88.95  29.9139  0 i
 89  30.2964  0 i
 89.05  36.3771  0 i
 89.1  31.7149  0 i
 89.15  33.7762  0 i
 89.2  27.8185  0 i
 89.25  23.8221  0 i
 89.3  34.8309  0 i
 89.35  32.1523  0 i
 89.4  24.4468  0 i
 89.45  32.8694  0 i
 89.5  34.3572  0 i
 89.55  27.6334  0 i
 89.6  23.9269  0 i
 89.65  24.4192  0 i
 89.7  34.1534  0 i
 89.75  28.8652  0 i
 89.8  26.3159  0 i
 89.85  30.0319  0 i
 89.9  34.1749  0 i
 89.95  29.5899  0 i
 90  27.1443  0 i
 90.05  36.8572  0 i
 90.1  33.429  0 i
 90.15  28.6992  0 i
 90.2  39.4687  0 i
 90.25  26.8034  0 i
 90.3  33.9776  0 i
 90.35  24.4011  0 i
 90.4  30.8156  0 i
 90.45  25.9903  0 i
 90.5  26.2803  0 i
 90.55  34.0463  0 i
 90.6  27.7062  0 i
 90.65  33.292  0 i
 90.7  28.2555  0 i
 90.75  26.2534  0 i
 90.8  33.2965  0 i
 90.85  36.4986  0 i
 90.9  36.1135  0 i
 90.95  29.5125  0 i
 91  36.2378  0 i
 91.05  35.2761  0 i
 91.1  34.6327  0 i
 91.15  38.6807  0 i
 91.2  28.8253  0 i
 91.25  39.9893  0 i
 91.3  20.3905  0 i
 91.35  26.9534  0 i
 91.4  31.281  0 i
 91.45  36.6  0 i
 91.5  24.0603  0 i
 91.55  32.8291  0 i
 91.6  22.71  0 i
 91.65  27.3436  0 i
 91.7  31.541  0 i
 91.75  21.4556  0 i
 91.8  33.2908  0 i
 91.85  29.2664  0 i
 91.9  32.436  0 i
 91.95  16.9335  0 i
 92  26.1555  0 i
 92.05  31.8952  0 i
 92.1  26.2685  0 i
 92.15  32.2957  0 i
 92.2  32.666  0 i
 92.25  19.5393  0 i
 92.3  31.8021  0 i
 92.35  29.8268  0 i
 92.4  43.6436  0 i
 92.45  32.6615  0 i
 92.5  31.3984  0 i
 92.55  35.7058  0 i
 92.6  40.6656  0 i
 92.65  37.9009  0 i
 92.7  28.5245  0 i
 92.75  31.0116  0 i
 92.8  26.266  0 i
 92.85  24.0862  0 i
 92.9  30.2818  0 i
 92.95  22.6377  0 i
 93  29.1571  0 i
 93.05  29.6397  0 i
 93.1  29.6438  0 i
 93.15  37.5666  0 i
 93.2  24.9604  0 i
 93.25  32.438  0 i
 93.3  32.0947  0 i
 93.35  38.3586  0 i
 93.4  24.3507  0 i
 93.45  23.2212  0 i
 93.5  33.6946  0 i
 93.55  26.1198  0 i
 93.6  33.3078  0 i
 93.65  25.6968  0 i
 93.7  28.791  0 i
 93.75  36.2964  0 i
 93.8  31.6905  0 i
 93.85  18.8261  0 i
 93.9  36.1715  0 i
 93.95  29.2737  0 i
 94  30.1743  0 i
 94.05  29.6167  0 i
 94.1  32.2505  0 i
 94.15  37.9424  0 i
 94.2  19.8233  0 i
 94.25  37.9863  0 i
 94.3  27.5749  0 i
 94.35  24.8062  0 i
 94.4  41.0662  0 i
 94.45  32.8237  0 i
 94.5  25.9471  0 i
 94.55  30.5615  0 i
 94.6  32.3906  0 i
 94.65  22.5467  0 i
 94.7  28.5918  0 i
 94.75  30.0205  0 i
 94.8  24.7582  0 i
 94.85  39.1438  0 i
 94.9  31.5844  0 i
 94.95  28.8234  0 i
 95  34.6199  0 i
 95.05  30.1254  0 i
 95.1  32.2013  0 i
 95.15  22.5148  0 i
 95.2  33.4433  0 i
 95.25  33.9461  0 i
 95.3  25.2889  0 i
 95.35  28.7423  0 i
 95.4  27.758  0 i
 95.45  28.0965  0 i
 95.5  24.9796  0 i
 95.55  30.0642  0 i
 95.6  24.8576  0 i
 95.65  28.7591  0 i
 95.7  29.3999  0 i
 95.75  28.4265  0 i
 95.8  27.1221  0 i
 95.85  46.1799  0 i
 95.9  33.0311  0 i
 95.95  19.5375  0 i
 96  31.1779  0 i
 96.05  27.8921  0 i
 96.1  25.0076  0 i
 96.15  18.9486  0 i
 96.2  28.0421  0 i
 96.25  24.4792  0 i
 96.3  29.4788  0 i
 96.35  30.5726  0 i
 96.4  30.7736  0 i
 96.45  32.1322  0 i
 96.5  23.7409  0 i
 96.55  28.0161  0 i
 96.6  27.5343  0 i
 96.65  29.5006  0 i
 96.7  39.6947  0 i
 96.75  23.5499  0 i
 96.8  29.8846  0 i
 96.85  30.2367  0 i
 96.9  24.5306  0 i
 96.95  34.3011  0 i
 97  28.6266  0 i
 97.05  39.3016  0 i
 97.1  26.8239  0 i
 97.15  36.1671  0 i
 97.2  28.549  0 i
 97.25  31.3921  0 i
 97.3  33.5731  0 i
 97.35  39.3363  0 i
 97.4  18.9294  0 i
 97.45  33.5871  0 i
 97.5  21.8775  0 i
 97.55  35.5651  0 i
 97.6  30.3095  0 i
 97.65  29.1501  0 i
 97.7  28.7734  0 i
 97.75  38.5884  0 i
 97.8  24.473  0 i
 97.85  31.1869  0 i
 97.9  22.2042  0 i
 97.95  23.3022  0 i
 98  25.26  0 i
 98.05  27.2938  0 i
 98.1  35.344  0 i
 98.15  32.3989  0 i
 98.2  25.5193  0 i
 98.25  43.9032  0 i
 98.3  40.61  0 i
 98.35  41.7432  0 i
 98.4  51.223  0 i
 98.45  47.6078  0 i
 98.5  52.9312  0 i
 98.55  75.1197  0 i
 98.6  82.4284  0 i
 98.65  116.109  0 i
 98.7  120.591  0 i
 98.75  114.618  0 i
 98.8  99.9512  0 i
 98.85  91.5957  0 i
 98.9  68.7999  0 i
 98.95  46.9898  0 i
 99  35.3759  0 i
 99.05  36.4176  0 i
 99.1  30.6378  0 i
 99.15  25.7971  0 i
 99.2  27.2162  0 i
 99.25  32.8957  0 i
 99.3  39.398  0 i
 99.35  19.5361  0 i
 99.4  26.794  0 i
 99.45  30.1755  0 i
 99.5  24.1324  0 i
 99.55  27.553  0 i
 99.6  30.4918  0 i
 99.65  26.2198  0 i
 99.7  33.5616  0 i
 99.75  25.4826  0 i
 99.8  26.4953  0 i
 99.85  27.6596  0 i
 99.9  23.589  0 i
 99.95  41.1873  0 i
 100  26.8682  0 i
 100.05  31.6513  0 i
 100.1  30.5037  0 i
 100.15  24.6679  0 i
 100.2  23.8544  0 i
 100.25  32.5827  0 i
 100.3  29.6116  0 i
 100.35  34.3893  0 i
 100.4  35.3136  0 i
 100.45  31.9639  0 i
 100.5  25.1188  0 i
 100.55  28.25  0 i
 100.6  27.8182  0 i
 100.65  20.3044  0 i
 100.7  26.9396  0 i
 100.75  27.5364  0 i
 100.8  19.9296  0 i
 100.85  24.9918  0 i
 100.9  30.8531  0 i
 100.95  22.2543  0 i
 101  38.8285  0 i
 101.05  41.0843  0 i
 101.1  25.6988  0 i
 101.15  30.0708  0 i
 101.2  44.6696  0 i
 101.25  38.0057  0 i
 101.3  23.9449  0 i
 101.35  32.9336  0 i
 101.4  31.7315  0 i
 101.45  29.8378  0 i
 101.5  29.7363  0 i
 101.55  37.7276  0 i
 101.6  36.0423  0 i
 101.65  32.1958  0 i
 101.7  22.4486  0 i
 101.75  41.4769  0 i
 101.8  34.773  0 i
 101.85  31.739  0 i
 101.9  36.5577  0 i
 101.95  35.975  0 i
 102  28.1192  0 i
 102.05  31.0441  0 i
 102.1  25.681  0 i
 102.15  31.977  0 i
 102.2  28.9257  0 i
 102.25  29.9271  0 i
 102.3  24.4636  0 i
 102.35  33.2999  0 i
 102.4  27.4506  0 i
 102.45  34.6254  0 i
 102.5  29.7178  0 i
 102.55  33.0125  0 i
 102.6  34.4262  0 i
 102.65  25.8536  0 i
 102.7  34.7684  0 i
 102.75  28.0719  0 i
 102.8  28.7273  0 i
 102.85  32.2233  0 i
 102.9  35.6073  0 i
 102.95  30.5017  0 i
 103  34.1796  0 i
 103.05  31.4653  0 i
 103.1  32.8704  0 i
 103.15  31.8764  0 i
 103.2  39.299  0 i
 103.25  37.5437  0 i
 103.3  21.7492  0 i
 103.35  24.8597  0 i
 103.4  37.1064  0 i
 103.45  32.3682  0 i
 103.5  32.8726  0 i
 103.55  28.1435  0 i
 103.6  21.2224  0 i
 103.65  38.4791  0 i
 103.7  36.7142  0 i
 103.75  33.4141  0 i
 103.8  27.3204  0 i
 103.85  28.1887  0 i
 103.9  34.266  0 i
 103.95  31.7291  0 i
 104  19.9343  0 i
 104.05  21.4418  0 i
 104.1  32.228  0 i
 104.15  34.8804  0 i
 104.2  39.7613  0 i
 104.25  32.0369  0 i
 104.3  33.8138  0 i
 104.35  28.8211  0 i
 104.4  45.6797  0 i
 104.45  34.1515  0 i
 104.5  31.9367  0 i
 104.55  29.1538  0 i
 104.6  32.907  0 i
 104.65  36.8628  0 i
 104.7  29.7841  0 i
 104.75  30.9362  0 i
 104.8  29.0123  0 i
 104.85  32.9176  0 i
 104.9  23.5692  0 i
 104.95  33.582  0 i
 105  26.2147  0 i
 105.05  31.482  0 i
 105.1  31.5216  0 i
 105.15  41.5727  0 i
 105.2  29.6144  0 i
 105.25  24.6253  0 i
 105.3  42.6185  0 i
 105.35  37.776  0 i
 105.4  32.9867  0 i
 105.45  45.2924  0 i
 105.5  31.336  0 i
 105.55  22.4131  0 i
 105.6  23.6143  0 i
 105.65  28.7182  0 i
 105.7  35.7578  0 i
 105.75  27.2725  0 i
 105.8  31.8717  0 i
 105.85  28.6493  0 i
 105.9  32.5448  0 i
 105.95  34.1092  0 i
 106  35.3  0 i
 106.05  25.7036  0 i
 106.1  36.2918  0 i
 106.15  36.7558  0 i
 106.2  27.5513  0 i
 106.25  40.2081  0 i
 106.3  31.2983  0 i
 106.35  30.6961  0 i
 106.4  26.7062  0 i
 106.45  27.6433  0 i
 106.5  36.1876  0 i
 106.55  21.7296  0 i
 106.6  29.923  0 i
 106.65  36.8636  0 i
 106.7  29.8827  0 i
 106.75  36.5157  0 i
 106.8  34.1202  0 i
 106.85  28.6528  0 i
 106.9  24.7436  0 i
 106.95  25.5934  0 i
 107  34.8068  0 i
 107.05  24.9751  0 i
 107.1  28.6784  0 i
 107.15  32.3463  0 i
 107.2  31.9484  0 i
 107.25  36.4236  0 i
 107.3  38.0704  0 i
 107.35  25.5209  0 i
 107.4  25.7356  0 i
 107.45  20.5323  0 i
 107.5  24.681  0 i
 107.55  27.9989  0 i
 107.6  21.3856  0 i
 107.65  25.7082  0 i
 107.7  26.7575  0 i
 107.75  27.9836  0 i
 107.8  34.9757  0 i
 107.85  28.2744  0 i
 107.9  41.3561  0 i
 107.95  34.3723  0 i
 108  28.9715  0 i
 108.05  31.286  0 i
 108.1  36.8295  0 i
 108.15  35.0516  0 i
 108.2  32.8161  0 i
 108.25  28.2943  0 i
 108.3  25.3579  0 i
 108.35  27.1849  0 i
 108.4  32.034  0 i
 108.45  34.5522  0 i
 108.5  30.1516  0 i
 108.55  33.0283  0 i
 108.6  33.975  0 i
 108.65  24.8673  0 i
 108.7  22.9244  0 i
 108.75  32.9674  0 i
 108.8  21.5903  0 i
 108.85  36.9786  0 i
 108.9  24.4366  0 i
 108.95  27.7715  0 i
 109  36.0244  0 i
 109.05  21.1302  0 i
 109.1  30.8125  0 i
 109.15  28.3418  0 i
 109.2  38.7517  0 i
 109.25  29.5885  0 i
 109.3  35.5959  0 i
 109.35  27.9774  0 i
 109.4  29.1801  0 i
 109.45  25.3002  0 i
 109.5  27.3586  0 i
 109.55  22.9461  0 i
 109.6  28.0315  0 i
 109.65  32.8222  0 i
 109.7  35.0269  0 i
 109.75  31.8182  0 i
 109.8  23.8185  0 i
 109.85  29.6453  0 i
 109.9  26.0549  0 i
 109.95  35.7782  0 i
 110  25.2951  0 i
 110.05  33.5753  0 i
 110.1  27.1422  0 i
 110.15  22.598  0 i
 110.2  29.5994  0 i
 110.25  42.4359  0 i
 110.3  20.8536  0 i
 110.35  36.4943  0 i
 110.4  28.4364  0 i
 110.45  32.7427  0 i
 110.5  44.1147  0 i
 110.55  25.1748  0 i
 110.6  22.198  0 i
 110.65  31.638  0 i
 110.7  30.0743  0 i
 110.75  25.429  0 i
 110.8  31.1864  0 i
 110.85  19.4225  0 i
 110.9  27.7334  0 i
 110.95  34.6803  0 i
 111  34.065  0 i
 111.05  28.9778  0 i
 111.1  26.7003  0 i
 111.15  30.5257  0 i
 111.2  25.4967  0 i
 111.25  27.6984  0 i
 111.3  19.7822  0 i
 111.35  24.1382  0 i
 111.4  26.7999  0 i
 111.45  36.3594  0 i
 111.5  31.65  0 i
 111.55  26.3252  0 i
 111.6  34.069  0 i
 111.65  36.418  0 i
 111.7  34.8011  0 i
 111.75  31.212  0 i
 111.8  27.6002  0 i
 111.85  36.5215  0 i
 111.9  37.0207  0 i
 111.95  30.8084  0 i
 112  22.3156  0 i
 112.05  26.3541  0 i
 112.1  36.1514  0 i
 112.15  37.0846  0 i
 112.2  28.8849  0 i
 112.25  31.4685  0 i
 112.3  32.3432  0 i
 112.35  33.8525  0 i
 112.4  26.51  0 i
 112.45  38.4036  0 i
 112.5  24.1613  0 i
 112.55  27.447  0 i
 112.6  41.8169  0 i
 112.65  31.8162  0 i
 112.7  29.4713  0 i
 112.75  32.6621  0 i
 112.8  24.9462  0 i
 112.85  35.4033  0 i
 112.9  35.5903  0 i
 112.95  21.8363  0 i
 113  24.607  0 i
 113.05  34.7171  0 i
 113.1  31.5135  0 i
 113.15  27.2777  0 i
 113.2  42.6098  0 i
 113.25  27.5709  0 i
 113.3  34.1586  0 i
 113.35  37.6184  0 i
 113.4  31.2217  0 i
 113.45  17.6681  0 i
 113.5  29.6755  0 i
 113.55  31.1017  0 i
 113.6  23.6964  0 i
 113.65  24.7668  0 i
 113.7  19.9172  0 i
 113.75  38.0016  0 i
 113.8  28.0214  0 i
 113.85  31.421  0 i
 113.9  29.4342  0 i
 113.95  35.4902  0 i
 114  32.3256  0 i
 114.05  33.7493  0 i
 114.1  25.9001  0 i
 114.15  33.7318  0 i
 114.2  32.1246  0 i
 114.25  28.0378  0 i
 114.3  24.1507  0 i
 114.35  33.7282  0 i
 114.4  26.493  0 i
 114.45  34.0032  0 i
 114.5  38.401  0 i
 114.55  22.756  0 i
 114.6  29.4599  0 i
 114.65  29.7738  0 i
 114.7  31.7816  0 i
 114.75  33.5727  0 i
 114.8  31.4459  0 i
 114.85  29.5697  0 i
 114.9  29.6156  0 i
 114.95  37.9558  0 i
 115  21.4224  0 i
 115.05  37.0608  0 i
 115.1  43.7791  0 i
 115.15  30.1184  0 i
 115.2  30.2644  0 i
 115.25  32.6263  0 i
 115.3  37.8524  0 i
 115.35  35.0005  0 i
 115.4  43.6388  0 i
 115.45  41.6988  0 i
 115.5  46.2723  0 i
 115.55  34.581  0 i
 115.6  36.7772  0 i
 115.65  35.4522  0 i
 115.7  53.9861  0 i
 115.75  34.2358  0 i
 115.8  51.0341  0 i
 115.85  60.0803  0 i
 115.9  70.9615  0 i
 115.95  80.7573  0 i
 116  90.8161  0 i
 116.05  90.5471  0 i
 116.1  95.8388  0 i
 116.15  94.3216  0 i
 116.2  90.0134  0 i
 116.25  68.7418  0 i
 116.3  65.2319  0 i
 116.35  55.8151  0 i
 116.4  45.0843  0 i
 116.45  59.2437  0 i
 116.5  63.2531  0 i
 116.55  36.4578  0 i
 116.6  35.9319  0 i
 116.65  37.631  0 i
 116.7  25.468  0 i
 116.75  35.9561  0 i
 116.8  26.2973  0 i
 116.85  23.645  0 i
 116.9  38.6185  0 i
 116.95  43.4261  0 i
 117  31.8468  0 i
 117.05  30.0862  0 i
 117.1  28.0222  0 i
 117.15  31.0891  0 i
 117.2  46.375  0 i
 117.25  34.0309  0 i
 117.3  32.436  0 i
 117.35  36.2905  0 i
 117.4  24.323  0 i
 117.45  33.9773  0 i
 117.5  27.4918  0 i
 117.55  30.9195  0 i
 117.6  27.5224  0 i
 117.65  27.2538  0 i
 117.7  24.9949  0 i
 117.75  29.8519  0 i
 117.8  26.5912  0 i
 117.85  44.7259  0 i
 117.9  34.4964  0 i
 117.95  29.8507  0 i
 118  31.0504  0 i
 118.05  24.3723  0 i
 118.1  23.0662  0 i
 118.15  39.671  0 i
 118.2  36.4501  0 i
 118.25  28.2419  0 i
 118.3  29.8545  0 i
 118.35  25.7602  0 i
 118.4  24.1927  0 i
 118.45  28.4199  0 i
 118.5  34.2531  0 i
 118.55  25.1661  0 i
 118.6  32.1703  0 i
 118.65  31.4772  0 i
 118.7  26.084  0 i
 118.75  25.3759  0 i
 118.8  31.8237  0 i
 118.85  34.1436  0 i
 118.9  35.6689  0 i
 118.95  39.713  0 i
 119  21.0344  0 i
 119.05  18.8197  0 i
 119.1  28.7826  0 i
 119.15  23.0472  0 i
 119.2  28.4659  0 i
 119.25  23.0143  0 i
 119.3  35.2483  0 i
 119.35  25.2108  0 i
 119.4  43.702  0 i
 119.45  27.5129  0 i
 119.5  30.2545  0 i
 119.55  28.7858  0 i
 119.6  30.7649  0 i
 119.65  29.3346  0 i
 119.7  41.0804  0 i
 119.75  26.3949  0 i
 119.8  33.6299  0 i
 119.85  24.8929  0 i
 119.9  29.6035  0 i
 119.95  32.1728  0 i
 120  34.0747  0 i
 120.05  30.1869  0 i
 120.1  36.4426  0 i
 120.15  33.5846  0 i
 120.2  31.6052  0 i
 120.25  28.1925  0 i
 120.3  27.5348  0 i
 120.35  42.4741  0 i
 120.4  24.6732  0 i
 120.45  35.1958  0 i
 120.5  28.2635  0 i
 120.55  32.1507  0 i
 120.6  36.9488  0 i
 120.65  27.0901  0 i
 120.7  37.739  0 i
 120.75  27.9172  0 i
 120.8  30.6266  0 i
 120.85  29.2877  0 i
 120.9  36.415  0 i
 120.95  36.3455  0 i
 121  30.0004  0 i
 121.05  31.4678  0 i
 121.1  30.2014  0 i
 121.15  31.9845  0 i
 121.2  26.2794  0 i
 121.25  47.2679  0 i
 121.3  11.0325  0 i
 121.35  29.6951  0 i
 121.4  31.5193  0 i
 121.45  26.8247  0 i
 121.5  27.385  0 i
 121.55  27.3834  0 i
 121.6  37.6371  0 i
 121.65  33.9243  0 i
 121.7  28.6048  0 i
 121.75  22.5493  0 i
 121.8  33.8615  0 i
 121.85  22.7799  0 i
 121.9  38.5556  0 i
 121.95  35.7609  0 i
 122  22.3308  0 i
 122.05  30.3363  0 i
 122.1  33.1234  0 i
 122.15  32.636  0 i
 122.2  29.6901  0 i
 122.25  22.4165  0 i
 122.3  15.9276  0 i
 122.35  24.845  0 i
 122.4  26.4353  0 i
 122.45  28.0465  0 i
 122.5  23.1165  0 i
 122.55  27.4306  0 i
 122.6  22.649  0 i
 122.65  23.2243  0 i
 122.7  35.7702  0 i
 122.75  24.9308  0 i
 122.8  31.9118  0 i
 122.85  33.5418  0 i
 122.9  31.8076  0 i
 122.95  33.6313  0 i
 123  39.616  0 i
 123.05  22.1803  0 i
 123.1  38.6598  0 i
 123.15  42.2697  0 i
 123.2  35.431  0 i
 123.25  26.6724  0 i
 123.3  19.8017  0 i
 123.35  35.5158  0 i
 123.4  47.5502  0 i
 123.45  29.4781  0 i
 123.5  35.0903  0 i
 123.55  30.7284  0 i
 123.6  33.6209  0 i
 123.65  32.7679  0 i
 123.7  29.694  0 i
 123.75  23.9056  0 i
 123.8  31.9235  0 i
 123.85  36.8453  0 i
 123.9  19.2826  0 i
 123.95  28.2186  0 i
 124  26.5181  0 i
 124.05  46.724  0 i
 124.1  27.217  0 i
 124.15  29.3276  0 i
 124.2  45.4593  0 i
 124.25  25.2924  0 i
 124.3  27.777  0 i
 124.35  35.6655  0 i
 124.4  29.5852  0 i
 124.45  31.7055  0 i
 124.5  36.8376  0 i
 124.55  28.4181  0 i
 124.6  27.3389  0 i
 124.65  31.9607  0 i
 124.7  37.143  0 i
 124.75  26.5732  0 i
 124.8  27.2075  0 i
 124.85  33.1239  0 i
 124.9  31.4094  0 i
 124.95  39.0198  0 i
 125  26.5484  0 i
 125.05  29.2961  0 i
 125.1  21.0645  0 i
 125.15  22.2133  0 i
 125.2  25.1699  0 i
 125.25  35.8594  0 i
 125.3  30.0519  0 i
 125.35  42.6145  0 i
 125.4  28.2249  0 i
 125.45  23.6444  0 i
 125.5  29.8335  0 i
 125.55  32.5746  0 i
 125.6  30.4283  0 i
 125.65  26.1206  0 i
 125.7  26.3654  0 i
 125.75  31.0231  0 i
 125.8  28.6534  0 i
 125.85  22.3654  0 i
 125.9  30.4063  0 i
 125.95  32.3856  0 i
 126  37.9276  0 i
 126.05  26.7058  0 i
 126.1  27.4598  0 i
 126.15  28.9503  0 i
 126.2  26.5253  0 i
 126.25  21.3579  0 i
 126.3  20.7558  0 i
 126.35  29.842  0 i
 126.4  24.5293  0 i
 126.45  24.1346  0 i
 126.5  36.526  0 i
 126.55  33.0531  0 i
 126.6  34.9094  0 i
 126.65  31.2737  0 i
 126.7  36.7663  0 i
 126.75  34.2906  0 i
 126.8  29.4545  0 i
 126.85  32.7297  0 i
 126.9  26.599  0 i
 126.95  28.7132  0 i
 127  34.7531  0 i
 127.05  29.6994  0 i
 127.1  26.9784  0 i
 127.15  26.7863  0 i
 127.2  31.1248  0 i
 127.25  27.1066  0 i
 127.3  33.6483  0 i
 127.35  40.5065  0 i
 127.4  26.7158  0 i
 127.45  33.5333  0 i
 127.5  33.0377  0 i
 127.55  32.3929  0 i
 127.6  35.6955  0 i
 127.65  26.6244  0 i
 127.7  31.7829  0 i
 127.75  25.5783  0 i
 127.8  33.7715  0 i
 127.85  37.0175  0 i
 127.9  32.1354  0 i
 127.95  39.8465  0 i
 128  26.5685  0 i
 128.05  32.578  0 i
 128.1  38.5018  0 i
 128.15  27.2125  0 i
 128.2  35.805  0 i
 128.25  31.4649  0 i
 128.3  23.6873  0 i
 128.35  37.2274  0 i
 128.4  33.3428  0 i
 128.45  21.4706  0 i
 128.5  26.4107  0 i
 128.55  25.4542  0 i
 128.6  26.52  0 i
 128.65  33.9539  0 i
 128.7  22.8503  0 i
 128.75  23.9797  0 i
 128.8  28.8081  0 i
 128.85  24.9307  0 i
 128.9  34.2024  0 i
 128.95  35.1939  0 i
 129  40.8483  0 i
 129.05  24.5405  0 i
 129.1  31.8308  0 i
 129.15  28.2145  0 i
 129.2  23.3251  0 i
 129.25  36.6299  0 i
 129.3  35.8668  0 i
 129.35  32.438  0 i
 129.4  22.4164  0 i
 129.45  29.3704  0 i
 129.5  24.9735  0 i
 129.55  31.1728  0 i
 129.6  47.4528  0 i
 129.65  35.7543  0 i
 129.7  34.8647  0 i
 129.75  30.072  0 i
 129.8  36.4644  0 i
 129.85  30.6729  0 i
 129.9  29.777  0 i
 129.95  34.8968  0 i
 130  27.0918  0 i

