40.0000 40.0280
40.0500 31.7025
40.1000 42.0170
40.1500 28.6423
40.2000 44.5413
40.2500 31.5493
40.3000 33.7608
40.3500 49.7941
40.4000 36.3509
40.4500 41.3645
40.5000 37.5010
40.5500 38.4178
40.6000 45.9811
40.6500 48.4662
40.7000 36.5584
40.7500 37.2617
40.8000 46.9565
40.8500 33.1199
40.9000 38.6161
40.9500 34.9684
41.0000 35.2569
41.0500 44.9534
41.1000 32.8475
41.1500 30.4859
41.2000 29.1513
41.2500 35.8935
41.3000 32.5510
41.3500 42.2163
41.4000 34.4686
41.4500 48.4339
41.5000 40.0636
41.5500 28.4524
41.6000 49.5406
41.6500 37.2515
41.7000 46.9118
41.7500 33.8178
41.8000 39.5508
41.8500 36.5362
41.9000 32.0854
41.9500 37.5744
42.0000 48.3139
42.0500 39.7781
42.1000 27.3136
42.1500 31.2367
42.2000 35.7259
42.2500 30.0342
42.3000 31.9391
42.3500 37.0510
42.4000 34.9050
42.4500 33.2947
42.5000 39.8539
42.5500 36.5263
42.6000 30.6982
42.6500 38.7576
42.7000 33.5493
42.7500 34.3181
42.8000 37.0079
42.8500 41.8393
42.9000 30.8497
42.9500 44.9708
43.0000 40.6525
43.0500 41.9568
43.1000 34.4930
43.1500 36.9817
43.2000 39.6637
43.2500 33.3346
43.3000 28.6188
43.3500 32.4314
43.4000 33.5538
43.4500 46.0688
43.5000 42.0486
43.5500 33.1787
43.6000 42.0697
43.6500 40.0445
43.7000 35.5892
43.7500 32.3330
43.8000 32.1862
43.8500 34.6545
43.9000 32.8571
43.9500 34.9908
44.0000 38.6758
44.0500 40.9667
44.1000 62.4257
44.1500 48.4100
44.2000 54.2826
44.2500 60.3200
44.3000 78.0715
44.3500 95.7907
44.4000 164.9468
44.4500 315.5317
44.5000 806.5857
44.5500 1493.8673
44.6000 1889.3795
44.6500 1465.2622
44.7000 541.6646
44.7500 175.9626
44.8000 88.8371
44.8500 56.0864
44.9000 44.9121
44.9500 44.4067
45.0000 44.5514
45.0500 60.1839
45.1000 37.4105
45.1500 38.3455
45.2000 38.3896
45.2500 39.0387
45.3000 30.9206
45.3500 43.1288
45.4000 34.5205
45.4500 23.4276
45.5000 32.4292
45.5500 38.9373
45.6000 38.8000
45.6500 35.8740
45.7000 29.3046
45.7500 45.9023
45.8000 31.5675
45.8500 39.1253
45.9000 26.1875
45.9500 30.2340
46.0000 44.7390
46.0500 38.5995
46.1000 33.6570
46.1500 34.3149
46.2000 36.0815
46.2500 33.8881
46.3000 36.6284
46.3500 41.3348
46.4000 30.1319
46.4500 32.3270
46.5000 37.3311
46.5500 29.3020
46.6000 30.0520
46.6500 38.5860
46.7000 34.9991
46.7500 32.0556
46.8000 30.6932
46.8500 31.2094
46.9000 47.8651
46.9500 40.2773
47.0000 35.6962
47.0500 38.7928
47.1000 29.1822
47.1500 36.7914
47.2000 35.0038
47.2500 34.4573
47.3000 40.4736
47.3500 43.5882
47.4000 34.7654
47.4500 32.8133
47.5000 33.5422
47.5500 36.0655
47.6000 37.3766
47.6500 28.2759
47.7000 46.5503
47.7500 27.8750
47.8000 39.2317
47.8500 35.8210
47.9000 30.4177
47.9500 32.4539
48.0000 23.2755
48.0500 31.6944
48.1000 31.5098
48.1500 36.2049
48.2000 39.6104
48.2500 36.1297
48.3000 29.7038
48.3500 33.4240
48.4000 41.8448
48.4500 38.6096
48.5000 29.8242
48.5500 35.0783
48.6000 27.2065
48.6500 35.4631
48.7000 37.6140
48.7500 22.0801
48.8000 49.2304
48.8500 32.1606
48.9000 35.0356
48.9500 31.2070
49.0000 33.0992
49.0500 39.3871
49.1000 40.2479
49.1500 27.4756
49.2000 27.8085
49.2500 25.5825
49.3000 28.1383
49.3500 21.1547
49.4000 31.4959
49.4500 23.1757
49.5000 33.6959
49.5500 38.2154
49.6000 26.1132
49.6500 32.9034
49.7000 35.0960
49.7500 20.9159
49.8000 23.2863
49.8500 32.0098
49.9000 38.1588
49.9500 39.8757
50.0000 39.2898
50.0500 45.3826
50.1000 35.6426
50.1500 31.4311
50.2000 29.5905
50.2500 35.1490
50.3000 37.6962
50.3500 43.1226
50.4000 33.5444
50.4500 29.8112
50.5000 33.0954
50.5500 26.9074
50.6000 31.3059
50.6500 36.6794
50.7000 39.9119
50.7500 27.3971
50.8000 34.8105
50.8500 27.7875
50.9000 35.6004
50.9500 40.5997
51.0000 29.6708
51.0500 25.8622
51.1000 31.0158
51.1500 39.1132
51.2000 29.2377
51.2500 33.5821
51.3000 30.0993
51.3500 38.3836
51.4000 38.0319
51.4500 33.5200
51.5000 33.6284
51.5500 30.7670
51.6000 34.0299
51.6500 36.4751
51.7000 31.6180
51.7500 30.9411
51.8000 43.6904
51.8500 27.7861
51.9000 32.7477
51.9500 33.3121
52.0000 24.2769
52.0500 18.0648
52.1000 28.8858
52.1500 32.7835
52.2000 29.5184
52.2500 29.6891
52.3000 39.9312
52.3500 29.0100
52.4000 34.5479
52.4500 34.3432
52.5000 32.9908
52.5500 23.4556
52.6000 32.4932
52.6500 32.4840
52.7000 36.5496
52.7500 36.3853
52.8000 31.2270
52.8500 34.3881
52.9000 29.8098
52.9500 35.7131
53.0000 37.0793
53.0500 29.9322
53.1000 33.3397
53.1500 33.3809
53.2000 31.5483
53.2500 30.2908
53.3000 27.4547
53.3500 22.7506
53.4000 45.3282
53.4500 23.9299
53.5000 29.0303
53.5500 35.4395
53.6000 32.7210
53.6500 27.1128
53.7000 34.9181
53.7500 22.0853
53.8000 38.0826
53.8500 24.5038
53.9000 26.3391
53.9500 29.9101
54.0000 33.3448
54.0500 26.7462
54.1000 24.1761
54.1500 25.8318
54.2000 41.9148
54.2500 31.2618
54.3000 31.6381
54.3500 31.2373
54.4000 29.9042
54.4500 29.6287
54.5000 33.3865
54.5500 30.1717
54.6000 23.1948
54.6500 35.8660
54.7000 31.3870
54.7500 33.3101
54.8000 30.8597
54.8500 33.3012
54.9000 27.2739
54.9500 28.4383
55.0000 35.8209
55.0500 22.7160
55.1000 24.2605
55.1500 37.0516
55.2000 30.9671
55.2500 35.7078
55.3000 27.1584
55.3500 22.1984
55.4000 39.5758
55.4500 40.4059
55.5000 34.9189
55.5500 35.7588
55.6000 32.3797
55.6500 19.1861
55.7000 36.1849
55.7500 27.1558
55.8000 28.7375
55.8500 31.2330
55.9000 33.3230
55.9500 33.3488
56.0000 29.6790
56.0500 26.2977
56.1000 25.6613
56.1500 33.1060
56.2000 30.3194
56.2500 34.9974
56.3000 23.6659
56.3500 31.6684
56.4000 33.5981
56.4500 33.6663
56.5000 33.2025
56.5500 37.6311
56.6000 37.1226
56.6500 28.8273
56.7000 30.8530
56.7500 33.0827
56.8000 34.5960
56.8500 33.8042
56.9000 36.4221
56.9500 28.2171
57.0000 28.7728
57.0500 33.3806
57.1000 27.7875
57.1500 31.0603
57.2000 35.0517
57.2500 36.5531
57.3000 30.3705
57.3500 25.6379
57.4000 36.7611
57.4500 34.9592
57.5000 22.1746
57.5500 29.4309
57.6000 39.3063
57.6500 20.2505
57.7000 25.6626
57.7500 27.5959
57.8000 39.2205
57.8500 30.1008
57.9000 29.9505
57.9500 23.3912
58.0000 39.2145
58.0500 34.4678
58.1000 33.7833
58.1500 28.7712
58.2000 47.7739
58.2500 30.1093
58.3000 26.6269
58.3500 31.7377
58.4000 30.1779
58.4500 35.7043
58.5000 19.5608
58.5500 26.7126
58.6000 29.7169
58.6500 34.4103
58.7000 36.6653
58.7500 34.4694
58.8000 30.7159
58.8500 35.8082
58.9000 29.1266
58.9500 35.1881
59.0000 30.2080
59.0500 33.5857
59.1000 30.1299
59.1500 42.5893
59.2000 35.8901
59.2500 35.8042
59.3000 35.3151
59.3500 28.6673
59.4000 39.5205
59.4500 36.4208
59.5000 35.0314
59.5500 31.8725
59.6000 24.0828
59.6500 38.0325
59.7000 33.8985
59.7500 30.6098
59.8000 29.7569
59.8500 30.7553
59.9000 27.4304
59.9500 40.5241
60.0000 23.8951
60.0500 30.9021
60.1000 41.2169
60.1500 35.9692
60.2000 30.9144
60.2500 34.9576
60.3000 28.7781
60.3500 26.4866
60.4000 39.2717
60.4500 37.0822
60.5000 28.7166
60.5500 35.8050
60.6000 36.5700
60.6500 36.0545
60.7000 26.6917
60.7500 23.7993
60.8000 29.6258
60.8500 30.5307
60.9000 25.0216
60.9500 38.5745
61.0000 37.1538
61.0500 36.0598
61.1000 25.0366
61.1500 27.5872
61.2000 26.6576
61.2500 30.4402
61.3000 25.4527
61.3500 30.7341
61.4000 29.3497
61.4500 25.6305
61.5000 28.9059
61.5500 32.1847
61.6000 33.2473
61.6500 32.4359
61.7000 29.7921
61.7500 26.3431
61.8000 26.3499
61.8500 33.4747
61.9000 25.6993
61.9500 36.1639
62.0000 29.3659
62.0500 20.9291
62.1000 26.1780
62.1500 28.5429
62.2000 30.5760
62.2500 36.6589
62.3000 38.4558
62.3500 30.0782
62.4000 30.2217
62.4500 30.0601
62.5000 41.7759
62.5500 24.0643
62.6000 27.1189
62.6500 22.7816
62.7000 34.7153
62.7500 19.1486
62.8000 38.8531
62.8500 19.0581
62.9000 29.3606
62.9500 35.4387
63.0000 28.4831
63.0500 36.7827
63.1000 27.5610
63.1500 29.6158
63.2000 21.1888
63.2500 23.2042
63.3000 39.8855
63.3500 42.7511
63.4000 39.0148
63.4500 34.0950
63.5000 36.1211
63.5500 24.3396
63.6000 30.9573
63.6500 24.1799
63.7000 28.9832
63.7500 27.2087
63.8000 25.5045
63.8500 41.3195
63.9000 25.1598
63.9500 32.4305
64.0000 31.4334
64.0500 22.3183
64.1000 33.4968
64.1500 42.5480
64.2000 21.2642
64.2500 32.5917
64.3000 34.2521
64.3500 32.7429
64.4000 35.7337
64.4500 38.9331
64.5000 47.5835
64.5500 49.4058
64.6000 38.0802
64.6500 47.2119
64.7000 45.8994
64.7500 64.6193
64.8000 94.0214
64.8500 116.4100
64.9000 134.2904
64.9500 139.5096
65.0000 102.5926
65.0500 76.7996
65.1000 60.6308
65.1500 42.2647
65.2000 47.3745
65.2500 30.5310
65.3000 28.5555
65.3500 23.0510
65.4000 28.9175
65.4500 33.4621
65.5000 24.7213
65.5500 21.7215
65.6000 32.2621
65.6500 21.2768
65.7000 23.4550
65.7500 21.4860
65.8000 33.0683
65.8500 29.4037
65.9000 34.8467
65.9500 43.4335
66.0000 27.0493
66.0500 20.8369
66.1000 25.3436
66.1500 37.5880
66.2000 26.0757
66.2500 20.1515
66.3000 25.0790
66.3500 22.6668
66.4000 34.5129
66.4500 28.0689
66.5000 25.8839
66.5500 33.0594
66.6000 26.1929
66.6500 32.2823
66.7000 28.5868
66.7500 32.6821
66.8000 34.8286
66.8500 26.2344
66.9000 16.1060
66.9500 25.6438
67.0000 25.0314
67.0500 33.2278
67.1000 33.2811
67.1500 23.3802
67.2000 27.4423
67.2500 37.1382
67.3000 24.9404
67.3500 31.1088
67.4000 31.1342
67.4500 33.3137
67.5000 26.2460
67.5500 35.6902
67.6000 25.1968
67.6500 21.6663
67.7000 23.5826
67.7500 22.9931
67.8000 26.0999
67.8500 24.4609
67.9000 35.1385
67.9500 39.5060
68.0000 26.8673
68.0500 21.6763
68.1000 31.7619
68.1500 30.1666
68.2000 31.6629
68.2500 24.1092
68.3000 34.3215
68.3500 21.0617
68.4000 24.0252
68.4500 32.4656
68.5000 38.4823
68.5500 26.1986
68.6000 23.1756
68.6500 29.4778
68.7000 33.2755
68.7500 32.3008
68.8000 29.8303
68.8500 32.8324
68.9000 32.3914
68.9500 26.2354
69.0000 26.2593
69.0500 28.1775
69.1000 27.4065
69.1500 30.4624
69.2000 32.2245
69.2500 26.8055
69.3000 24.8498
69.3500 31.1232
69.4000 26.8486
69.4500 27.1091
69.5000 28.1396
69.5500 22.4651
69.6000 30.8930
69.6500 38.4503
69.7000 23.6956
69.7500 31.6997
69.8000 23.3498
69.8500 37.0802
69.9000 29.7002
69.9500 29.9785
70.0000 31.0354
70.0500 25.9455
70.1000 32.8237
70.1500 30.0536
70.2000 25.5957
70.2500 33.0377
70.3000 32.3317
70.3500 33.3978
70.4000 28.8166
70.4500 24.4281
70.5000 24.1241
70.5500 29.8786
70.6000 33.4124
70.6500 23.8481
70.7000 36.9852
70.7500 18.6527
70.8000 38.7580
70.8500 30.6364
70.9000 25.1638
70.9500 32.6983
71.0000 24.1421
71.0500 34.6745
71.1000 27.7010
71.1500 31.1040
71.2000 30.9979
71.2500 31.1170
71.3000 33.5844
71.3500 31.3321
71.4000 26.9219
71.4500 28.9515
71.5000 28.0881
71.5500 30.6996
71.6000 28.1230
71.6500 26.7574
71.7000 30.7077
71.7500 24.8414
71.8000 32.0730
71.8500 30.4495
71.9000 36.3355
71.9500 25.9678
72.0000 31.3187
72.0500 22.4830
72.1000 28.8827
72.1500 34.2959
72.2000 34.1033
72.2500 39.6093
72.3000 28.9417
72.3500 28.0659
72.4000 21.7543
72.4500 33.4878
72.5000 27.9480
72.5500 30.5519
72.6000 29.5340
72.6500 31.7930
72.7000 28.1935
72.7500 23.8640
72.8000 26.7481
72.8500 26.4529
72.9000 32.0732
72.9500 23.4768
73.0000 32.5776
73.0500 36.3480
73.1000 22.8921
73.1500 29.4752
73.2000 31.3682
73.2500 31.2625
73.3000 39.3754
73.3500 36.3093
73.4000 38.4791
73.4500 22.2019
73.5000 32.0580
73.5500 26.8543
73.6000 33.5782
73.6500 22.3184
73.7000 23.6494
73.7500 32.6506
73.8000 34.3497
73.8500 36.5082
73.9000 33.9406
73.9500 34.1672
74.0000 27.8147
74.0500 31.7317
74.1000 26.2966
74.1500 32.6793
74.2000 29.4859
74.2500 30.6986
74.3000 41.5279
74.3500 35.4294
74.4000 36.5592
74.4500 32.3287
74.5000 23.9124
74.5500 27.4005
74.6000 37.0826
74.6500 28.5598
74.7000 24.2119
74.7500 33.5161
74.8000 26.5579
74.8500 22.3127
74.9000 22.3587
74.9500 21.3089
75.0000 22.2764
75.0500 32.3362
75.1000 25.4720
75.1500 24.1446
75.2000 35.5209
75.2500 20.8561
75.3000 27.6926
75.3500 29.6698
75.4000 17.3039
75.4500 33.6164
75.5000 36.3657
75.5500 36.6340
75.6000 32.8531
75.6500 20.7225
75.7000 43.2298
75.7500 24.0561
75.8000 25.0930
75.8500 38.7010
75.9000 30.8682
75.9500 25.7221
76.0000 21.0495
76.0500 24.9516
76.1000 39.0272
76.1500 24.2837
76.2000 32.2940
76.2500 35.0852
76.3000 31.3799
76.3500 32.3952
76.4000 34.3655
76.4500 43.0710
76.5000 39.2133
76.5500 28.3617
76.6000 44.1630
76.6500 26.8315
76.7000 23.6154
76.7500 28.3837
76.8000 22.2178
76.8500 43.6048
76.9000 27.5721
76.9500 25.2386
77.0000 34.8949
77.0500 50.5198
77.1000 40.5188
77.1500 25.4205
77.2000 27.1477
77.2500 45.2626
77.3000 29.6578
77.3500 34.5035
77.4000 21.4831
77.4500 26.2423
77.5000 38.0928
77.5500 35.1117
77.6000 32.6386
77.6500 25.5919
77.7000 29.6898
77.7500 32.3690
77.8000 30.9133
77.8500 39.1354
77.9000 26.8352
77.9500 27.6772
78.0000 27.8894
78.0500 31.3927
78.1000 31.5991
78.1500 34.7858
78.2000 26.7274
78.2500 29.0621
78.3000 31.6509
78.3500 39.0132
78.4000 32.9669
78.4500 35.6573
78.5000 31.3761
78.5500 31.2042
78.6000 29.0159
78.6500 24.3324
78.7000 28.9229
78.7500 35.2668
78.8000 29.3805
78.8500 33.2350
78.9000 26.1038
78.9500 29.6182
79.0000 23.0139
79.0500 31.0524
79.1000 24.7776
79.1500 34.1631
79.2000 33.4843
79.2500 29.4108
79.3000 34.0265
79.3500 37.6943
79.4000 23.1486
79.4500 30.0079
79.5000 31.6638
79.5500 28.6701
79.6000 23.8137
79.6500 31.5148
79.7000 33.0947
79.7500 29.9447
79.8000 37.0778
79.8500 29.1584
79.9000 35.2212
79.9500 24.5511
80.0000 30.0983
80.0500 35.1814
80.1000 36.0331
80.1500 28.0200
80.2000 22.4263
80.2500 27.2964
80.3000 31.5990
80.3500 24.8179
80.4000 32.2712
80.4500 35.1809
80.5000 38.5699
80.5500 35.0238
80.6000 29.5315
80.6500 31.5291
80.7000 31.6866
80.7500 19.6232
80.8000 26.0757
80.8500 32.4021
80.9000 34.9783
80.9500 28.1614
81.0000 29.6588
81.0500 25.4796
81.1000 20.2313
81.1500 31.6667
81.2000 31.3057
81.2500 34.6698
81.3000 34.4826
81.3500 26.7397
81.4000 27.7079
81.4500 45.1971
81.5000 22.3282
81.5500 43.9097
81.6000 37.0805
81.6500 39.6452
81.7000 30.8849
81.7500 34.5610
81.8000 55.9878
81.8500 50.4581
81.9000 60.4128
81.9500 74.4457
82.0000 111.0981
82.0500 171.2673
82.1000 232.7908
82.1500 259.8618
82.2000 281.9145
82.2500 186.4878
82.3000 109.7922
82.3500 60.6529
82.4000 76.9676
82.4500 35.5413
82.5000 43.0605
82.5500 53.7500
82.6000 32.7773
82.6500 30.7546
82.7000 39.0565
82.7500 26.0381
82.8000 28.8578
82.8500 29.5573
82.9000 33.9667
82.9500 24.6662
83.0000 21.1224
83.0500 23.7487
83.1000 35.5701
83.1500 29.6703
83.2000 26.5837
83.2500 40.7160
83.3000 26.9894
83.3500 32.2377
83.4000 26.5298
83.4500 29.0889
83.5000 28.1664
83.5500 21.2283
83.6000 33.0932
83.6500 26.6381
83.7000 26.8104
83.7500 20.1423
83.8000 36.5659
83.8500 34.2764
83.9000 37.8726
83.9500 28.4042
84.0000 42.2735
84.0500 24.0184
84.1000 34.0101
84.1500 34.7083
84.2000 34.1439
84.2500 34.9937
84.3000 29.4316
84.3500 29.3432
84.4000 24.6903
84.4500 26.3060
84.5000 31.7800
84.5500 26.8155
84.6000 34.7162
84.6500 35.6292
84.7000 32.5842
84.7500 27.9885
84.8000 29.4909
84.8500 18.8958
84.9000 27.2669
84.9500 27.5981
85.0000 25.6777
85.0500 32.0106
85.1000 35.5364
85.1500 35.8422
85.2000 24.6954
85.2500 33.8270
85.3000 28.0236
85.3500 26.3264
85.4000 38.4401
85.4500 23.7179
85.5000 31.6638
85.5500 34.8397
85.6000 35.9342
85.6500 32.8888
85.7000 29.7999
85.7500 27.4908
85.8000 24.5453
85.8500 23.6536
85.9000 31.5616
85.9500 21.4259
86.0000 24.0062
86.0500 36.6375
86.1000 25.5228
86.1500 24.8732
86.2000 29.4550
86.2500 25.6264
86.3000 30.3421
86.3500 37.4406
86.4000 37.1593
86.4500 38.7272
86.5000 36.5449
86.5500 33.0233
86.6000 29.6255
86.6500 27.1124
86.7000 22.3503
86.7500 31.8633
86.8000 37.5739
86.8500 31.3827
86.9000 37.8553
86.9500 29.3714
87.0000 31.4878
87.0500 25.5535
87.1000 25.5495
87.1500 29.7446
87.2000 33.3321
87.2500 26.3542
87.3000 30.3430
87.3500 32.4074
87.4000 32.8531
87.4500 25.1361
87.5000 33.6686
87.5500 33.5949
87.6000 26.4059
87.6500 33.5833
87.7000 29.2586
87.7500 34.8518
87.8000 32.0759
87.8500 29.9275
87.9000 24.8477
87.9500 38.6624
88.0000 28.7389
88.0500 23.3606
88.1000 19.3015
88.1500 31.6543
88.2000 35.3776
88.2500 31.1247
88.3000 41.4227
88.3500 40.3838
88.4000 19.5219
88.4500 37.7250
88.5000 35.8705
88.5500 30.0056
88.6000 22.2363
88.6500 35.3863
88.7000 31.2082
88.7500 27.6225
88.8000 35.0010
88.8500 31.2397
88.9000 30.8959
88.9500 29.9139
89.0000 30.2964
89.0500 36.3771
89.1000 31.7149
89.1500 33.7762
89.2000 27.8185
89.2500 23.8221
89.3000 34.8309
89.3500 32.1523
89.4000 24.4468
89.4500 32.8694
89.5000 34.3572
89.5500 27.6334
89.6000 23.9269
89.6500 24.4192
89.7000 34.1534
89.7500 28.8652
89.8000 26.3159
89.8500 30.0319
89.9000 34.1749
89.9500 29.5899
90.0000 27.1443
90.0500 36.8572
90.1000 33.4290
90.1500 28.6992
90.2000 39.4687
90.2500 26.8034
90.3000 33.9776
90.3500 24.4011
90.4000 30.8156
90.4500 25.9903
90.5000 26.2803
90.5500 34.0463
90.6000 27.7062
90.6500 33.2920
90.7000 28.2555
90.7500 26.2534
90.8000 33.2965
90.8500 36.4986
90.9000 36.1135
90.9500 29.5125
91.0000 36.2378
91.0500 35.2761
91.1000 34.6327
91.1500 38.6807
91.2000 28.8253
91.2500 39.9893
91.3000 20.3905
91.3500 26.9534
91.4000 31.2810
91.4500 36.6000
91.5000 24.0603
91.5500 32.8291
91.6000 22.7100
91.6500 27.3436
91.7000 31.5410
91.7500 21.4556
91.8000 33.2908
91.8500 29.2664
91.9000 32.4360
91.9500 16.9335
92.0000 26.1555
92.0500 31.8952
92.1000 26.2685
92.1500 32.2957
92.2000 32.6660
92.2500 19.5393
92.3000 31.8021
92.3500 29.8268
92.4000 43.6436
92.4500 32.6615
92.5000 31.3984
92.5500 35.7058
92.6000 40.6656
92.6500 37.9009
92.7000 28.5245
92.7500 31.0116
92.8000 26.2660
92.8500 24.0862
92.9000 30.2818
92.9500 22.6377
93.0000 29.1571
93.0500 29.6397
93.1000 29.6438
93.1500 37.5666
93.2000 24.9604
93.2500 32.4380
93.3000 32.0947
93.3500 38.3586
93.4000 24.3507
93.4500 23.2212
93.5000 33.6946
93.5500 26.1198
93.6000 33.3078
93.6500 25.6968
93.7000 28.7910
93.7500 36.2964
93.8000 31.6905
93.8500 18.8261
93.9000 36.1715
93.9500 29.2737
94.0000 30.1743
94.0500 29.6167
94.1000 32.2505
94.1500 37.9424
94.2000 19.8233
94.2500 37.9863
94.3000 27.5749
94.3500 24.8062
94.4000 41.0662
94.4500 32.8237
94.5000 25.9471
94.5500 30.5615
94.6000 32.3906
94.6500 22.5467
94.7000 28.5918
94.7500 30.0205
94.8000 24.7582
94.8500 39.1438
94.9000 31.5844
94.9500 28.8234
95.0000 34.6199
95.0500 30.1254
95.1000 32.2013
95.1500 22.5148
95.2000 33.4433
95.2500 33.9461
95.3000 25.2889
95.3500 28.7423
95.4000 27.7580
95.4500 28.0965
95.5000 24.9796
95.5500 30.0642
95.6000 24.8576
95.6500 28.7591
95.7000 29.3999
95.7500 28.4265
95.8000 27.1221
95.8500 46.1799
95.9000 33.0311
95.9500 19.5375
96.0000 31.1779
96.0500 27.8921
96.1000 25.0076
96.1500 18.9486
96.2000 28.0421
96.2500 24.4792
96.3000 29.4788
96.3500 30.5726
96.4000 30.7736
96.4500 32.1322
96.5000 23.7409
96.5500 28.0161
96.6000 27.5343
96.6500 29.5006
96.7000 39.6947
96.7500 23.5499
96.8000 29.8846
96.8500 30.2367
96.9000 24.5306
96.9500 34.3011
97.0000 28.6266
97.0500 39.3016
97.1000 26.8239
97.1500 36.1671
97.2000 28.5490
97.2500 31.3921
97.3000 33.5731
97.3500 39.3363
97.4000 18.9294
97.4500 33.5871
97.5000 21.8775
97.5500 35.5651
97.6000 30.3095
97.6500 29.1501
97.7000 28.7734
97.7500 38.5884
97.8000 24.4730
97.8500 31.1869
97.9000 22.2042
97.9500 23.3022
98.0000 25.2600
98.0500 27.2938
98.1000 35.3440
98.1500 32.3989
98.2000 25.5193
98.2500 43.9032
98.3000 40.6100
98.3500 41.7432
98.4000 51.2230
98.4500 47.6078
98.5000 52.9312
98.5500 75.1197
98.6000 82.4284
98.6500 116.1085
98.7000 120.5906
98.7500 114.6185
98.8000 99.9512
98.8500 91.5957
98.9000 68.7999
98.9500 46.9898
99.0000 35.3759
99.0500 36.4176
99.1000 30.6378
99.1500 25.7971
99.2000 27.2162
99.2500 32.8957
99.3000 39.3980
99.3500 19.5361
99.4000 26.7940
99.4500 30.1755
99.5000 24.1324
99.5500 27.5530
99.6000 30.4918
99.6500 26.2198
99.7000 33.5616
99.7500 25.4826
99.8000 26.4953
99.8500 27.6596
99.9000 23.5890
99.9500 41.1873
100.0000 26.8682
100.0500 31.6513
100.1000 30.5037
100.1500 24.6679
100.2000 23.8544
100.2500 32.5827
100.3000 29.6116
100.3500 34.3893
100.4000 35.3136
100.4500 31.9639
100.5000 25.1188
100.5500 28.2500
100.6000 27.8182
100.6500 20.3044
100.7000 26.9396
100.7500 27.5364
100.8000 19.9296
100.8500 24.9918
100.9000 30.8531
100.9500 22.2543
101.0000 38.8285
101.0500 41.0843
101.1000 25.6988
101.1500 30.0708
101.2000 44.6696
101.2500 38.0057
101.3000 23.9449
101.3500 32.9336
101.4000 31.7315
101.4500 29.8378
101.5000 29.7363
101.5500 37.7276
101.6000 36.0423
101.6500 32.1958
101.7000 22.4486
101.7500 41.4769
101.8000 34.7730
101.8500 31.7390
101.9000 36.5577
101.9500 35.9750
102.0000 28.1192
102.0500 31.0441
102.1000 25.6810
102.1500 31.9770
102.2000 28.9257
102.2500 29.9271
102.3000 24.4636
102.3500 33.2999
102.4000 27.4506
102.4500 34.6254
102.5000 29.7178
102.5500 33.0125
102.6000 34.4262
102.6500 25.8536
102.7000 34.7684
102.7500 28.0719
102.8000 28.7273
102.8500 32.2233
102.9000 35.6073
102.9500 30.5017
103.0000 34.1796
103.0500 31.4653
103.1000 32.8704
103.1500 31.8764
103.2000 39.2990
103.2500 37.5437
103.3000 21.7492
103.3500 24.8597
103.4000 37.1064
103.4500 32.3682
103.5000 32.8726
103.5500 28.1435
103.6000 21.2224
103.6500 38.4791
103.7000 36.7142
103.7500 33.4141
103.8000 27.3204
103.8500 28.1887
103.9000 34.2660
103.9500 31.7291
104.0000 19.9343
104.0500 21.4418
104.1000 32.2280
104.1500 34.8804
104.2000 39.7613
104.2500 32.0369
104.3000 33.8138
104.3500 28.8211
104.4000 45.6797
104.4500 34.1515
104.5000 31.9367
104.5500 29.1538
104.6000 32.9070
104.6500 36.8628
104.7000 29.7841
104.7500 30.9362
104.8000 29.0123
104.8500 32.9176
104.9000 23.5692
104.9500 33.5820
105.0000 26.2147
105.0500 31.4820
105.1000 31.5216
105.1500 41.5727
105.2000 29.6144
105.2500 24.6253
105.3000 42.6185
105.3500 37.7760
105.4000 32.9867
105.4500 45.2924
105.5000 31.3360
105.5500 22.4131
105.6000 23.6143
105.6500 28.7182
105.7000 35.7578
105.7500 27.2725
105.8000 31.8717
105.8500 28.6493
105.9000 32.5448
105.9500 34.1092
106.0000 35.3000
106.0500 25.7036
106.1000 36.2918
106.1500 36.7558
106.2000 27.5513
106.2500 40.2081
106.3000 31.2983
106.3500 30.6961
106.4000 26.7062
106.4500 27.6433
106.5000 36.1876
106.5500 21.7296
106.6000 29.9230
106.6500 36.8636
106.7000 29.8827
106.7500 36.5157
106.8000 34.1202
106.8500 28.6528
106.9000 24.7436
106.9500 25.5934
107.0000 34.8068
107.0500 24.9751
107.1000 28.6784
107.1500 32.3463
107.2000 31.9484
107.2500 36.4236
107.3000 38.0704
107.3500 25.5209
107.4000 25.7356
107.4500 20.5323
107.5000 24.6810
107.5500 27.9989
107.6000 21.3856
107.6500 25.7082
107.7000 26.7575
107.7500 27.9836
107.8000 34.9757
107.8500 28.2744
107.9000 41.3561
107.9500 34.3723
108.0000 28.9715
108.0500 31.2860
108.1000 36.8295
108.1500 35.0516
108.2000 32.8161
108.2500 28.2943
108.3000 25.3579
108.3500 27.1849
108.4000 32.0340
108.4500 34.5522
108.5000 30.1516
108.5500 33.0283
108.6000 33.9750
108.6500 24.8673
108.7000 22.9244
108.7500 32.9674
108.8000 21.5903
108.8500 36.9786
108.9000 24.4366
108.9500 27.7715
109.0000 36.0244
109.0500 21.1302
109.1000 30.8125
109.1500 28.3418
109.2000 38.7517
109.2500 29.5885
109.3000 35.5959
109.3500 27.9774
109.4000 29.1801
109.4500 25.3002
109.5000 27.3586
109.5500 22.9461
109.6000 28.0315
109.6500 32.8222
109.7000 35.0269
109.7500 31.8182
109.8000 23.8185
109.8500 29.6453
109.9000 26.0549
109.9500 35.7782
110.0000 25.2951
110.0500 33.5753
110.1000 27.1422
110.1500 22.5980
110.2000 29.5994
110.2500 42.4359
110.3000 20.8536
110.3500 36.4943
110.4000 28.4364
110.4500 32.7427
110.5000 44.1147
110.5500 25.1748
110.6000 22.1980
110.6500 31.6380
110.7000 30.0743
110.7500 25.4290
110.8000 31.1864
110.8500 19.4225
110.9000 27.7334
110.9500 34.6803
111.0000 34.0650
111.0500 28.9778
111.1000 26.7003
111.1500 30.5257
111.2000 25.4967
111.2500 27.6984
111.3000 19.7822
111.3500 24.1382
111.4000 26.7999
111.4500 36.3594
111.5000 31.6500
111.5500 26.3252
111.6000 34.0690
111.6500 36.4180
111.7000 34.8011
111.7500 31.2120
111.8000 27.6002
111.8500 36.5215
111.9000 37.0207
111.9500 30.8084
112.0000 22.3156
112.0500 26.3541
112.1000 36.1514
112.1500 37.0846
112.2000 28.8849
112.2500 31.4685
112.3000 32.3432
112.3500 33.8525
112.4000 26.5100
112.4500 38.4036
112.5000 24.1613
112.5500 27.4470
112.6000 41.8169
112.6500 31.8162
112.7000 29.4713
112.7500 32.6621
112.8000 24.9462
112.8500 35.4033
112.9000 35.5903
112.9500 21.8363
113.0000 24.6070
113.0500 34.7171
113.1000 31.5135
113.1500 27.2777
113.2000 42.6098
113.2500 27.5709
113.3000 34.1586
113.3500 37.6184
113.4000 31.2217
113.4500 17.6681
113.5000 29.6755
113.5500 31.1017
113.6000 23.6964
113.6500 24.7668
113.7000 19.9172
113.7500 38.0016
113.8000 28.0214
113.8500 31.4210
113.9000 29.4342
113.9500 35.4902
114.0000 32.3256
114.0500 33.7493
114.1000 25.9001
114.1500 33.7318
114.2000 32.1246
114.2500 28.0378
114.3000 24.1507
114.3500 33.7282
114.4000 26.4930
114.4500 34.0032
114.5000 38.4010
114.5500 22.7560
114.6000 29.4599
114.6500 29.7738
114.7000 31.7816
114.7500 33.5727
114.8000 31.4459
114.8500 29.5697
114.9000 29.6156
114.9500 37.9558
115.0000 21.4224
115.0500 37.0608
115.1000 43.7791
115.1500 30.1184
115.2000 30.2644
115.2500 32.6263
115.3000 37.8524
115.3500 35.0005
115.4000 43.6388
115.4500 41.6988
115.5000 46.2723
115.5500 34.5810
115.6000 36.7772
115.6500 35.4522
115.7000 53.9861
115.7500 34.2358
115.8000 51.0341
115.8500 60.0803
115.9000 70.9615
115.9500 80.7573
116.0000 90.8161
116.0500 90.5471
116.1000 95.8388
116.1500 94.3216
116.2000 90.0134
116.2500 68.7418
116.3000 65.2319
116.3500 55.8151
116.4000 45.0843
116.4500 59.2437
116.5000 63.2531
116.5500 36.4578
116.6000 35.9319
116.6500 37.6310
116.7000 25.4680
116.7500 35.9561
116.8000 26.2973
116.8500 23.6450
116.9000 38.6185
116.9500 43.4261
117.0000 31.8468
117.0500 30.0862
117.1000 28.0222
117.1500 31.0891
117.2000 46.3750
117.2500 34.0309
117.3000 32.4360
117.3500 36.2905
117.4000 24.3230
117.4500 33.9773
117.5000 27.4918
117.5500 30.9195
117.6000 27.5224
117.6500 27.2538
117.7000 24.9949
117.7500 29.8519
117.8000 26.5912
117.8500 44.7259
117.9000 34.4964
117.9500 29.8507
118.0000 31.0504
118.0500 24.3723
118.1000 23.0662
118.1500 39.6710
118.2000 36.4501
118.2500 28.2419
118.3000 29.8545
118.3500 25.7602
118.4000 24.1927
118.4500 28.4199
118.5000 34.2531
118.5500 25.1661
118.6000 32.1703
118.6500 31.4772
118.7000 26.0840
118.7500 25.3759
118.8000 31.8237
118.8500 34.1436
118.9000 35.6689
118.9500 39.7130
119.0000 21.0344
119.0500 18.8197
119.1000 28.7826
119.1500 23.0472
119.2000 28.4659
119.2500 23.0143
119.3000 35.2483
119.3500 25.2108
119.4000 43.7020
119.4500 27.5129
119.5000 30.2545
119.5500 28.7858
119.6000 30.7649
119.6500 29.3346
119.7000 41.0804
119.7500 26.3949
119.8000 33.6299
119.8500 24.8929
119.9000 29.6035
119.9500 32.1728
120.0000 34.0747
120.0500 30.1869
120.1000 36.4426
120.1500 33.5846
120.2000 31.6052
120.2500 28.1925
120.3000 27.5348
120.3500 42.4741
120.4000 24.6732
120.4500 35.1958
120.5000 28.2635
120.5500 32.1507
120.6000 36.9488
120.6500 27.0901
120.7000 37.7390
120.7500 27.9172
120.8000 30.6266
120.8500 29.2877
120.9000 36.4150
120.9500 36.3455
121.0000 30.0004
121.0500 31.4678
121.1000 30.2014
121.1500 31.9845
121.2000 26.2794
121.2500 47.2679
121.3000 11.0325
121.3500 29.6951
121.4000 31.5193
121.4500 26.8247
121.5000 27.3850
121.5500 27.3834
121.6000 37.6371
121.6500 33.9243
121.7000 28.6048
121.7500 22.5493
121.8000 33.8615
121.8500 22.7799
121.9000 38.5556
121.9500 35.7609
122.0000 22.3308
122.0500 30.3363
122.1000 33.1234
122.1500 32.6360
122.2000 29.6901
122.2500 22.4165
122.3000 15.9276
122.3500 24.8450
122.4000 26.4353
122.4500 28.0465
122.5000 23.1165
122.5500 27.4306
122.6000 22.6490
122.6500 23.2243
122.7000 35.7702
122.7500 24.9308
122.8000 31.9118
122.8500 33.5418
122.9000 31.8076
122.9500 33.6313
123.0000 39.6160
123.0500 22.1803
123.1000 38.6598
123.1500 42.2697
123.2000 35.4310
123.2500 26.6724
123.3000 19.8017
123.3500 35.5158
123.4000 47.5502
123.4500 29.4781
123.5000 35.0903
123.5500 30.7284
123.6000 33.6209
123.6500 32.7679
123.7000 29.6940
123.7500 23.9056
123.8000 31.9235
123.8500 36.8453
123.9000 19.2826
123.9500 28.2186
124.0000 26.5181
124.0500 46.7240
124.1000 27.2170
124.1500 29.3276
124.2000 45.4593
124.2500 25.2924
124.3000 27.7770
124.3500 35.6655
124.4000 29.5852
124.4500 31.7055
124.5000 36.8376
124.5500 28.4181
124.6000 27.3389
124.6500 31.9607
124.7000 37.1430
124.7500 26.5732
124.8000 27.2075
124.8500 33.1239
124.9000 31.4094
124.9500 39.0198
125.0000 26.5484
125.0500 29.2961
125.1000 21.0645
125.1500 22.2133
125.2000 25.1699
125.2500 35.8594
125.3000 30.0519
125.3500 42.6145
125.4000 28.2249
125.4500 23.6444
125.5000 29.8335
125.5500 32.5746
125.6000 30.4283
125.6500 26.1206
125.7000 26.3654
125.7500 31.0231
125.8000 28.6534
125.8500 22.3654
125.9000 30.4063
125.9500 32.3856
126.0000 37.9276
126.0500 26.7058
126.1000 27.4598
126.1500 28.9503
126.2000 26.5253
126.2500 21.3579
126.3000 20.7558
126.3500 29.8420
126.4000 24.5293
126.4500 24.1346
126.5000 36.5260
126.5500 33.0531
126.6000 34.9094
126.6500 31.2737
126.7000 36.7663
126.7500 34.2906
126.8000 29.4545
126.8500 32.7297
126.9000 26.5990
126.9500 28.7132
127.0000 34.7531
127.0500 29.6994
127.1000 26.9784
127.1500 26.7863
127.2000 31.1248
127.2500 27.1066
127.3000 33.6483
127.3500 40.5065
127.4000 26.7158
127.4500 33.5333
127.5000 33.0377
127.5500 32.3929
127.6000 35.6955
127.6500 26.6244
127.7000 31.7829
127.7500 25.5783
127.8000 33.7715
127.8500 37.0175
127.9000 32.1354
127.9500 39.8465
128.0000 26.5685
128.0500 32.5780
128.1000 38.5018
128.1500 27.2125
128.2000 35.8050
128.2500 31.4649
128.3000 23.6873
128.3500 37.2274
128.4000 33.3428
128.4500 21.4706
128.5000 26.4107
128.5500 25.4542
128.6000 26.5200
128.6500 33.9539
128.7000 22.8503
128.7500 23.9797
128.8000 28.8081
128.8500 24.9307
128.9000 34.2024
128.9500 35.1939
129.0000 40.8483
129.0500 24.5405
129.1000 31.8308
129.1500 28.2145
129.2000 23.3251
129.2500 36.6299
129.3000 35.8668
129.3500 32.4380
129.4000 22.4164
129.4500 29.3704
129.5000 24.9735
129.5500 31.1728
129.6000 47.4528
129.6500 35.7543
129.7000 34.8647
129.7500 30.0720
129.8000 36.4644
129.8500 30.6729
129.9000 29.7770
129.9500 34.8968
130.0000 27.0918
