40.0000 50.9356
40.0500 39.5222
40.1000 33.7484
40.1500 43.5738
40.2000 40.8431
40.2500 39.9950
40.3000 41.5446
40.3500 42.5775
40.4000 34.6092
40.4500 42.6772
40.5000 39.5808
40.5500 41.0786
40.6000 43.3082
40.6500 33.7938
40.7000 31.8268
40.7500 30.6344
40.8000 36.0504
40.8500 33.0255
40.9000 33.2301
40.9500 43.1249
41.0000 45.9716
41.0500 43.7289
41.1000 42.2274
41.1500 38.9199
41.2000 32.3443
41.2500 38.2665
41.3000 46.3870
41.3500 32.2934
41.4000 38.3952
41.4500 38.9968
41.5000 40.7926
41.5500 36.4399
41.6000 36.2670
41.6500 31.5862
41.7000 34.9910
41.7500 46.1418
41.8000 38.0193
41.8500 29.2718
41.9000 34.7350
41.9500 29.7976
42.0000 21.8026
42.0500 28.1345
42.1000 41.1551
42.1500 31.6848
42.2000 20.0197
42.2500 37.4144
42.3000 37.8992
42.3500 37.4231
42.4000 43.2980
42.4500 35.6569
42.5000 28.9064
42.5500 41.2304
42.6000 36.4365
42.6500 34.3280
42.7000 29.1717
42.7500 31.3533
42.8000 50.4467
42.8500 45.7215
42.9000 43.4014
42.9500 36.9920
43.0000 34.1940
43.0500 33.9364
43.1000 38.0418
43.1500 38.1675
43.2000 39.6639
43.2500 36.2478
43.3000 36.4908
43.3500 42.4909
43.4000 43.5326
43.4500 39.0915
43.5000 47.1077
43.5500 44.2583
43.6000 41.0295
43.6500 45.1257
43.7000 42.0135
43.7500 40.4897
43.8000 40.7682
43.8500 43.0945
43.9000 56.2838
43.9500 40.4548
44.0000 57.8221
44.0500 62.2837
44.1000 85.4976
44.1500 101.5000
44.2000 163.5855
44.2500 378.0591
44.3000 1200.2189
44.3500 2137.2676
44.4000 2084.4243
44.4500 1432.0277
44.5000 451.7441
44.5500 180.4694
44.6000 84.3203
44.6500 65.9747
44.7000 61.0946
44.7500 48.0908
44.8000 51.1395
44.8500 42.0532
44.9000 42.8902
44.9500 42.5000
45.0000 44.9388
45.0500 40.4211
45.1000 37.9360
45.1500 31.1631
45.2000 42.8340
45.2500 27.0900
45.3000 43.8242
45.3500 45.8407
45.4000 36.6288
45.4500 46.5790
45.5000 37.9197
45.5500 44.4455
45.6000 31.2415
45.6500 33.0218
45.7000 36.2327
45.7500 31.4729
45.8000 25.1858
45.8500 35.4593
45.9000 32.2347
45.9500 28.0252
46.0000 25.1439
46.0500 42.0494
46.1000 31.8090
46.1500 43.1139
46.2000 38.3707
46.2500 37.3599
46.3000 50.2744
46.3500 26.9277
46.4000 33.0119
46.4500 41.8952
46.5000 33.7675
46.5500 42.3077
46.6000 34.4743
46.6500 36.8827
46.7000 42.5846
46.7500 34.3855
46.8000 38.2940
46.8500 35.5651
46.9000 33.7808
46.9500 43.1371
47.0000 33.7037
47.0500 37.8134
47.1000 34.0987
47.1500 38.6264
47.2000 39.7034
47.2500 34.5154
47.3000 47.9310
47.3500 35.7378
47.4000 40.2357
47.4500 26.9129
47.5000 35.4933
47.5500 39.0563
47.6000 32.4427
47.6500 45.3211
47.7000 31.7496
47.7500 36.7516
47.8000 34.2534
47.8500 32.8584
47.9000 37.3772
47.9500 29.2691
48.0000 38.9962
48.0500 39.9369
48.1000 36.8821
48.1500 38.5393
48.2000 42.7613
48.2500 30.7573
48.3000 35.0602
48.3500 33.7990
48.4000 31.3787
48.4500 29.8062
48.5000 35.9543
48.5500 30.3773
48.6000 35.3931
48.6500 30.4082
48.7000 32.3725
48.7500 26.4477
48.8000 26.9503
48.8500 24.3012
48.9000 33.9372
48.9500 34.8373
49.0000 31.2826
49.0500 35.5058
49.1000 31.1200
49.1500 35.6913
49.2000 29.3027
49.2500 28.3981
49.3000 25.0442
49.3500 35.4684
49.4000 35.3563
49.4500 33.0377
49.5000 31.8068
49.5500 32.0996
49.6000 24.0452
49.6500 35.8550
49.7000 37.4795
49.7500 40.8451
49.8000 39.2289
49.8500 25.0575
49.9000 43.3595
49.9500 39.0373
50.0000 37.9769
50.0500 43.4921
50.1000 31.7990
50.1500 31.5482
50.2000 28.2066
50.2500 32.4019
50.3000 25.4904
50.3500 31.2777
50.4000 39.6394
50.4500 34.3314
50.5000 31.1654
50.5500 33.4748
50.6000 20.9375
50.6500 34.1893
50.7000 35.7658
50.7500 34.2404
50.8000 19.3156
50.8500 40.0980
50.9000 39.9812
50.9500 33.1682
51.0000 41.9292
51.0500 30.1187
51.1000 42.1705
51.1500 32.1408
51.2000 36.9905
51.2500 42.3937
51.3000 35.7810
51.3500 28.2812
51.4000 34.2193
51.4500 41.2838
51.5000 28.0655
51.5500 40.0498
51.6000 38.9556
51.6500 36.3573
51.7000 30.9239
51.7500 22.9345
51.8000 40.1015
51.8500 36.7824
51.9000 26.6054
51.9500 42.2174
52.0000 35.9208
52.0500 22.1967
52.1000 37.0891
52.1500 24.4390
52.2000 32.1237
52.2500 38.2421
52.3000 33.1047
52.3500 40.0426
52.4000 25.0494
52.4500 36.5992
52.5000 28.2492
52.5500 36.8013
52.6000 28.4712
52.6500 39.5762
52.7000 33.8587
52.7500 28.8091
52.8000 41.7140
52.8500 44.2668
52.9000 32.9794
52.9500 37.5971
53.0000 30.0739
53.0500 27.1933
53.1000 30.7919
53.1500 41.4752
53.2000 27.5155
53.2500 21.1259
53.3000 27.2822
53.3500 31.0979
53.4000 32.6945
53.4500 33.2156
53.5000 22.7821
53.5500 44.8206
53.6000 33.7495
53.6500 23.1482
53.7000 26.8720
53.7500 31.3692
53.8000 40.8326
53.8500 29.6635
53.9000 31.3655
53.9500 32.7749
54.0000 29.6892
54.0500 37.1160
54.1000 23.3529
54.1500 38.2085
54.2000 34.8188
54.2500 25.0042
54.3000 33.2233
54.3500 21.1445
54.4000 34.4006
54.4500 39.7575
54.5000 28.3528
54.5500 18.6999
54.6000 38.7877
54.6500 33.1358
54.7000 30.4837
54.7500 29.6267
54.8000 53.9054
54.8500 43.1645
54.9000 37.4686
54.9500 32.1344
55.0000 30.8344
55.0500 38.6458
55.1000 29.6340
55.1500 45.8298
55.2000 29.8256
55.2500 41.3581
55.3000 32.9573
55.3500 36.8349
55.4000 32.6688
55.4500 35.1350
55.5000 30.9760
55.5500 46.0812
55.6000 30.0751
55.6500 37.0817
55.7000 23.2511
55.7500 32.1214
55.8000 35.3750
55.8500 26.3629
55.9000 29.4932
55.9500 31.2355
56.0000 34.4942
56.0500 25.6651
56.1000 21.1381
56.1500 28.2225
56.2000 31.1394
56.2500 26.8200
56.3000 29.8372
56.3500 24.7881
56.4000 33.9741
56.4500 33.6207
56.5000 36.7681
56.5500 37.3887
56.6000 37.9560
56.6500 26.9033
56.7000 36.4554
56.7500 29.4872
56.8000 31.9572
56.8500 34.0673
56.9000 28.3878
56.9500 30.7043
57.0000 31.5840
57.0500 30.6917
57.1000 39.5901
57.1500 33.7894
57.2000 35.5981
57.2500 28.0599
57.3000 28.7338
57.3500 26.5270
57.4000 29.3217
57.4500 36.8560
57.5000 32.5390
57.5500 30.7117
57.6000 26.3878
57.6500 31.1328
57.7000 35.8180
57.7500 36.5329
57.8000 36.4137
57.8500 43.0494
57.9000 25.2836
57.9500 28.9569
58.0000 34.9630
58.0500 26.8357
58.1000 26.4052
58.1500 33.3595
58.2000 29.1381
58.2500 23.1663
58.3000 38.9837
58.3500 33.2459
58.4000 33.8823
58.4500 28.9435
58.5000 25.9701
58.5500 29.7985
58.6000 30.9936
58.6500 23.5424
58.7000 25.5580
58.7500 33.7057
58.8000 35.4687
58.8500 37.3662
58.9000 24.6902
58.9500 36.3878
59.0000 22.9212
59.0500 26.2485
59.1000 27.0757
59.1500 40.1654
59.2000 36.7450
59.2500 23.6502
59.3000 30.1620
59.3500 23.7288
59.4000 25.8005
59.4500 39.4096
59.5000 33.3840
59.5500 33.6553
59.6000 31.0350
59.6500 36.6175
59.7000 20.3557
59.7500 24.4649
59.8000 30.0817
59.8500 34.5278
59.9000 36.3516
59.9500 32.4890
60.0000 35.9221
60.0500 29.1406
60.1000 23.3775
60.1500 28.2964
60.2000 44.0630
60.2500 31.5663
60.3000 30.2569
60.3500 21.1446
60.4000 31.6966
60.4500 29.6281
60.5000 31.3874
60.5500 27.7200
60.6000 33.9832
60.6500 25.3607
60.7000 29.0095
60.7500 34.2648
60.8000 28.4201
60.8500 25.6610
60.9000 25.9915
60.9500 49.2777
61.0000 41.5223
61.0500 34.6463
61.1000 24.2049
61.1500 31.2234
61.2000 42.6454
61.2500 32.5289
61.3000 37.2495
61.3500 34.2769
61.4000 34.4268
61.4500 31.6804
61.5000 35.1568
61.5500 33.6684
61.6000 29.3883
61.6500 24.2116
61.7000 25.9467
61.7500 24.9321
61.8000 35.1290
61.8500 32.9138
61.9000 41.8601
61.9500 26.5733
62.0000 30.7829
62.0500 30.0685
62.1000 31.9571
62.1500 30.2378
62.2000 32.9079
62.2500 40.5660
62.3000 25.0511
62.3500 28.9037
62.4000 41.2277
62.4500 32.3375
62.5000 17.0702
62.5500 35.7033
62.6000 26.9699
62.6500 36.2402
62.7000 32.4024
62.7500 33.2288
62.8000 43.0681
62.8500 31.2217
62.9000 27.1882
62.9500 33.1349
63.0000 25.2544
63.0500 30.2044
63.1000 31.4996
63.1500 36.6349
63.2000 31.4633
63.2500 42.3265
63.3000 33.0877
63.3500 28.2620
63.4000 35.3867
63.4500 30.1809
63.5000 27.8584
63.5500 27.8038
63.6000 34.1359
63.6500 36.3949
63.7000 35.0784
63.7500 28.6543
63.8000 33.4808
63.8500 35.8371
63.9000 39.1336
63.9500 24.4390
64.0000 29.6568
64.0500 27.5140
64.1000 32.1718
64.1500 36.1031
64.2000 39.4241
64.2500 37.4359
64.3000 30.7185
64.3500 33.9657
64.4000 36.8985
64.4500 48.7269
64.5000 66.2035
64.5500 68.3827
64.6000 94.0906
64.6500 131.2936
64.7000 151.8895
64.7500 146.8232
64.8000 87.8711
64.8500 87.3451
64.9000 49.5502
64.9500 42.7131
65.0000 42.0787
65.0500 41.8782
65.1000 36.0201
65.1500 29.8985
65.2000 29.1132
65.2500 33.4866
65.3000 35.2380
65.3500 28.4352
65.4000 21.9956
65.4500 20.9737
65.5000 26.7257
65.5500 31.6831
65.6000 33.8961
65.6500 30.6335
65.7000 33.2532
65.7500 32.7148
65.8000 31.9106
65.8500 25.7730
65.9000 31.1109
65.9500 30.5638
66.0000 41.9554
66.0500 31.8245
66.1000 40.1952
66.1500 28.7424
66.2000 32.6005
66.2500 37.2686
66.3000 35.2511
66.3500 34.0269
66.4000 37.7351
66.4500 31.4247
66.5000 23.5460
66.5500 29.8152
66.6000 26.8758
66.6500 26.1062
66.7000 39.6785
66.7500 32.0723
66.8000 37.7342
66.8500 41.8388
66.9000 24.5177
66.9500 36.7586
67.0000 30.9275
67.0500 35.4242
67.1000 29.9298
67.1500 32.6728
67.2000 25.6482
67.2500 34.1947
67.3000 29.2746
67.3500 38.3504
67.4000 28.0163
67.4500 27.6420
67.5000 28.7248
67.5500 29.5710
67.6000 22.7345
67.6500 37.2505
67.7000 38.3247
67.7500 24.3814
67.8000 31.1883
67.8500 27.9869
67.9000 31.9542
67.9500 37.8434
68.0000 33.9616
68.0500 25.0531
68.1000 33.2883
68.1500 31.6618
68.2000 27.3823
68.2500 30.0377
68.3000 33.1886
68.3500 32.9161
68.4000 38.7680
68.4500 31.9083
68.5000 20.6211
68.5500 28.0991
68.6000 41.5197
68.6500 20.0560
68.7000 27.1451
68.7500 24.1738
68.8000 31.8238
68.8500 34.6858
68.9000 33.5526
68.9500 24.1754
69.0000 34.3118
69.0500 33.1277
69.1000 34.0754
69.1500 33.4477
69.2000 22.2351
69.2500 27.0972
69.3000 23.0703
69.3500 28.8426
69.4000 32.7545
69.4500 31.9095
69.5000 29.1266
69.5500 39.8914
69.6000 36.2203
69.6500 40.3997
69.7000 25.2154
69.7500 31.2072
69.8000 32.6048
69.8500 27.1692
69.9000 37.3003
69.9500 30.8779
70.0000 32.7486
70.0500 30.1122
70.1000 27.9870
70.1500 31.3030
70.2000 37.9627
70.2500 27.6850
70.3000 23.7356
70.3500 31.2004
70.4000 34.6825
70.4500 33.9508
70.5000 24.3620
70.5500 23.5212
70.6000 32.8535
70.6500 30.7840
70.7000 46.2617
70.7500 31.3148
70.8000 32.3014
70.8500 31.2103
70.9000 28.7272
70.9500 29.2790
71.0000 27.5787
71.0500 33.1788
71.1000 24.1863
71.1500 34.0698
71.2000 34.7332
71.2500 25.5603
71.3000 23.4693
71.3500 33.9409
71.4000 34.8891
71.4500 24.8814
71.5000 37.2614
71.5500 27.8590
71.6000 21.7905
71.6500 27.0768
71.7000 36.1935
71.7500 40.6803
71.8000 32.7409
71.8500 31.6564
71.9000 43.3901
71.9500 39.3856
72.0000 28.2618
72.0500 32.4128
72.1000 32.6352
72.1500 26.9130
72.2000 30.7031
72.2500 28.3626
72.3000 26.6574
72.3500 29.2417
72.4000 24.6718
72.4500 31.8536
72.5000 34.6450
72.5500 33.9735
72.6000 23.3181
72.6500 28.5851
72.7000 38.4036
72.7500 50.2240
72.8000 35.0734
72.8500 22.6605
72.9000 34.1533
72.9500 30.5629
73.0000 28.9237
73.0500 27.0586
73.1000 39.9048
73.1500 27.8718
73.2000 40.4374
73.2500 41.6491
73.3000 27.9883
73.3500 32.4723
73.4000 28.3960
73.4500 18.8292
73.5000 34.2871
73.5500 36.6080
73.6000 30.2422
73.6500 27.0395
73.7000 30.3881
73.7500 31.0400
73.8000 33.3802
73.8500 38.9816
73.9000 33.2182
73.9500 34.2167
74.0000 18.5273
74.0500 30.7263
74.1000 23.3902
74.1500 28.3616
74.2000 31.1345
74.2500 46.4665
74.3000 30.6122
74.3500 27.7451
74.4000 28.5679
74.4500 34.3150
74.5000 28.3010
74.5500 27.7949
74.6000 37.9528
74.6500 36.8016
74.7000 33.8489
74.7500 32.0652
74.8000 27.1654
74.8500 26.5279
74.9000 31.2568
74.9500 30.8954
75.0000 41.2187
75.0500 34.1135
75.1000 30.3797
75.1500 37.9081
75.2000 25.1473
75.2500 23.2678
75.3000 26.4448
75.3500 45.6279
75.4000 44.8077
75.4500 36.3593
75.5000 30.3299
75.5500 21.8562
75.6000 29.8953
75.6500 27.8476
75.7000 33.5758
75.7500 42.6948
75.8000 30.8995
75.8500 26.0188
75.9000 30.2793
75.9500 34.2476
76.0000 37.9842
76.0500 40.8676
76.1000 34.4817
76.1500 31.6244
76.2000 36.5419
76.2500 34.9835
76.3000 27.6910
76.3500 32.2085
76.4000 27.6207
76.4500 34.6840
76.5000 31.9848
76.5500 27.4257
76.6000 24.7625
76.6500 34.1717
76.7000 33.2828
76.7500 28.1940
76.8000 24.0494
76.8500 38.7416
76.9000 31.1695
76.9500 31.0282
77.0000 32.2342
77.0500 27.5689
77.1000 35.1268
77.1500 32.1079
77.2000 39.3439
77.2500 27.0652
77.3000 29.4572
77.3500 30.8011
77.4000 29.0532
77.4500 30.6724
77.5000 33.5901
77.5500 24.9798
77.6000 33.8325
77.6500 25.8470
77.7000 30.2999
77.7500 26.3283
77.8000 25.7821
77.8500 33.3968
77.9000 33.6489
77.9500 27.7630
78.0000 37.0801
78.0500 35.2656
78.1000 30.8481
78.1500 31.8142
78.2000 32.4170
78.2500 42.0233
78.3000 30.7560
78.3500 40.9280
78.4000 33.9353
78.4500 22.3819
78.5000 37.2780
78.5500 28.4994
78.6000 31.4594
78.6500 31.4254
78.7000 23.9237
78.7500 23.9904
78.8000 28.9175
78.8500 32.1548
78.9000 27.3315
78.9500 34.0952
79.0000 37.8595
79.0500 33.2346
79.1000 35.6118
79.1500 35.7408
79.2000 32.6326
79.2500 28.3955
79.3000 37.1562
79.3500 35.8628
79.4000 36.3387
79.4500 31.7342
79.5000 36.5629
79.5500 28.2174
79.6000 35.6178
79.6500 31.7728
79.7000 23.1175
79.7500 30.8574
79.8000 36.2196
79.8500 37.7113
79.9000 26.9500
79.9500 34.6753
80.0000 29.5410
80.0500 25.4174
80.1000 36.4672
80.1500 27.2440
80.2000 36.1623
80.2500 19.1549
80.3000 25.9280
80.3500 29.7678
80.4000 38.9481
80.4500 23.1145
80.5000 20.5103
80.5500 40.0407
80.6000 30.2381
80.6500 49.3688
80.7000 25.6777
80.7500 38.3771
80.8000 34.8499
80.8500 26.7928
80.9000 37.3889
80.9500 31.7471
81.0000 36.0820
81.0500 18.5954
81.1000 30.4164
81.1500 37.4814
81.2000 26.5132
81.2500 27.5229
81.3000 29.8260
81.3500 35.7708
81.4000 46.3944
81.4500 29.3394
81.5000 26.1576
81.5500 34.5051
81.6000 50.3464
81.6500 46.5177
81.7000 44.1063
81.7500 56.6631
81.8000 79.8148
81.8500 131.4900
81.9000 221.0540
81.9500 310.0833
82.0000 255.2655
82.0500 221.0634
82.1000 122.4751
82.1500 81.7051
82.2000 61.9412
82.2500 43.5143
82.3000 44.7929
82.3500 33.7114
82.4000 30.8957
82.4500 29.0649
82.5000 29.9285
82.5500 45.4235
82.6000 32.5712
82.6500 19.6965
82.7000 37.0215
82.7500 27.5751
82.8000 35.6102
82.8500 30.9305
82.9000 27.4819
82.9500 32.5655
83.0000 34.1390
83.0500 37.4531
83.1000 34.9748
83.1500 32.3244
83.2000 31.5492
83.2500 32.3851
83.3000 25.7667
83.3500 36.6936
83.4000 24.3075
83.4500 27.1141
83.5000 33.2558
83.5500 16.2924
83.6000 30.7990
83.6500 28.8261
83.7000 38.9351
83.7500 31.4884
83.8000 25.0769
83.8500 34.6483
83.9000 24.8229
83.9500 31.3799
84.0000 26.5747
84.0500 33.1121
84.1000 29.4369
84.1500 25.9190
84.2000 23.5956
84.2500 20.3685
84.3000 22.4635
84.3500 42.7407
84.4000 33.7164
84.4500 40.3982
84.5000 30.6839
84.5500 28.1408
84.6000 22.4444
84.6500 30.1321
84.7000 29.5108
84.7500 38.4198
84.8000 32.4960
84.8500 25.1537
84.9000 23.1370
84.9500 34.3376
85.0000 25.0077
85.0500 35.9024
85.1000 28.9599
85.1500 27.1188
85.2000 27.2210
85.2500 23.4535
85.3000 36.3098
85.3500 28.3356
85.4000 25.9875
85.4500 37.8060
85.5000 28.4772
85.5500 25.2021
85.6000 35.9573
85.6500 33.0387
85.7000 27.2001
85.7500 39.2427
85.8000 22.7765
85.8500 27.9865
85.9000 26.2444
85.9500 26.4549
86.0000 35.9011
86.0500 29.2096
86.1000 29.9845
86.1500 32.7848
86.2000 30.1622
86.2500 25.7186
86.3000 21.2495
86.3500 38.7533
86.4000 30.6176
86.4500 24.9823
86.5000 31.3293
86.5500 20.1407
86.6000 27.2517
86.6500 35.7716
86.7000 28.8515
86.7500 35.0558
86.8000 35.9016
86.8500 31.5203
86.9000 27.7743
86.9500 30.8320
87.0000 26.0440
87.0500 19.9426
87.1000 30.2721
87.1500 33.2564
87.2000 22.9108
87.2500 30.9396
87.3000 37.8140
87.3500 35.6591
87.4000 20.9947
87.4500 21.9424
87.5000 31.6631
87.5500 17.2216
87.6000 37.0484
87.6500 39.4857
87.7000 33.8275
87.7500 31.9918
87.8000 36.6673
87.8500 34.0085
87.9000 24.0050
87.9500 28.6043
88.0000 27.2013
88.0500 23.0065
88.1000 30.4324
88.1500 30.1478
88.2000 31.7028
88.2500 30.9458
88.3000 28.8007
88.3500 26.8108
88.4000 27.3246
88.4500 23.2228
88.5000 32.5585
88.5500 31.5507
88.6000 32.9889
88.6500 21.1031
88.7000 36.0310
88.7500 27.9200
88.8000 22.3814
88.8500 32.4372
88.9000 30.1938
88.9500 26.6673
89.0000 26.9106
89.0500 31.5956
89.1000 26.9276
89.1500 23.6865
89.2000 34.5161
89.2500 27.4408
89.3000 30.1104
89.3500 33.8000
89.4000 37.1827
89.4500 35.6649
89.5000 29.7590
89.5500 35.7174
89.6000 28.7553
89.6500 37.9853
89.7000 28.0343
89.7500 39.0407
89.8000 24.2576
89.8500 40.6936
89.9000 38.2410
89.9500 38.8308
90.0000 29.1586
90.0500 34.5650
90.1000 28.9858
90.1500 37.6121
90.2000 34.6125
90.2500 26.7024
90.3000 28.6345
90.3500 28.8134
90.4000 27.6588
90.4500 30.5438
90.5000 31.5567
90.5500 22.5297
90.6000 26.7720
90.6500 36.7415
90.7000 29.3818
90.7500 30.3127
90.8000 29.8515
90.8500 33.0936
90.9000 30.7551
90.9500 26.1430
91.0000 26.1332
91.0500 24.8781
91.1000 24.2474
91.1500 21.6263
91.2000 36.8811
91.2500 23.2376
91.3000 28.3468
91.3500 24.8664
91.4000 35.1717
91.4500 36.0215
91.5000 26.7557
91.5500 28.6312
91.6000 30.4470
91.6500 28.5262
91.7000 32.3954
91.7500 29.2013
91.8000 29.1299
91.8500 31.4207
91.9000 33.1754
91.9500 35.9654
92.0000 33.0674
92.0500 25.7007
92.1000 38.8136
92.1500 33.7589
92.2000 37.4884
92.2500 36.8459
92.3000 28.7597
92.3500 30.1467
92.4000 38.8622
92.4500 28.2999
92.5000 30.0375
92.5500 26.3691
92.6000 37.8535
92.6500 28.1430
92.7000 31.5376
92.7500 26.3320
92.8000 26.0465
92.8500 25.1740
92.9000 30.7374
92.9500 23.1567
93.0000 17.6644
93.0500 21.2554
93.1000 29.8269
93.1500 26.8671
93.2000 27.3278
93.2500 36.6923
93.3000 34.7076
93.3500 27.9217
93.4000 29.9678
93.4500 23.5741
93.5000 36.6359
93.5500 26.0465
93.6000 30.1724
93.6500 28.2541
93.7000 28.5781
93.7500 24.4553
93.8000 31.0314
93.8500 42.1737
93.9000 23.0051
93.9500 29.0472
94.0000 25.3655
94.0500 29.3285
94.1000 26.8098
94.1500 32.3446
94.2000 33.3098
94.2500 25.9572
94.3000 30.8598
94.3500 24.9628
94.4000 33.7319
94.4500 27.2931
94.5000 26.9943
94.5500 44.2300
94.6000 25.5349
94.6500 23.2176
94.7000 25.8229
94.7500 31.4882
94.8000 26.0633
94.8500 28.7292
94.9000 31.8774
94.9500 34.3611
95.0000 26.2360
95.0500 28.3470
95.1000 38.6055
95.1500 24.9360
95.2000 31.3710
95.2500 33.2018
95.3000 28.3039
95.3500 35.1319
95.4000 29.3675
95.4500 34.5646
95.5000 34.0903
95.5500 31.0517
95.6000 24.2469
95.6500 38.1992
95.7000 31.4595
95.7500 36.4673
95.8000 24.4644
95.8500 18.6621
95.9000 34.0826
95.9500 34.6744
96.0000 24.4358
96.0500 33.2158
96.1000 23.9111
96.1500 25.1102
96.2000 20.5252
96.2500 26.7999
96.3000 37.0390
96.3500 25.6341
96.4000 22.2600
96.4500 29.6223
96.5000 32.2977
96.5500 30.3435
96.6000 40.7516
96.6500 41.4437
96.7000 32.5396
96.7500 38.1167
96.8000 30.1782
96.8500 32.2800
96.9000 39.5038
96.9500 31.9514
97.0000 37.1741
97.0500 31.2335
97.1000 32.9760
97.1500 25.8214
97.2000 27.8998
97.2500 29.3423
97.3000 36.2371
97.3500 31.3338
97.4000 26.5807
97.4500 31.0708
97.5000 32.5829
97.5500 30.8944
97.6000 31.6593
97.6500 30.4614
97.7000 32.2741
97.7500 32.3950
97.8000 26.3563
97.8500 31.7281
97.9000 27.6690
97.9500 32.8093
98.0000 29.3902
98.0500 40.9557
98.1000 34.0194
98.1500 30.7108
98.2000 29.0278
98.2500 42.3133
98.3000 49.2349
98.3500 65.6647
98.4000 77.2636
98.4500 107.6247
98.5000 158.0858
98.5500 164.0849
98.6000 121.7423
98.6500 93.9584
98.7000 66.7557
98.7500 54.6896
98.8000 46.7055
98.8500 46.4848
98.9000 38.6701
98.9500 40.3194
99.0000 39.3977
99.0500 39.3143
99.1000 41.2685
99.1500 26.2152
99.2000 29.2371
99.2500 32.3366
99.3000 30.7442
99.3500 36.2260
99.4000 27.7866
99.4500 25.6293
99.5000 34.1215
99.5500 33.1587
99.6000 28.1522
99.6500 28.8748
99.7000 32.2921
99.7500 31.0141
99.8000 30.1411
99.8500 25.8175
99.9000 14.7164
99.9500 25.5423
100.0000 25.6895
100.0500 26.4604
100.1000 28.2009
100.1500 40.6651
100.2000 28.2080
100.2500 31.3973
100.3000 31.5272
100.3500 18.0209
100.4000 22.7795
100.4500 38.5646
100.5000 28.8079
100.5500 37.3617
100.6000 43.8880
100.6500 32.0846
100.7000 22.3617
100.7500 25.7262
100.8000 34.7152
100.8500 24.8457
100.9000 24.9265
100.9500 31.9670
101.0000 29.8097
101.0500 21.4698
101.1000 29.7765
101.1500 30.2998
101.2000 24.8191
101.2500 29.8173
101.3000 36.6620
101.3500 40.8045
101.4000 30.3958
101.4500 31.5958
101.5000 28.9453
101.5500 29.6314
101.6000 34.6348
101.6500 33.2215
101.7000 22.3913
101.7500 30.5829
101.8000 33.2032
101.8500 27.3414
101.9000 33.5473
101.9500 28.7832
102.0000 37.4577
102.0500 24.3556
102.1000 38.0925
102.1500 31.3689
102.2000 28.7415
102.2500 30.0231
102.3000 27.9953
102.3500 32.2376
102.4000 37.3748
102.4500 32.8213
102.5000 31.8806
102.5500 23.4348
102.6000 36.3112
102.6500 31.5849
102.7000 36.4369
102.7500 23.3518
102.8000 36.1508
102.8500 32.5992
102.9000 30.3152
102.9500 23.7787
103.0000 30.2863
103.0500 23.8168
103.1000 26.7309
103.1500 29.2947
103.2000 21.6642
103.2500 34.3208
103.3000 32.5145
103.3500 31.2700
103.4000 27.5009
103.4500 33.4463
103.5000 28.8411
103.5500 37.3704
103.6000 37.3112
103.6500 19.6636
103.7000 31.3511
103.7500 29.7747
103.8000 40.1446
103.8500 33.5878
103.9000 30.6302
103.9500 25.0871
104.0000 29.1095
104.0500 32.5763
104.1000 28.4754
104.1500 32.3140
104.2000 24.0603
104.2500 24.5976
104.3000 24.0466
104.3500 30.4942
104.4000 33.1113
104.4500 31.1413
104.5000 29.4827
104.5500 27.8410
104.6000 27.5554
104.6500 33.4087
104.7000 28.0592
104.7500 39.7135
104.8000 30.1570
104.8500 28.3307
104.9000 31.9626
104.9500 32.2332
105.0000 36.1790
105.0500 33.8403
105.1000 20.5028
105.1500 23.6590
105.2000 25.4177
105.2500 24.5768
105.3000 47.8034
105.3500 31.8968
105.4000 30.2682
105.4500 22.1823
105.5000 32.2846
105.5500 34.2099
105.6000 29.1323
105.6500 36.6489
105.7000 24.6602
105.7500 30.2392
105.8000 41.0399
105.8500 33.2075
105.9000 31.1884
105.9500 29.2881
106.0000 30.0526
106.0500 28.9448
106.1000 32.5920
106.1500 39.2577
106.2000 30.4587
106.2500 22.9159
106.3000 25.4471
106.3500 30.1759
106.4000 25.3586
106.4500 37.0269
106.5000 29.5677
106.5500 24.0986
106.6000 27.1094
106.6500 33.0650
106.7000 22.7337
106.7500 25.0386
106.8000 32.5213
106.8500 42.4148
106.9000 33.0406
106.9500 19.9612
107.0000 30.1869
107.0500 26.8830
107.1000 32.3372
107.1500 30.3917
107.2000 33.2543
107.2500 26.2107
107.3000 27.8379
107.3500 39.5417
107.4000 30.3203
107.4500 23.7611
107.5000 29.4208
107.5500 43.2115
107.6000 35.4331
107.6500 30.8483
107.7000 31.0412
107.7500 26.6225
107.8000 34.8284
107.8500 21.9938
107.9000 29.4716
107.9500 34.1374
108.0000 24.7470
108.0500 25.4663
108.1000 33.1906
108.1500 28.7390
108.2000 30.4793
108.2500 36.4603
108.3000 25.5883
108.3500 36.0859
108.4000 28.1225
108.4500 27.3882
108.5000 36.2926
108.5500 34.5161
108.6000 28.9504
108.6500 28.7996
108.7000 28.5942
108.7500 22.3512
108.8000 31.4623
108.8500 18.2313
108.9000 32.4101
108.9500 27.4914
109.0000 36.4583
109.0500 29.3179
109.1000 33.4470
109.1500 31.5662
109.2000 25.1733
109.2500 27.6689
109.3000 31.5854
109.3500 24.4339
109.4000 45.9657
109.4500 26.9969
109.5000 24.9872
109.5500 30.4186
109.6000 35.1777
109.6500 37.8526
109.7000 35.3243
109.7500 24.5506
109.8000 30.2873
109.8500 37.6269
109.9000 31.8161
109.9500 40.1869
110.0000 26.8589
110.0500 24.5953
110.1000 37.4929
110.1500 28.5480
110.2000 39.5942
110.2500 31.6544
110.3000 32.7278
110.3500 36.5711
110.4000 25.5446
110.4500 28.0415
110.5000 17.8738
110.5500 32.5676
110.6000 32.2694
110.6500 31.0568
110.7000 34.0822
110.7500 29.6649
110.8000 28.7840
110.8500 26.5100
110.9000 28.1733
110.9500 29.8926
111.0000 26.3761
111.0500 22.5969
111.1000 43.6945
111.1500 32.8355
111.2000 25.7457
111.2500 22.2707
111.3000 29.7773
111.3500 29.7540
111.4000 31.5542
111.4500 31.5020
111.5000 35.2784
111.5500 42.8003
111.6000 33.5212
111.6500 31.9155
111.7000 32.0134
111.7500 38.7742
111.8000 43.4378
111.8500 27.9115
111.9000 34.7915
111.9500 28.7169
112.0000 25.6224
112.0500 21.2665
112.1000 32.1454
112.1500 26.1801
112.2000 26.9238
112.2500 20.0866
112.3000 26.4171
112.3500 26.5352
112.4000 29.5635
112.4500 33.2016
112.5000 23.8618
112.5500 27.6195
112.6000 22.6030
112.6500 46.0276
112.7000 32.8583
112.7500 39.8393
112.8000 34.6707
112.8500 33.5521
112.9000 32.8823
112.9500 36.1931
113.0000 34.6970
113.0500 40.8182
113.1000 42.1753
113.1500 28.9085
113.2000 27.7728
113.2500 32.4429
113.3000 22.3444
113.3500 23.6251
113.4000 33.2653
113.4500 15.7559
113.5000 33.6749
113.5500 38.1278
113.6000 41.5857
113.6500 37.0265
113.7000 31.7329
113.7500 38.6568
113.8000 35.0842
113.8500 39.5486
113.9000 31.1800
113.9500 31.8867
114.0000 24.3598
114.0500 32.7674
114.1000 34.8053
114.1500 37.4061
114.2000 20.6629
114.2500 27.4558
114.3000 26.0644
114.3500 31.0237
114.4000 32.4723
114.4500 23.1793
114.5000 33.1923
114.5500 31.9218
114.6000 40.1448
114.6500 32.8922
114.7000 26.3370
114.7500 31.5457
114.8000 28.2188
114.8500 34.2958
114.9000 27.9473
114.9500 39.3135
115.0000 34.4818
115.0500 24.9733
115.1000 33.9105
115.1500 36.0263
115.2000 31.5809
115.2500 23.1328
115.3000 36.9292
115.3500 30.6335
115.4000 30.7733
115.4500 31.4679
115.5000 43.9295
115.5500 44.0997
115.6000 48.6959
115.6500 50.9215
115.7000 68.4009
115.7500 80.0457
115.8000 87.4154
115.8500 108.3404
115.9000 114.9638
115.9500 111.7810
116.0000 110.0615
116.0500 74.3215
116.1000 83.3512
116.1500 52.3882
116.2000 53.7732
116.2500 59.2505
116.3000 48.9904
116.3500 37.7604
116.4000 44.7448
116.4500 44.5544
116.5000 41.3989
116.5500 38.7895
116.6000 39.4379
116.6500 41.0524
116.7000 35.6447
116.7500 34.0139
116.8000 34.6250
116.8500 28.1266
116.9000 36.8206
116.9500 38.2873
117.0000 32.3403
117.0500 32.6283
117.1000 25.1036
117.1500 36.7430
117.2000 37.0420
117.2500 40.1036
117.3000 35.8560
117.3500 23.5379
117.4000 26.6804
117.4500 37.9505
117.5000 30.7395
117.5500 35.0938
117.6000 27.8784
117.6500 21.8650
117.7000 27.1333
117.7500 29.7791
117.8000 26.9631
117.8500 37.1777
117.9000 33.9041
117.9500 24.0770
118.0000 34.3687
118.0500 33.6657
118.1000 29.6958
118.1500 36.0538
118.2000 31.4648
118.2500 24.6331
118.3000 32.9109
118.3500 35.8107
118.4000 36.4233
118.4500 33.5419
118.5000 22.7065
118.5500 27.8921
118.6000 24.1224
118.6500 24.8033
118.7000 38.6140
118.7500 30.7473
118.8000 21.9899
118.8500 35.4974
118.9000 42.3674
118.9500 33.0889
119.0000 31.9512
119.0500 28.3764
119.1000 26.8362
119.1500 30.4222
119.2000 30.5164
119.2500 26.7586
119.3000 23.0958
119.3500 38.6090
119.4000 24.9150
119.4500 29.4472
119.5000 36.0986
119.5500 24.9215
119.6000 28.9165
119.6500 34.2062
119.7000 29.0564
119.7500 36.7448
119.8000 28.1931
119.8500 37.5816
119.9000 43.7739
119.9500 33.1770
120.0000 26.3266
120.0500 29.3829
120.1000 36.9532
120.1500 31.2450
120.2000 26.8142
120.2500 28.3821
120.3000 44.2413
120.3500 33.5009
120.4000 33.0259
120.4500 33.8414
120.5000 37.6885
120.5500 38.5202
120.6000 35.9567
120.6500 33.2007
120.7000 27.9921
120.7500 35.2931
120.8000 27.6556
120.8500 25.4616
120.9000 33.5348
120.9500 31.4086
121.0000 31.5002
121.0500 30.4466
121.1000 37.9321
121.1500 39.2278
121.2000 35.0821
121.2500 29.4356
121.3000 23.0441
121.3500 28.7597
121.4000 19.8492
121.4500 31.5735
121.5000 35.0162
121.5500 29.2013
121.6000 25.2284
121.6500 23.2508
121.7000 29.7184
121.7500 27.2303
121.8000 36.9570
121.8500 35.3207
121.9000 32.9284
121.9500 35.8497
122.0000 31.4160
122.0500 22.4220
122.1000 37.4013
122.1500 25.6905
122.2000 32.7790
122.2500 31.8354
122.3000 27.2452
122.3500 22.6426
122.4000 26.5401
122.4500 28.0550
122.5000 27.5229
122.5500 24.7023
122.6000 31.5340
122.6500 33.6627
122.7000 31.3315
122.7500 41.8037
122.8000 25.4925
122.8500 26.1792
122.9000 28.6337
122.9500 39.8707
123.0000 30.3803
123.0500 34.1255
123.1000 33.1897
123.1500 21.7719
123.2000 29.6942
123.2500 37.4173
123.3000 31.9857
123.3500 24.7408
123.4000 36.3778
123.4500 30.9067
123.5000 26.6463
123.5500 22.6434
123.6000 33.6390
123.6500 34.1829
123.7000 25.0275
123.7500 29.2178
123.8000 22.8117
123.8500 38.6781
123.9000 36.4845
123.9500 24.0304
124.0000 27.3428
124.0500 35.7968
124.1000 44.5659
124.1500 30.2862
124.2000 33.8518
124.2500 17.3167
124.3000 30.8406
124.3500 24.9621
124.4000 25.1455
124.4500 20.6193
124.5000 35.2270
124.5500 29.8687
124.6000 29.3794
124.6500 29.4785
124.7000 32.1964
124.7500 30.1785
124.8000 23.7131
124.8500 29.0264
124.9000 32.8260
124.9500 30.9612
125.0000 31.8072
125.0500 28.5798
125.1000 30.0773
125.1500 30.2488
125.2000 34.0662
125.2500 21.6990
125.3000 28.5267
125.3500 30.4546
125.4000 32.5739
125.4500 32.9924
125.5000 41.6797
125.5500 23.6287
125.6000 25.6995
125.6500 20.2524
125.7000 29.4351
125.7500 28.1907
125.8000 30.4944
125.8500 27.5518
125.9000 22.1127
125.9500 20.3330
126.0000 37.6771
126.0500 32.8972
126.1000 25.6060
126.1500 21.7135
126.2000 30.1835
126.2500 34.1182
126.3000 36.8337
126.3500 34.4554
126.4000 21.7164
126.4500 33.1319
126.5000 27.8678
126.5500 29.9054
126.6000 29.9069
126.6500 33.4483
126.7000 30.8655
126.7500 40.6392
126.8000 22.3186
126.8500 25.5540
126.9000 26.3833
126.9500 21.2039
127.0000 24.3510
127.0500 27.2139
127.1000 24.0591
127.1500 30.0862
127.2000 24.6364
127.2500 30.4829
127.3000 30.0822
127.3500 23.4667
127.4000 36.4908
127.4500 23.8501
127.5000 40.2129
127.5500 39.6479
127.6000 21.3204
127.6500 34.0361
127.7000 23.4746
127.7500 34.9262
127.8000 19.9038
127.8500 16.0330
127.9000 24.8987
127.9500 30.3202
128.0000 38.8016
128.0500 47.3451
128.1000 43.3068
128.1500 37.2383
128.2000 32.7545
128.2500 33.9538
128.3000 36.1826
128.3500 39.1068
128.4000 33.7037
128.4500 24.7895
128.5000 39.4812
128.5500 34.7766
128.6000 41.8434
128.6500 35.1221
128.7000 24.2698
128.7500 32.0283
128.8000 27.5839
128.8500 36.7251
128.9000 37.6768
128.9500 38.5532
129.0000 31.3017
129.0500 33.9382
129.1000 29.6785
129.1500 39.6996
129.2000 38.8396
129.2500 38.4933
129.3000 28.4200
129.3500 24.1934
129.4000 33.8260
129.4500 37.5665
129.5000 27.4172
129.5500 19.4975
129.6000 32.6358
129.6500 30.1455
129.7000 41.2981
129.7500 31.8841
129.8000 24.8126
129.8500 21.3387
129.9000 32.0718
129.9500 26.5806
130.0000 9.3164
