40 50.9356 7.13691810237444
40.05 39.5222 6.2866684340754
40.1 33.7484 5.80933731160448
40.15 43.5738 6.60104537175742
40.2 40.8431 6.39086066191401
40.25 39.995 6.32416002327582
40.3 41.5446 6.44551006515388
40.35 42.5775 6.52514367657908
40.4 34.6092 5.88295843942484
40.45 42.6772 6.53277888803838
40.5 39.5808 6.29132736391932
40.55 41.0786 6.4092589275204
40.6 43.3082 6.58089659544959
40.65 33.7938 5.81324350083497
40.7 31.8268 5.64152461662625
40.75 30.6344 5.53483513756282
40.8 36.0504 6.0041985310281
40.85 33.0255 5.74678170805191
40.9 33.2301 5.76455549023513
40.95 43.1249 6.56695515440756
41 45.9716 6.78023598409377
41.05 43.7289 6.61278307522635
41.1 42.2274 6.49826130591868
41.15 38.9199 6.23858156955569
41.2 32.3443 5.68720493740115
41.25 38.2665 6.1859922405383
41.3 46.387 6.81080024666705
41.35 32.2934 5.68272821803049
41.4 38.3952 6.19638604349342
41.45 38.9968 6.24474178809661
41.5 40.7926 6.38690848533154
41.55 36.4399 6.03654702623942
41.6 36.267 6.02220889707423
41.65 31.5862 5.62016014006718
41.7 34.991 5.91531909536586
41.75 46.1418 6.79277557409341
41.8 38.0193 6.16597924096408
41.85 29.2718 5.41034194852784
41.9 34.735 5.89364064055487
41.95 29.7976 5.45871779816469
42 21.8026 4.66932543307917
42.05 28.1345 5.30419645186714
42.1 41.1551 6.41522408026407
42.15 31.6848 5.62892529707048
42.2 20.0197 4.47433793985211
42.25 37.4144 6.11673115315689
42.3 37.8992 6.15623261418865
42.35 37.4231 6.1174422759843
42.4 43.298 6.58012157942389
42.45 35.6569 5.97133988314181
42.5 28.9064 5.37646724160019
42.55 41.2304 6.42109025010551
42.6 36.4365 6.03626540171984
42.65 34.328 5.85901015530781
42.7 29.1717 5.40108322468743
42.75 31.3533 5.59940175375906
42.8 50.4467 7.10258403681364
42.85 45.7215 6.76176752040471
42.9 43.4014 6.58797389187298
42.95 36.992 6.08210489879943
43 34.194 5.84756359520784
43.05 33.9364 5.82549568706389
43.1 38.0418 6.16780349881544
43.15 38.1675 6.17798510843139
43.2 39.6639 6.29792823077558
43.25 36.2478 6.02061458656838
43.3 36.4908 6.04076154139526
43.35 42.4909 6.51850442969858
43.4 43.5326 6.59792391589961
43.45 39.0915 6.25231956956776
43.5 47.1077 6.86350493552675
43.55 44.2583 6.65269118477628
43.6 41.0295 6.40542738620929
43.65 45.1257 6.71756652367507
43.7 42.0135 6.48178216233776
43.75 40.4897 6.36315173479307
43.8 40.7682 6.38499804228631
43.85 43.0945 6.56464012722708
43.9 56.2838 7.50225299493426
43.95 40.4548 6.3604087918938
44 57.8221 7.60408442877905
44.05 62.2837 7.89200228079034
44.1 85.4976 9.24649122640583
44.15 101.5 10.0747208398049
44.2 163.5855 12.7900547301409
44.25 378.0591 19.443741923817
44.3 1200.2189 34.6441755566502
44.35 2137.2676 46.2305916033961
44.4 2084.4243 45.6554958356604
44.45 1432.0277 37.8421418527017
44.5 451.7441 21.2542725116622
44.55 180.4694 13.4338899801956
44.6 84.3203 9.18260856184124
44.65 65.9747 8.12248114802368
44.7 61.0946 7.8163034741494
44.75 48.0908 6.93475305977077
44.8 51.1395 7.15118871237503
44.85 42.0532 6.48484386859082
44.9 42.8902 6.54906100139554
44.95 42.5 6.51920240520265
45 44.9388 6.70364080183299
45.05 40.4211 6.35775903915837
45.1 37.936 6.15922072993005
45.15 31.1631 5.58239196044133
45.2 42.834 6.54476890348315
45.25 27.09 5.20480547186924
45.3 43.8242 6.61998489424258
45.35 45.8407 6.77057604639369
45.4 36.6288 6.05217316341824
45.45 46.579 6.82488095134267
45.5 37.9197 6.15789736842049
45.55 44.4455 6.66674583286329
45.6 31.2415 5.5894096289322
45.65 33.0218 5.74645977972525
45.7 36.2327 6.01936043114217
45.75 31.4729 5.61007130079467
45.8 25.1858 5.01854560604963
45.85 35.4593 5.95477119627614
45.9 32.2347 5.67756109610456
45.95 28.0252 5.29388326278546
46 25.1439 5.01436935217182
46.05 42.0494 6.48455087110896
46.1 31.809 5.63994680825981
46.15 43.1139 6.56611757433569
46.2 38.3707 6.19440876920469
46.25 37.3599 6.11227453571909
46.3 50.2744 7.09044427380965
46.35 26.9277 5.18919068834438
46.4 33.0119 5.74559831523228
46.45 41.8952 6.47265015275814
46.5 33.7675 5.81098098430893
46.55 42.3077 6.50443694719228
46.6 34.4743 5.87148192537455
46.65 36.8827 6.07311287561824
46.7 42.5846 6.52568770322332
46.75 34.3855 5.86391507441914
46.8 38.294 6.18821460519914
46.85 35.5651 5.96364821229422
46.9 33.7808 5.81212525673699
46.95 43.1371 6.56788398192294
47 33.7037 5.80548878217847
47.05 37.8134 6.14926011809551
47.1 34.0987 5.83940921669307
47.15 38.6264 6.21501407882557
47.2 39.7034 6.30106340231552
47.25 34.5154 5.87498085103262
47.3 47.931 6.92322179335604
47.35 35.7378 5.97811006924429
47.4 40.2357 6.34316167222624
47.45 26.9129 5.18776445109066
47.5 35.4933 5.95762536586516
47.55 39.0563 6.24950398031716
47.6 32.4427 5.69584936598573
47.65 45.3211 6.73209477057476
47.7 31.7496 5.63467834042015
47.75 36.7516 6.06230979083055
47.8 34.2534 5.85264042975476
47.85 32.8584 5.73222469901521
47.9 37.3772 6.11368955705145
47.95 29.2691 5.41009242065235
48 38.9962 6.24469374749475
48.05 39.9369 6.31956485843764
48.1 36.8821 6.07306347735638
48.15 38.5393 6.20800289948386
48.2 42.7613 6.53921249081264
48.25 30.7573 5.54592643297763
48.3 35.0602 5.92116542582624
48.35 33.799 5.81369073824881
48.4 31.3787 5.60166939402889
48.45 29.8062 5.45950547211009
48.5 35.9543 5.99619045728202
48.55 30.3773 5.5115605775497
48.6 35.3931 5.94921003159243
48.65 30.4082 5.51436306385425
48.7 32.3725 5.68968364674171
48.75 26.4477 5.14273273659054
48.8 26.9503 5.19136783516637
48.85 24.3012 4.92962473216775
48.9 33.9372 5.82556435034409
48.95 34.8373 5.90231310589332
49 31.2826 5.59308501633937
49.05 35.5058 5.9586743492156
49.1 31.12 5.57853027239254
49.15 35.6913 5.97421961430947
49.2 29.3027 5.4131968373596
49.25 28.3981 5.32898677048461
49.3 25.0442 5.00441804808511
49.35 35.4684 5.9555352404297
49.4 35.3563 5.94611637962124
49.45 33.0377 5.74784307371035
49.5 31.8068 5.63975176758694
49.55 32.0996 5.66565088935067
49.6 24.0452 4.90359052124053
49.65 35.855 5.98790447485596
49.7 37.4795 6.12205031014937
49.75 40.8451 6.39101713344597
49.8 39.2289 6.26329785336767
49.85 25.0575 5.00574669754673
49.9 43.3595 6.58479308710608
49.95 39.0373 6.2479836747546
50 37.9769 6.16254006072172
50.05 43.4921 6.59485405448824
50.1 31.799 5.63906020538884
50.15 31.5482 5.61677843607882
50.2 28.2066 5.31098860853608
50.25 32.4019 5.69226668384397
50.3 25.4904 5.04880183806019
50.35 31.2777 5.59264695828371
50.4 39.6394 6.29598284622822
50.45 34.3314 5.85930029952383
50.5 31.1654 5.58259796152293
50.55 33.4748 5.78574109341232
50.6 20.9375 4.57575130443078
50.65 34.1893 5.84716170462217
50.7 35.7658 5.98045148797313
50.75 34.2404 5.85152971452765
50.8 19.3156 4.39495164933586
50.85 40.098 6.33229816101548
50.9 39.9812 6.32306887515864
50.95 33.1682 5.75918396997352
51 41.9292 6.47527605589136
51.05 30.1187 5.48805065574289
51.1 42.1705 6.49388173591112
51.15 32.1408 5.6692856692885
51.2 36.9905 6.08198158497705
51.25 42.3937 6.51104446306428
51.3 35.781 5.98172216004722
51.35 28.2812 5.31800714553864
51.4 34.2193 5.84972648933264
51.45 41.2838 6.42524707696132
51.5 28.0655 5.2976881750439
51.55 40.0498 6.32849113138353
51.6 38.9556 6.24144214104401
51.65 36.3573 6.02970148514833
51.7 30.9239 5.56092618185137
51.75 22.9345 4.78899780747496
51.8 40.1015 6.33257451594531
51.85 36.7824 6.06484954471255
51.9 26.6054 5.15804226427043
51.95 42.2174 6.49749182377323
52 35.9208 5.9933963660015
52.05 22.1967 4.71133738974402
52.1 37.0891 6.09008210125282
52.15 24.439 4.94358169751446
52.2 32.1237 5.66777734213333
52.25 38.2421 6.18401972829971
52.3 33.1047 5.75366839503286
52.35 40.0426 6.32792224983841
52.4 25.0494 5.0049375620481
52.45 36.5992 6.04972726657987
52.5 28.2492 5.31499764816505
52.55 36.8013 6.06640750362189
52.6 28.4712 5.33584107709366
52.65 39.5762 6.2909617706675
52.7 33.8587 5.81882290502126
52.75 28.8091 5.36741092147788
52.8 41.714 6.45863762723997
52.85 44.2668 6.65332999331913
52.9 32.9794 5.74276936677767
52.95 37.5971 6.13164741321613
53 30.0739 5.48396754184413
53.05 27.1933 5.21471955142364
53.1 30.7919 5.54904496287424
53.15 41.4752 6.44012422240441
53.2 27.5155 5.24552189967786
53.25 21.1259 4.59629198376256
53.3 27.2822 5.22323654451912
53.35 31.0979 5.57654911213019
53.4 32.6945 5.71791045750106
53.45 33.2156 5.76329766713468
53.5 22.7821 4.77305981525478
53.55 44.8206 6.69481889224794
53.6 33.7495 5.80943198600345
53.65 23.1482 4.81125763184638
53.7 26.872 5.18382098456341
53.75 31.3692 5.60082136833518
53.8 40.8326 6.3900391235109
53.85 29.6635 5.44642084308585
53.9 31.3655 5.60049104989911
53.95 32.7749 5.72493668087255
54 29.6892 5.44877967989164
54.05 37.116 6.09229020976513
54.1 23.3529 4.83248383339251
54.15 38.2085 6.18130245174915
54.2 34.8188 5.90074571558545
54.25 25.0042 5.00041998236148
54.3 33.2233 5.7639656487526
54.35 21.1445 4.59831490874646
54.4 34.4006 5.8652024687985
54.45 39.7575 6.30535486709511
54.5 28.3528 5.32473473517696
54.55 18.6999 4.32433809964022
54.6 38.7877 6.22797719970136
54.65 33.1358 5.75637038419176
54.7 30.4837 5.52120457871287
54.75 29.6267 5.44304142920114
54.8 53.9054 7.34202969212193
54.85 43.1645 6.56996955852917
54.9 37.4686 6.12116002078038
54.95 32.1344 5.6687211961782
55 30.8344 5.55287313019125
55.05 38.6458 6.21657461951516
55.1 29.634 5.4437119688683
55.15 45.8298 6.76977104487294
55.2 29.8256 5.46128190079948
55.25 41.3581 6.43102635665568
55.3 32.9573 5.74084488555474
55.35 36.8349 6.06917622087215
55.4 32.6688 5.71566269123712
55.45 35.135 5.92747838460842
55.5 30.976 5.56560868189635
55.55 46.0812 6.78831348716307
55.6 30.0751 5.48407695059068
55.65 37.0817 6.08947452576985
55.7 23.2511 4.82193944383378
55.75 32.1214 5.66757443709388
55.8 35.375 5.94768862668516
55.85 26.3629 5.13448147333302
55.9 29.4932 5.43076421878174
55.95 31.2355 5.58887287384496
56 34.4942 5.87317631269486
56.05 25.6651 5.06607343018239
56.1 21.1381 4.59761894897783
56.15 28.2225 5.31248529409729
56.2 31.1394 5.58026881072946
56.25 26.82 5.17880295048962
56.3 29.8372 5.46234381927758
56.35 24.7881 4.97876490708288
56.4 33.9741 5.82873056505445
56.45 33.6207 5.79833596818949
56.5 36.7681 6.06367050556014
56.55 37.3887 6.11462999698265
56.6 37.956 6.16084409801125
56.65 26.9033 5.18683911452823
56.7 36.4554 6.03783073628269
56.75 29.4872 5.43021178224202
56.8 31.9572 5.65306996241865
56.85 34.0673 5.83671996929782
56.9 28.3878 5.32802027023171
56.95 30.7043 5.54114609083717
57 31.584 5.61996441269871
57.05 30.6917 5.54000902526341
57.1 39.5901 6.29206643321572
57.15 33.7894 5.81286504230057
57.2 35.5981 5.96641433358428
57.25 28.0599 5.29715961624718
57.3 28.7338 5.36039177672677
57.35 26.527 5.15043687467384
57.4 29.3217 5.41495152332872
57.45 36.856 6.07091426393093
57.5 32.539 5.70429662622834
57.55 30.7117 5.54181378250839
57.6 26.3878 5.13690568338567
57.65 31.1328 5.57967741003008
57.7 35.818 5.98481411574328
57.75 36.5329 6.04424519687942
57.8 36.4137 6.03437652123233
57.85 43.0494 6.5612041577747
57.9 25.2836 5.02828002402412
57.95 28.9569 5.38116158463951
58 34.963 5.91295188547987
58.05 26.8357 5.18031852302539
58.1 26.4052 5.13859903086435
58.15 33.3595 5.77576834715521
58.2 29.1381 5.3979718413493
58.25 23.1663 4.81313826936231
58.3 38.9837 6.24369281755597
58.35 33.2459 5.76592577128773
58.4 33.8823 5.82085045332725
58.45 28.9435 5.37991635622711
58.5 25.9701 5.09608673395577
58.55 29.7985 5.45880023448376
58.6 30.9936 5.56718959619663
58.65 23.5424 4.8520511126739
58.7 25.558 5.05549206309336
58.75 33.7057 5.80566103040817
58.8 35.4687 5.95556042702952
58.85 37.3662 6.11278987042741
58.9 24.6902 4.96892342464643
58.95 36.3878 6.03223010171197
59 22.9212 4.78760900659191
59.05 26.2485 5.12332899587758
59.1 27.0757 5.20343156003805
59.15 40.1654 6.33761784900289
59.2 36.745 6.06176541941372
59.25 23.6502 4.86314712917469
59.3 30.162 5.49199417333995
59.35 23.7288 4.87122161269635
59.4 25.8005 5.07941925814359
59.45 39.4096 6.27770658760028
59.5 33.384 5.77788888782053
59.55 33.6553 5.80131881557978
59.6 31.035 5.57090656895267
59.65 36.6175 6.05123954244087
59.7 20.3557 4.51172915853778
59.75 24.4649 4.9462005620476
59.8 30.0817 5.48467865968463
59.85 34.5278 5.87603607885452
59.9 36.3516 6.02922880640634
59.95 32.489 5.69991228002677
60 35.9221 5.99350481771726
60.05 29.1406 5.39820340483758
60.1 23.3775 4.83502843838586
60.15 28.2964 5.31943606033572
60.2 44.063 6.63799668574789
60.25 31.5663 5.61838944894353
60.3 30.2569 5.50062723696125
60.35 21.1446 4.59832578228207
60.4 31.6966 5.62997335695294
60.45 29.6281 5.44317003225143
60.5 31.3874 5.60244589442861
60.55 27.72 5.26497863243527
60.6 33.9832 5.82951112873112
60.65 25.3607 5.03594082570477
60.7 29.0095 5.38604678776559
60.75 34.2648 5.85361426812529
60.8 28.4201 5.3310505531274
60.85 25.661 5.06566876137791
60.9 25.9915 5.09818595188524
60.95 49.2777 7.01980768967356
61 41.5223 6.44377994658415
61.05 34.6463 5.88611077027947
61.1 24.2049 4.91984755861399
61.15 31.2234 5.5877902609171
61.2 42.6454 6.53034455446265
61.25 32.5289 5.70341125993909
61.3 37.2495 6.10323684613337
61.35 34.2769 5.85464772637944
61.4 34.4268 5.86743555567507
61.45 31.6804 5.62853444512868
61.5 35.1568 5.92931699270666
61.55 33.6684 5.80244775935122
61.6 29.3883 5.42109767482564
61.65 24.2116 4.92052842690701
61.7 25.9467 5.0937903372636
61.75 24.9321 4.99320538331841
61.8 35.129 5.92697224559049
61.85 32.9138 5.73705499363567
61.9 41.8601 6.46993817590246
61.95 26.5733 5.15492967944278
62 30.7829 5.54823395325035
62.05 30.0685 5.48347517547039
62.1 31.9571 5.65306111766006
62.15 30.2378 5.49889079724266
62.2 32.9079 5.73654076948818
62.25 40.566 6.36914436953662
62.3 25.0511 5.00510739145525
62.35 28.9037 5.37621614148836
62.4 41.2277 6.4208800019935
62.45 32.3375 5.68660707276316
62.5 17.0702 4.1316098557342
62.55 35.7033 5.97522384517936
62.6 26.9699 5.19325524117581
62.65 36.2402 6.0199833886814
62.7 32.4024 5.69231060290986
62.75 33.2288 5.76444273108858
62.8 43.0681 6.56262904635025
62.85 31.2217 5.58763814146908
62.9 27.1882 5.2142305280837
62.95 33.1349 5.75629220940008
63 25.2544 5.02537560785261
63.05 30.2044 5.49585298202199
63.1 31.4996 5.61245044521553
63.15 36.6349 6.05267709365038
63.2 31.4633 5.60921563144082
63.25 42.3265 6.50588195404743
63.3 33.0877 5.75219088695777
63.35 28.262 5.31620165155537
63.4 35.3867 5.94867212073417
63.45 30.1809 5.49371459032957
63.5 27.8584 5.27810572080552
63.55 27.8038 5.27293087381202
63.6 34.1359 5.84259360215992
63.65 36.3949 6.03281857840927
63.7 35.0784 5.92270208604147
63.75 28.6543 5.35297113760199
63.8 33.4808 5.7862595862958
63.85 35.8371 5.9864096084381
63.9 39.1336 6.25568541408533
63.95 24.439 4.94358169751446
64 29.6568 5.44580572551023
64.05 27.514 5.24537891862923
64.1 32.1718 5.67201904087072
64.15 36.1031 6.00858552406471
64.2 39.4241 6.27886136174386
64.25 37.4359 6.11848837540777
64.3 30.7185 5.54242726609921
64.35 33.9657 5.82800995194758
64.4 36.8985 6.07441355194063
64.45 48.7269 6.98046560051692
64.5 66.2035 8.13655332435055
64.55 68.3827 8.26938329018555
64.6 94.0906 9.70003092778575
64.65 131.2936 11.4583419393907
64.7 151.8895 12.3243458244241
64.75 146.8232 12.1170623502564
64.8 87.8711 9.3739586088269
64.85 87.3451 9.34586004603108
64.9 49.5502 7.03919029434494
64.95 42.7131 6.53552599260381
65 42.0787 6.48680969352424
65.05 41.8782 6.47133680161989
65.1 36.0201 6.00167476626316
65.15 29.8985 5.46795208464741
65.2 29.1132 5.3956649265869
65.25 33.4866 5.78676075192331
65.3 35.238 5.93616037519203
65.35 28.4352 5.33246659623855
65.4 21.9956 4.68994669479302
65.45 20.9737 4.57970523068898
65.5 26.7257 5.16969051298044
65.55 31.6831 5.62877428931024
65.6 33.8961 5.82203572644483
65.65 30.6335 5.534753833731
65.7 33.2532 5.76655876584987
65.75 32.7148 5.71968530602865
65.8 31.9106 5.64894680449374
65.85 25.773 5.0767115340543
65.9 31.1109 5.57771458574209
65.95 30.5638 5.52845367168795
66 41.9554 6.47729881972416
66.05 31.8245 5.64132076733809
66.1 40.1952 6.33996845418019
66.15 28.7424 5.36119389688528
66.2 32.6005 5.70968475487045
66.25 37.2686 6.10480138907074
66.3 35.2511 5.93726367950759
66.35 34.0269 5.83325809475288
66.4 37.7351 6.14289019924661
66.45 31.4247 5.60577380920779
66.5 23.546 4.85242207562368
66.55 29.8152 5.46032966037766
66.6 26.8758 5.18418749660928
66.65 26.1062 5.10942266797336
66.7 39.6785 6.29908723546515
66.75 32.0723 5.66324112147805
66.8 37.7342 6.14281694339006
66.85 41.8388 6.46829189199127
66.9 24.5177 4.95153511549701
66.95 36.7586 6.06288710104353
67 30.9275 5.56124985951899
67.05 35.4242 5.9518232500638
67.1 29.9298 5.47081346784918
67.15 32.6728 5.71601259620726
67.2 25.6482 5.06440519705918
67.25 34.1947 5.8476234488893
67.3 29.2746 5.41060070602147
67.35 38.3504 6.19276997796624
67.4 28.0163 5.29304260326705
67.45 27.642 5.25756597676149
67.5 28.7248 5.35955222010197
67.55 29.571 5.43792239738671
67.6 22.7345 4.76807088873477
67.65 37.2505 6.10331876932542
67.7 38.3247 6.19069462984567
67.75 24.3814 4.93775252518795
67.8 31.1883 5.58464860129982
67.85 27.9869 5.29026464366387
67.9 31.9542 5.65280461364091
67.95 37.8434 6.15169895232203
68 33.9616 5.82765819176108
68.05 25.0531 5.00530718338046
68.1 33.2883 5.76960137271198
68.15 31.6618 5.62688190741551
68.2 27.3823 5.23280995259717
68.25 30.0377 5.48066601792154
68.3 33.1886 5.76095478197842
68.35 32.9161 5.73725544141099
68.4 38.768 6.22639542592663
68.45 31.9083 5.64874322305413
68.5 20.6211 4.54104613497815
68.55 28.0991 5.30085842104843
68.6 41.5197 6.44357819848568
68.65 20.056 4.4783925687684
68.7 27.1451 5.21009596840596
68.75 24.1738 4.91668587566869
68.8 31.8238 5.64125872478829
68.85 34.6858 5.88946517096417
68.9 33.5526 5.7924606170435
68.95 24.1754 4.91684858420513
69 34.3118 5.85762750608128
69.05 33.1277 5.75566677284222
69.1 34.0754 5.83741381092689
69.15 33.4477 5.78339865477039
69.2 22.2351 4.71541090468264
69.25 27.0972 5.20549709441855
69.3 23.0703 4.8031552129824
69.35 28.8426 5.37053070003328
69.4 32.7545 5.72315472445049
69.45 31.9095 5.64884944037279
69.5 29.1266 5.39690652133238
69.55 39.8914 6.31596390110013
69.6 36.2203 6.01833033324028
69.65 40.3997 6.35607583340539
69.7 25.2154 5.02149380164907
69.75 31.2072 5.58634048371561
69.8 32.6048 5.71006129564298
69.85 27.1692 5.2124082725742
69.9 37.3003 6.1073971542712
69.95 30.8779 5.55678864093282
70 32.7486 5.72263925125462
70.05 30.1122 5.48745842808854
70.1 27.987 5.29027409497844
70.15 31.303 5.59490839960763
70.2 37.9627 6.16138783067581
70.25 27.685 5.26165373243052
70.3 23.7356 4.87191953956549
70.35 31.2004 5.58573182313652
70.4 34.6825 5.88918500303735
70.45 33.9508 5.82673150230899
70.5 24.362 4.93578767776735
70.55 23.5212 4.84986597752969
70.6 32.8535 5.73179727485193
70.65 30.784 5.5483330830079
70.7 46.2617 6.80159540108054
70.75 31.3148 5.59596283046984
70.8 32.3014 5.68343206170356
70.85 31.2103 5.58661793932608
70.9 28.7272 5.35977611472718
70.95 29.279 5.41100729993963
71 27.5787 5.25154263050392
71.05 33.1788 5.76010416572478
71.1 24.1863 4.91795689285703
71.15 34.0698 5.83693412674839
71.2 34.7332 5.89348793160722
71.25 25.5603 5.05571953336021
71.3 23.4693 4.84451235936085
71.35 33.9409 5.82588190748834
71.4 34.8891 5.90669958606327
71.45 24.8814 4.98812590057629
71.5 37.2614 6.10421166081256
71.55 27.859 5.278162559073
71.6 21.7905 4.66802956288839
71.65 27.0768 5.20353725844257
71.7 36.1935 6.01610339006902
71.75 40.6803 6.37811100561914
71.8 32.7409 5.72196644520046
71.85 31.6564 5.62640204749003
71.9 43.3901 6.58711621272921
71.95 39.3856 6.27579477038566
72 28.2618 5.31618284109943
72.05 32.4128 5.69322404266686
72.1 32.6352 5.71272264336367
72.15 26.913 5.18777408914459
72.2 30.7031 5.54103780893074
72.25 28.3626 5.32565488930704
72.3 26.6574 5.16308047583998
72.35 29.2417 5.40755952348192
72.4 24.6718 4.96707157186204
72.45 31.8536 5.64389936125725
72.5 34.645 5.88600033978932
72.55 33.9735 5.82867909564423
72.6 23.3181 4.82888185815309
72.65 28.5851 5.34650353034579
72.7 38.4036 6.19706382087517
72.75 50.224 7.08688930349557
72.8 35.0734 5.92227996636431
72.85 22.6605 4.76030461210205
72.9 34.1533 5.84408247717296
72.95 30.5629 5.52837227400616
73 28.9237 5.37807586409861
73.05 27.0586 5.20178815408702
73.1 39.9048 6.31702461606728
73.15 27.8718 5.27937496300462
73.2 40.4374 6.35904080817225
73.25 41.6491 6.45361139208118
73.3 27.9883 5.29039696053141
73.35 32.4723 5.69844715690161
73.4 28.396 5.32878973126169
73.45 18.8292 4.33926261016777
73.5 34.2871 5.85551876437946
73.55 36.608 6.05045452838049
73.6 30.2422 5.49929086337502
73.65 27.0395 5.19995192285467
73.7 30.3881 5.51254024928617
73.75 31.04 5.57135531087365
73.8 33.3802 5.77756003863223
73.85 38.9816 6.24352464558281
73.9 33.2182 5.76352322802641
73.95 34.2167 5.84950425249867
74 18.5273 4.30433502413555
74.05 30.7263 5.54313088425666
74.1 23.3902 4.83634159256767
74.15 28.3616 5.32556100331223
74.2 31.1345 5.57982974650661
74.25 46.4665 6.81663406675171
74.3 30.6122 5.53282929431227
74.35 27.7451 5.26736176847575
74.4 28.5679 5.34489476042326
74.45 34.315 5.85790064784305
74.5 28.301 5.31986841942543
74.55 27.7949 5.27208687333583
74.6 37.9528 6.16058438786451
74.65 36.8016 6.06643222990251
74.7 33.8489 5.81798074936657
74.75 32.0652 5.66261423725826
74.8 27.1654 5.2120437450198
74.85 26.5279 5.15052424516185
74.9 31.2568 5.5907781211563
74.95 30.8954 5.55836306838623
75 41.2187 6.42017912522696
75.05 34.1135 5.84067633070007
75.1 30.3797 5.51177829742815
75.15 37.9081 6.15695541643758
75.2 25.1473 5.0147083663958
75.25 23.2678 4.82367080137109
75.3 26.4448 5.14245077759622
75.35 45.6279 6.75484270727306
75.4 44.8077 6.69385539132718
75.45 36.3593 6.02986732855707
75.5 30.3299 5.50725884628642
75.55 21.8562 4.67506149692173
75.6 29.8953 5.46765946269517
75.65 27.8476 5.27708252730616
75.7 33.5758 5.7944628741584
75.75 42.6948 6.53412580227837
75.8 30.8995 5.5587318697703
75.85 26.0188 5.10086267213694
75.9 30.2793 5.50266299167957
75.95 34.2476 5.85214490592979
76 37.9842 6.16313232050067
76.05 40.8676 6.39277717428036
76.1 34.4817 5.87211205615152
76.15 31.6244 5.62355759284103
76.2 36.5419 6.04498966086792
76.25 34.9835 5.91468511418824
76.3 27.691 5.26222386448923
76.35 32.2085 5.67525329831189
76.4 27.6207 5.25553993420276
76.45 34.684 5.88931235374725
76.5 31.9848 5.65551058702926
76.55 27.4257 5.23695522226417
76.6 24.7625 4.97619332421882
76.65 34.1717 5.84565650718548
76.7 33.2828 5.76912471697397
76.75 28.194 5.30980225620503
76.8 24.0494 4.90401876015988
76.85 38.7416 6.22427505818951
76.9 31.1695 5.58296516199053
76.95 31.0282 5.57029622192572
77 32.2342 5.67751706294222
77.05 27.5689 5.25060948843084
77.1 35.1268 5.92678665045402
77.15 32.1079 5.66638332624965
77.2 39.3439 6.27247160216768
77.25 27.0652 5.20242251263774
77.3 29.4572 5.42744875609158
77.35 30.8011 5.54987387244071
77.4 29.0532 5.39010203985045
77.45 30.6724 5.53826687692097
77.5 33.5901 5.7956966794338
77.55 24.9798 4.99797959179507
77.6 33.8325 5.81657115489874
77.65 25.847 5.08399449252259
77.7 30.2999 5.50453449439642
77.75 26.3283 5.13111099080891
77.8 25.7821 5.07760770442144
77.85 33.3968 5.77899645267238
77.9 33.6489 5.80076719063953
77.95 27.763 5.26906063734324
78 37.0801 6.08934315012711
78.05 35.2656 5.93848465519614
78.1 30.8481 5.55410658882236
78.15 31.8142 5.64040778667642
78.2 32.417 5.69359289025831
78.25 42.0233 6.48253808318933
78.3 30.756 5.54580922859775
78.35 40.928 6.39749951152792
78.4 33.9353 5.82540127373214
78.45 22.3819 4.73095127854853
78.5 37.278 6.10557122634729
78.55 28.4994 5.33848293057119
78.6 31.4594 5.60886797847837
78.65 31.4254 5.60583624448663
78.7 23.9237 4.89118595025787
78.75 23.9904 4.89799959167005
78.8 28.9175 5.37749941887491
78.85 32.1548 5.67052025831846
78.9 27.3315 5.22795371058314
78.95 34.0952 5.83910952115132
79 37.8595 6.15300739476234
79.05 33.2346 5.76494579332712
79.1 35.6118 5.96756231639017
79.15 35.7408 5.97836097939895
79.2 32.6326 5.71249507658431
79.25 28.3955 5.32874281608711
79.3 37.1562 6.09558856879301
79.35 35.8628 5.98855575243314
79.4 36.3387 6.02815892292166
79.45 31.7342 5.63331163703909
79.5 36.5629 6.04672638706267
79.55 28.2174 5.31200527108172
79.6 35.6178 5.96806501305071
79.65 31.7728 5.63673664454886
79.7 23.1175 4.80806613931215
79.75 30.8574 5.55494374408958
79.8 36.2196 6.01827217729474
79.85 37.7113 6.14095269481861
79.9 26.95 5.19133894096696
79.95 34.6753 5.88857368129159
80 29.541 5.43516329101528
80.05 25.4174 5.04156721665
80.1 36.4672 6.038807829365
80.15 27.244 5.21957852704603
80.2 36.1623 6.01350979046347
80.25 19.1549 4.37663112450661
80.3 25.928 5.0919544381308
80.35 29.7678 5.45598753664266
80.4 38.9481 6.24084128944167
80.45 23.1145 4.80775415344836
80.5 20.5103 4.52882987094901
80.55 40.0407 6.32777211979066
80.6 30.2381 5.49891807540356
80.65 49.3688 7.02629347522575
80.7 25.6777 5.06731684424805
80.75 38.3771 6.19492534256871
80.8 34.8499 5.90338038754068
80.85 26.7928 5.17617619483727
80.9 37.3889 6.11464635118009
80.95 31.7471 5.63445649552821
81 36.082 6.00682944655498
81.05 18.5954 4.31223839786253
81.1 30.4164 5.51510652662304
81.15 37.4814 6.12220548495393
81.2 26.5132 5.14909700821416
81.25 27.5229 5.246227215819
81.3 29.826 5.46131852211533
81.35 35.7708 5.98086950200387
81.4 46.3944 6.81134347981366
81.45 29.3394 5.41658564041962
81.5 26.1576 5.11445011707026
81.55 34.5051 5.8741041870229
81.6 50.3464 7.09551971317112
81.65 46.5177 6.82038855198148
81.7 44.1063 6.64125741106306
81.75 56.6631 7.52748962138109
81.8 79.8148 8.93391291652208
81.85 131.49 11.4669089121698
81.9 221.054 14.8678848529305
81.95 310.0833 17.6091822638077
82 255.2655 15.977030387403
82.05 221.0634 14.8682009671648
82.1 122.4751 11.0668468860828
82.15 81.7051 9.03908734331072
82.2 61.9412 7.87027318458515
82.25 43.5143 6.59653697025947
82.3 44.7929 6.6927498085615
82.35 33.7114 5.80615190982806
82.4 30.8957 5.5583900546831
82.45 29.0649 5.39118725328661
82.5 29.9285 5.47069465424639
82.55 45.4235 6.73969583883427
82.6 32.5712 5.70711836218595
82.65 19.6965 4.43807390655
82.7 37.0215 6.08452956275175
82.75 27.5751 5.25119986288848
82.8 35.6102 5.96742825679538
82.85 30.9305 5.56151957651863
82.9 27.4819 5.24231818950357
82.95 32.5655 5.70661896397508
83 34.139 5.84285888927672
83.05 37.4531 6.11989378992806
83.1 34.9748 5.91394961087766
83.15 32.3244 5.68545512690057
83.2 31.5492 5.61686745437348
83.25 32.3851 5.69079080620611
83.3 25.7667 5.07609101573248
83.35 36.6936 6.05752424675296
83.4 24.3075 4.93026368463189
83.45 27.1141 5.2071201253668
83.5 33.2558 5.76678419918762
83.55 16.2924 4.03638452083049
83.6 30.799 5.54968467572708
83.65 28.8261 5.36899431923708
83.7 38.9351 6.23979967627167
83.75 31.4884 5.61145257486865
83.8 25.0769 5.00768409546768
83.85 34.6483 5.88628065929582
83.9 24.8229 4.98225852400294
83.95 31.3799 5.60177650393159
84 26.5747 5.15506547000133
84.05 33.1121 5.75431142709534
84.1 29.4369 5.42557831018962
84.15 25.919 5.09107061432072
84.2 23.5956 4.85753023665319
84.25 20.3685 4.51314746047589
84.3 22.4635 4.73956749081601
84.35 42.7407 6.53763718785312
84.4 33.7164 5.80658247164371
84.45 40.3982 6.35595783497657
84.5 30.6839 5.53930501055864
84.55 28.1408 5.30479028803213
84.6 22.4444 4.73755211053134
84.65 30.1321 5.48927135419629
84.7 29.5108 5.43238437520763
84.75 38.4198 6.1983707536739
84.8 32.496 5.70052629149274
84.85 25.1537 5.01534644865138
84.9 23.137 4.81009355418374
84.95 34.3376 5.85982934905105
85 25.0077 5.00076994071913
85.05 35.9024 5.99186114658876
85.1 28.9599 5.38144032764464
85.15 27.1188 5.2075714109362
85.2 27.221 5.21737481881453
85.25 23.4535 4.84288137372783
85.3 36.3098 6.02576136268273
85.35 28.3356 5.32311938622458
85.4 25.9875 5.09779364038993
85.45 37.806 6.14865839025067
85.5 28.4772 5.3364032831112
85.55 25.2021 5.02016931985366
85.6 35.9573 5.99644061089577
85.65 33.0387 5.747930062205
85.7 27.2001 5.21537151121567
85.75 39.2427 6.26439941255345
85.8 22.7765 4.77247315340799
85.85 27.9865 5.29022683823671
85.9 26.2444 5.12292884978896
85.95 26.4549 5.14343270588816
86 35.9011 5.99175266512228
86.05 29.2096 5.40459064129745
86.1 29.9845 5.47581044229984
86.15 32.7848 5.72580125397311
86.2 30.1622 5.49201238163207
86.25 25.7186 5.07135090483788
86.3 21.2495 4.60971799571297
86.35 38.7533 6.22521485572988
86.4 30.6176 5.53331726905299
86.45 24.9823 4.99822968659905
86.5 31.3293 5.5972582573971
86.55 20.1407 4.48783912367634
86.6 27.2517 5.22031608238428
86.65 35.7716 5.98093638153759
86.7 28.8515 5.37135923207525
86.75 35.0558 5.92079386569065
86.8 35.9016 5.99179438899567
86.85 31.5203 5.61429425662745
86.9 27.7743 5.2701328256506
86.95 30.832 5.55265702164288
87 26.044 5.10333224472011
87.05 19.9426 4.46571382871764
87.1 30.2721 5.50200872409341
87.15 33.2564 5.76683622101408
87.2 22.9108 4.78652274621149
87.25 30.9396 5.56233763807987
87.3 37.814 6.14930890425908
87.35 35.6591 5.97152409356271
87.4 20.9947 4.58199738105556
87.45 21.9424 4.68427155489517
87.5 31.6631 5.62699742313785
87.55 17.2216 4.14989156484841
87.6 37.0484 6.08673968557881
87.65 39.4857 6.28376479508901
87.7 33.8275 5.81614133253311
87.75 31.9918 5.65612941860421
87.8 36.6673 6.05535300374801
87.85 34.0085 5.83168071828354
87.9 24.005 4.89948976935354
87.95 28.6043 5.34829879494405
88 27.2013 5.21548655448368
88.05 23.0065 4.79650914728618
88.1 30.4324 5.51655689719593
88.15 30.1478 5.49070123026194
88.2 31.7028 5.63052395430479
88.25 30.9458 5.56289492980049
88.3 28.8007 5.36662836425255
88.35 26.8108 5.17791463815309
88.4 27.3246 5.22729375489842
88.45 23.2228 4.81900404648097
88.5 32.5585 5.70600560812904
88.55 31.5507 5.61700097917029
88.6 32.9889 5.74359643429097
88.65 21.1031 4.59381105401604
88.7 36.031 6.00258277743839
88.75 27.92 5.28393792544916
88.8 22.3814 4.73089843475845
88.85 32.4372 5.69536653780948
88.9 30.1938 5.4948885339013
88.95 26.6673 5.16403911681544
89 26.9106 5.18754277090801
89.05 31.5956 5.62099635296092
89.1 26.9276 5.18918105292155
89.15 23.6865 4.86687784929928
89.2 34.5161 5.87504042539283
89.25 27.4408 5.2383967012818
89.3 30.1104 5.48729441528336
89.35 33.8 5.81377674149945
89.4 37.1827 6.097761884495
89.45 35.6649 5.97200971198139
89.5 29.759 5.45518102357749
89.55 35.7174 5.97640360082885
89.6 28.7553 5.36239685215483
89.65 37.9853 6.16322156019074
89.7 28.0343 5.29474267552258
89.75 39.0407 6.2482557566092
89.8 24.2576 4.92520050353283
89.85 40.6936 6.37915354886524
89.9 38.241 6.18393078874594
89.95 38.8308 6.23143643151401
90 29.1586 5.39987036881442
90.05 34.565 5.87920062593547
90.1 28.9858 5.38384620879906
90.15 37.6121 6.13287045354783
90.2 34.6125 5.88323890386919
90.25 26.7024 5.16743650178694
90.3 28.6345 5.35112137780484
90.35 28.8134 5.36781147209922
90.4 27.6588 5.2591634315735
90.45 30.5438 5.52664455162443
90.5 31.5567 5.61753504661965
90.55 22.5297 4.74654611270132
90.6 26.772 5.17416659955978
90.65 36.7415 6.06147671776441
90.7 29.3818 5.42049813209081
90.75 30.3127 5.50569704942072
90.8 29.8515 5.46365262438966
90.85 33.0936 5.75270371216874
90.9 30.7551 5.54572808565296
90.95 26.143 5.1130225894279
91 26.1332 5.11206416235164
91.05 24.8781 4.98779510405149
91.1 24.2474 4.92416490381872
91.15 21.6263 4.65040858419989
91.2 36.8811 6.07298114602705
91.25 23.2376 4.8205393889066
91.3 28.3468 5.32417129701891
91.35 24.8664 4.98662210318769
91.4 35.1717 5.93057332810244
91.45 36.0215 6.00179139924073
91.5 26.7557 5.17259122684173
91.55 28.6312 5.35081302233595
91.6 30.447 5.51788002769179
91.65 28.5262 5.34099241714496
91.7 32.3954 5.69169570514798
91.75 29.2013 5.40382272100038
91.8 29.1299 5.39721224337157
91.85 31.4207 5.60541702284496
91.9 33.1754 5.75980902461184
91.95 35.9654 5.99711597353261
92 33.0674 5.75042607117073
92.05 25.7007 5.0695857818958
92.1 38.8136 6.23005617952198
92.15 33.7589 5.81024095885876
92.2 37.4884 6.12277714766755
92.25 36.8459 6.07008237176399
92.3 28.7597 5.36280710076355
92.35 30.1467 5.49060105999334
92.4 38.8622 6.23395540567945
92.45 28.2999 5.3197650324051
92.5 30.0375 5.48064777193353
92.55 26.3691 5.13508519890371
92.6 37.8535 6.15251980898883
92.65 28.143 5.3049976437318
92.7 31.5376 5.61583475540369
92.75 26.332 5.13147152384187
92.8 26.0465 5.10357717684371
92.85 25.174 5.01736982890438
92.9 30.7374 5.54413203305982
92.95 23.1567 4.81214089569289
93 17.6644 4.20290375811771
93.05 21.2554 4.61035790367733
93.1 29.8269 5.46140091917816
93.15 26.8671 5.18334833867067
93.2 27.3278 5.22759983166271
93.25 36.6923 6.05741694123824
93.3 34.7076 5.8913156425369
93.35 27.9217 5.28409878787291
93.4 29.9678 5.47428534148522
93.45 23.5741 4.85531667350339
93.5 36.6359 6.05275970116112
93.55 26.0465 5.10357717684371
93.6 30.1724 5.49294092449573
93.65 28.2541 5.31545858793011
93.7 28.5781 5.34584885682339
93.75 24.4553 4.94523002498367
93.8 31.0314 5.57058345238629
93.85 42.1737 6.49412811699923
93.9 23.0051 4.79636320559651
93.95 29.0472 5.38954543537764
94 25.3655 5.03641737746188
94.05 29.3285 5.41557937805365
94.1 26.8098 5.17781807328145
94.15 32.3446 5.68723131233468
94.2 33.3098 5.77146428560378
94.25 25.9572 5.09482089969805
94.3 30.8598 5.55515976367917
94.35 24.9628 4.99627861512946
94.4 33.7319 5.80791701042637
94.45 27.2931 5.22427985467854
94.5 26.9943 5.19560391100014
94.55 44.23 6.65056388586712
94.6 25.5349 5.05320690255208
94.65 23.2176 4.81846448570496
94.7 25.8229 5.0816237562417
94.75 31.4882 5.61143475414265
94.8 26.0633 5.10522281590138
94.85 28.7292 5.35996268643729
94.9 31.8774 5.64600743888989
94.95 34.3611 5.86183418393936
95 26.236 5.12210894066106
95.05 28.347 5.32419007925149
95.1 38.6055 6.21333243919879
95.15 24.936 4.99359589874872
95.2 31.371 5.60098205674683
95.25 33.2018 5.76210031151836
95.3 28.3039 5.32014097557574
95.35 35.1319 5.9272168848457
95.4 29.3675 5.41917890459431
95.45 34.5646 5.8791666076069
95.5 34.0903 5.83868992154918
95.55 31.0517 5.57240522575306
95.6 24.2469 4.92411413352696
95.65 38.1992 6.18055013732596
95.7 31.4595 5.60887689292607
95.75 36.4673 6.03881610913927
95.8 24.4644 4.94615001794325
95.85 18.6621 4.31996527763824
95.9 34.0826 5.83803048981418
95.95 34.6744 5.88849726161098
96 24.4358 4.94325803494011
96.05 33.2158 5.76331501828592
96.1 23.9111 4.88989774944221
96.15 25.1102 5.01100788265195
96.2 20.5252 4.53047458882621
96.25 26.7999 5.17686198386629
96.3 37.039 6.08596746622918
96.35 25.6341 5.06301293697735
96.4 22.26 4.71805044483418
96.45 29.6223 5.44263722840316
96.5 32.2977 5.68310654483971
96.55 30.3435 5.50849344194944
96.6 40.7516 6.38369798784372
96.65 41.4437 6.43767815287468
96.7 32.5396 5.70434921792136
96.75 38.1167 6.17387236667555
96.8 30.1782 5.49346884946115
96.85 32.28 5.68154908453672
96.9 39.5038 6.28520484948581
96.95 31.9514 5.65255694354334
97 37.1741 6.09705666695005
97.05 31.2335 5.58869394402664
97.1 32.976 5.74247333472259
97.15 25.8214 5.08147616347848
97.2 27.8998 5.28202612640263
97.25 29.3423 5.41685333011703
97.3 36.2371 6.0197259073815
97.35 31.3338 5.59766022548707
97.4 26.5807 5.15564738902885
97.45 31.0708 5.57411876443263
97.5 32.5829 5.70814330583947
97.55 30.8944 5.55827311311706
97.6 31.6593 5.62665975513004
97.65 30.4614 5.51918472240239
97.7 32.2741 5.68102983621808
97.75 32.395 5.69166056612655
97.8 26.3563 5.13383871971062
97.85 31.7281 5.63277018881474
97.9 27.669 5.26013307816447
97.95 32.8093 5.72794029298491
98 29.3902 5.4212729132557
98.05 40.9557 6.39966405368282
98.1 34.0194 5.8326151938903
98.15 30.7108 5.54173258106163
98.2 29.0278 5.38774535404189
98.25 42.3133 6.50486740833355
98.3 49.2349 7.01675851087951
98.35 65.6647 8.10337583973494
98.4 77.2636 8.78997155854329
98.45 107.6247 10.3742325017324
98.5 158.0858 12.5732175675123
98.55 164.0849 12.8095628340705
98.6 121.7423 11.0336893195341
98.65 93.9584 9.69321412122935
98.7 66.7557 8.17041614607237
98.75 54.6896 7.39524171342628
98.8 46.7055 6.83414222854632
98.85 46.4848 6.81797623932498
98.9 38.6701 6.21852876490895
98.95 40.3194 6.34975590082013
99 39.3977 6.27675871768224
99.05 39.3143 6.27011164174929
99.1 41.2685 6.42405635093591
99.15 26.2152 5.12007812440396
99.2 29.2371 5.4071341762527
99.25 32.3366 5.68652793890965
99.3 30.7442 5.54474526015398
99.35 36.226 6.0188038678794
99.4 27.7866 5.27129964999145
99.45 25.6293 5.06253888873952
99.5 34.1215 5.84136114274747
99.55 33.1587 5.75835914128322
99.6 28.1522 5.3058646797671
99.65 28.8748 5.37352770533474
99.7 32.2921 5.68261383519943
99.75 31.0141 5.56903043626088
99.8 30.1411 5.49009107392582
99.85 25.8175 5.08109240223006
99.9 14.7164 3.83619603253014
99.95 25.5423 5.05393905780432
100 25.6895 5.06848103478744
100.05 26.4604 5.1439673404873
100.1 28.2009 5.31045195816703
100.15 40.6651 6.37691931891881
100.2 28.208 5.3111204091039
100.25 31.3973 5.60332936743861
100.3 31.5272 5.61490872588326
100.35 18.0209 4.24510306117531
100.4 22.7795 4.77278744550813
100.45 38.5646 6.21004025751846
100.5 28.8079 5.36729913457411
100.55 37.3617 6.11242177864061
100.6 43.888 6.62480188383019
100.65 32.0846 5.66432696796363
100.7 22.3617 4.72881591944537
100.75 25.7262 5.07210015673981
100.8 34.7152 5.89196062444412
100.85 24.8457 4.98454611775235
100.9 24.9265 4.99264458979407
100.95 31.967 5.6539366816405
101 29.8097 5.45982600455362
101.05 21.4698 4.63355155361414
101.1 29.7765 5.45678476760812
101.15 30.2998 5.50452541096869
101.2 24.8191 4.98187715625345
101.25 29.8173 5.46052195307372
101.3 36.662 6.05491535861568
101.35 40.8045 6.38784001051999
101.4 30.3958 5.51323861264865
101.45 31.5958 5.62101414337306
101.5 28.9453 5.38008364247248
101.55 29.6314 5.44347315599149
101.6 34.6348 5.88513381326202
101.65 33.2215 5.76380950413873
101.7 22.3913 4.73194463196686
101.75 30.5829 5.53018082886988
101.8 33.2032 5.76222179371811
101.85 27.3414 5.22890045803131
101.9 33.5473 5.79200310773397
101.95 28.7832 5.36499767008337
102 37.4577 6.12026960190481
102.05 24.3556 4.9351393090773
102.1 38.0925 6.17191218343229
102.15 31.3689 5.60079458648503
102.2 28.7415 5.36110995970051
102.25 30.0231 5.47933390112338
102.3 27.9953 5.29105849523514
102.35 32.2376 5.67781648171196
102.4 37.3748 6.11349327308046
102.45 32.8213 5.72898769417425
102.5 31.8806 5.64629081787327
102.55 23.4348 4.84095031992686
102.6 36.3112 6.02587752945577
102.65 31.5849 5.62004448380971
102.7 36.4369 6.03629853469823
102.75 23.3518 4.83237001894516
102.8 36.1508 6.01255353406521
102.85 32.5992 5.70957091207387
102.9 30.3152 5.50592408229536
102.95 23.7787 4.87634084124562
103 30.2863 5.50329901059355
103.05 23.8168 4.8802458954442
103.1 26.7309 5.17019341997957
103.15 29.2947 5.41245785202989
103.2 21.6642 4.65448171121125
103.25 34.3208 5.85839568482703
103.3 32.5145 5.70214871780805
103.35 31.27 5.59195851200633
103.4 27.5009 5.24413005178171
103.45 33.4463 5.78327761740693
103.5 28.8411 5.37039104721435
103.55 37.3704 6.1131334027649
103.6 37.3112 6.10828944959225
103.65 19.6636 4.43436579456409
103.7 31.3511 5.59920530075474
103.75 29.7747 5.45661983282691
103.8 40.1446 6.33597664137108
103.85 33.5878 5.79549825295462
103.9 30.6302 5.53445570946231
103.95 25.0871 5.00870242677682
104 29.1095 5.39532204784849
104.05 32.5763 5.70756515512526
104.1 28.4754 5.33623462752529
104.15 32.314 5.684540438769
104.2 24.0603 4.90512996769708
104.25 24.5976 4.95959675780199
104.3 24.0466 4.90373327170229
104.35 30.4942 5.52215537630009
104.4 33.1113 5.75424191357993
104.45 31.1413 5.58043905082745
104.5 29.4827 5.42979741795217
104.55 27.841 5.27645714471368
104.6 27.5554 5.24932376597215
104.65 33.4087 5.78002595149883
104.7 28.0592 5.29709354268924
104.75 39.7135 6.30186480337368
104.8 30.157 5.49153894641566
104.85 28.3307 5.32265910988108
104.9 31.9626 5.65354755883419
104.95 32.2332 5.67742899559299
105 36.179 6.01489817037662
105.05 33.8403 5.8172416143736
105.1 20.5028 4.52800176678411
105.15 23.659 4.8640518089346
105.2 25.4177 5.04159696921521
105.25 24.5768 4.95749936964192
105.3 47.8034 6.91400028926815
105.35 31.8968 5.64772520577976
105.4 30.2682 5.50165429666387
105.45 22.1823 4.70980891332122
105.5 32.2846 5.68195388928844
105.55 34.2099 5.84892297777975
105.6 29.1323 5.39743457579617
105.65 36.6489 6.05383349622369
105.7 24.6602 4.96590374453634
105.75 30.2392 5.49901809416918
105.8 41.0399 6.40623914633227
105.85 33.2075 5.76259490160466
105.9 31.1884 5.58465755440743
105.95 29.2881 5.411848113168
106 30.0526 5.48202517323662
106.05 28.9448 5.38003717459276
106.1 32.592 5.70894035701898
106.15 39.2577 6.26559653983561
106.2 30.4587 5.51894011563815
106.25 22.9159 4.78705546239022
106.3 25.4471 5.04451186934871
106.35 30.1759 5.49325950597639
106.4 25.3586 5.03573232012981
106.45 37.0269 6.08497329492907
106.5 29.5677 5.43761896421586
106.55 24.0986 4.90903249123491
106.6 27.1094 5.20666880068245
106.65 33.065 5.75021738719503
106.7 22.7337 4.76798699662656
106.75 25.0386 5.00385851118914
106.8 32.5213 5.70274495309057
106.85 42.4148 6.51266458525234
106.9 33.0406 5.74809533671807
106.95 19.9612 4.46779587716359
107 30.1869 5.49426064179704
107.05 26.883 5.18488186943541
107.1 32.3372 5.68658069493435
107.15 30.3917 5.51286676784411
107.2 33.2543 5.76665414256829
107.25 26.2107 5.11963865912429
107.3 27.8379 5.27616337881988
107.35 39.5417 6.288219143764
107.4 30.3203 5.50638720033381
107.45 23.7611 4.87453587534239
107.5 29.4208 5.42409439445886
107.55 43.2115 6.57354546648915
107.6 35.4331 5.9525708731606
107.65 30.8483 5.55412459348906
107.7 31.0412 5.57146300355661
107.75 26.6225 5.15969960365911
107.8 34.8284 5.90155911603027
107.85 21.9938 4.68975479103119
107.9 29.4716 5.42877518414605
107.95 34.1374 5.84272196839795
108 24.747 4.97463566505126
108.05 25.4663 5.04641456878049
108.1 33.1906 5.76112836170138
108.15 28.739 5.36087679395824
108.2 30.4793 5.52080610056176
108.25 36.4603 6.03823649752144
108.3 25.5883 5.05848791636394
108.35 36.0859 6.00715406827559
108.4 28.1225 5.30306515140065
108.45 27.3882 5.23337367288062
108.5 36.2926 6.02433398808532
108.55 34.5161 5.87504042539283
108.6 28.9504 5.38055759192298
108.65 28.7996 5.36652587807047
108.7 28.5942 5.34735448609871
108.75 22.3512 4.72770557458901
108.8 31.4623 5.60912649170974
108.85 18.2313 4.26981264225961
108.9 32.4101 5.69298691373869
108.95 27.4914 5.24322419890662
109 36.4583 6.03807088398273
109.05 29.3179 5.41460063162557
109.1 33.447 5.78333813640531
109.15 31.5662 5.618380549589
109.2 25.1733 5.01730007075519
109.25 27.6689 5.26012357269295
109.3 31.5854 5.62008896726733
109.35 24.4339 4.94306585025933
109.4 45.9657 6.77980088203186
109.45 26.9969 5.19585411650481
109.5 24.9872 4.99871983611804
109.55 30.4186 5.51530597519304
109.6 35.1777 5.93107915981569
109.65 37.8526 6.15244666778998
109.7 35.3243 5.94342493853502
109.75 24.5506 4.95485620376616
109.8 30.2873 5.5033898644381
109.85 37.6269 6.13407694767518
109.9 31.8161 5.64057621170036
109.95 40.1869 6.33931384299594
110 26.8589 5.18255728381269
110.05 24.5953 4.95936487869163
110.1 37.4929 6.12314461694316
110.15 28.548 5.34303284661436
110.2 39.5942 6.292392231894
110.25 31.6544 5.62622431120552
110.3 32.7278 5.72082161931309
110.35 36.5711 6.04740440189012
110.4 25.5446 5.05416659796647
110.45 28.0415 5.29542255160058
110.5 17.8738 4.22774171396503
110.55 32.5676 5.70680295787405
110.6 32.2694 5.68061616376252
110.65 31.0568 5.57286281905449
110.7 34.0822 5.83799623158494
110.75 29.6649 5.44654936634196
110.8 28.784 5.36507222691363
110.85 26.51 5.1487862647424
110.9 28.1733 5.30785267316266
110.95 29.8926 5.46741255074098
111 26.3761 5.13576673925131
111.05 22.5969 4.75361967346989
111.1 43.6945 6.61018154062353
111.15 32.8355 5.73022687159941
111.2 25.7457 5.07402207326693
111.25 22.2707 4.71918425154179
111.3 29.7773 5.45685807035514
111.35 29.754 5.45472272439214
111.4 31.5542 5.61731252468652
111.45 31.502 5.61266425149412
111.5 35.2784 5.93956227343396
111.55 42.8003 6.54219382164729
111.6 33.5212 5.78974956280494
111.65 31.9155 5.64938049701027
111.7 32.0134 5.65803852938454
111.75 38.7742 6.22689328638287
111.8 43.4378 6.59073592248999
111.85 27.9115 5.2831335398606
111.9 34.7915 5.89843199503054
111.95 28.7169 5.35881516755336
112 25.6224 5.06185736661949
112.05 21.2665 4.61156155765051
112.1 32.1454 5.66969134962389
112.15 26.1801 5.11664929421589
112.2 26.9238 5.18881489359565
112.25 20.0866 4.48180767101847
112.3 26.4171 5.13975680358517
112.35 26.5352 5.15123286214087
112.4 29.5635 5.4372327520532
112.45 33.2016 5.76208295670932
112.5 23.8618 4.88485414316538
112.55 27.6195 5.25542576771854
112.6 22.603 4.75426124650297
112.65 46.0276 6.78436437700688
112.7 32.8583 5.73221597639168
112.75 39.8393 6.31183808410831
112.8 34.6707 5.88818308139277
112.85 33.5521 5.79241745733161
112.9 32.8823 5.73430902550604
112.95 36.1931 6.01607014586765
113 34.697 5.89041594456622
113.05 40.8182 6.38891227048862
113.1 42.1753 6.49425130403806
113.15 28.9085 5.37666253357973
113.2 27.7728 5.26999051232543
113.25 32.4429 5.69586692260274
113.3 22.3444 4.72698635496232
113.35 23.6251 4.86056581068501
113.4 33.2653 5.767607823006
113.45 15.7559 3.96937022712672
113.5 33.6749 5.80300784076672
113.55 38.1278 6.17477125082379
113.6 41.5857 6.44869754291516
113.65 37.0265 6.08494042698858
113.7 31.7329 5.63319625079759
113.75 38.6568 6.21745928816587
113.8 35.0842 5.9231917071795
113.85 39.5486 6.28876776483279
113.9 31.18 5.58390544332549
113.95 31.8867 5.64683096966785
114 24.3598 4.93556481063718
114.05 32.7674 5.72428161431633
114.1 34.8053 5.89960168146969
114.15 37.4061 6.11605264856345
114.2 20.6629 4.54564626868391
114.25 27.4558 5.23982824145983
114.3 26.0644 5.10533054757476
114.35 31.0237 5.56989227903018
114.4 32.4723 5.69844715690161
114.45 23.1793 4.81448855019928
114.5 33.1923 5.76127590035402
114.55 31.9218 5.64993805275775
114.6 40.1448 6.33599242423789
114.65 32.8922 5.73517218573253
114.7 26.337 5.13195869040272
114.75 31.5457 5.61655588416959
114.8 28.2188 5.31213704642491
114.85 34.2958 5.85626160617847
114.9 27.9473 5.28652059487145
114.95 39.3135 6.27004784670739
115 34.4818 5.87212057096923
115.05 24.9733 4.99732928672906
115.1 33.9105 5.82327227596306
115.15 36.0263 6.00219126652925
115.2 31.5809 5.61968860347262
115.25 23.1328 4.80965695242395
115.3 36.9292 6.07694001945058
115.35 30.6335 5.534753833731
115.4 30.7733 5.54736874563067
115.45 31.4679 5.60962565595958
115.5 43.9295 6.62793331288117
115.55 44.0997 6.64076049861761
115.6 48.6959 6.97824476498209
115.65 50.9215 7.13593021266324
115.7 68.4009 8.27048366179391
115.75 80.0457 8.94682625292343
115.8 87.4154 9.34962031314641
115.85 108.3404 10.4086694634809
115.9 114.9638 10.7221173282146
115.95 111.781 10.5726534039474
116 110.0615 10.4910199694787
116.05 74.3215 8.62099182229052
116.1 83.3512 9.12968783694163
116.15 52.3882 7.23796932847881
116.2 53.7732 7.33302120547868
116.25 59.2505 7.69743463759193
116.3 48.9904 6.99931425212499
116.35 37.7604 6.14494914543644
116.4 44.7448 6.68915540259008
116.45 44.5544 6.67490823906966
116.5 41.3989 6.43419769668294
116.55 38.7895 6.22812170722442
116.6 39.4379 6.27996019095663
116.65 41.0524 6.40721468346426
116.7 35.6447 5.97031824947381
116.75 34.0139 5.83214368821619
116.8 34.625 5.88430114796991
116.85 28.1266 5.30345170620041
116.9 36.8206 6.06799802241233
116.95 38.2873 6.1876732298983
117 32.3403 5.68685325993207
117.05 32.6283 5.71211869624573
117.1 25.1036 5.01034928922126
117.15 36.743 6.06160044872639
117.2 37.042 6.0862139298582
117.25 40.1036 6.33274032311447
117.3 35.856 5.98798797593983
117.35 23.5379 4.8515873690989
117.4 26.6804 5.16530734806749
117.45 37.9505 6.1603977144337
117.5 30.7395 5.54432141925412
117.55 35.0938 5.92400202565799
117.6 27.8784 5.28
117.65 21.865 4.67600256629528
117.7 27.1333 5.20896342855275
117.75 29.7791 5.45702299793578
117.8 26.9631 5.19260050456416
117.85 37.1777 6.0973518842199
117.9 33.9041 5.82272273081932
117.95 24.077 4.90683197185312
118 34.3687 5.86248240935527
118.05 33.6657 5.80221509425495
118.1 29.6958 5.44938528643369
118.15 36.0538 6.00448165956063
118.2 31.4648 5.60934933838141
118.25 24.6331 4.96317438742585
118.3 32.9109 5.73680224515365
118.35 35.8107 5.98420420774559
118.4 36.4233 6.03517191138745
118.45 33.5419 5.79153692900253
118.5 22.7065 4.76513378615963
118.55 27.8921 5.28129718913829
118.6 24.1224 4.9114559959344
118.65 24.8033 4.9802911561474
118.7 38.614 6.21401641452612
118.75 30.7473 5.54502479705907
118.8 21.9899 4.68933897260584
118.85 35.4974 5.95796945275821
118.9 42.3674 6.50902450448606
118.95 33.0889 5.75229519409427
119 31.9512 5.65253925240683
119.05 28.3764 5.326950347056
119.1 26.8362 5.18036678238134
119.15 30.4222 5.51563233002346
119.2 30.5164 5.52416509528816
119.25 26.7586 5.17287154296335
119.3 23.0958 4.80580898496809
119.35 38.609 6.21361408521643
119.4 24.915 4.99149276269134
119.45 29.4472 5.4265274347413
119.5 36.0986 6.00821104822392
119.55 24.9215 4.99214382805624
119.6 28.9165 5.37740643805171
119.65 34.2062 5.84860667167831
119.7 29.0564 5.39039887206875
119.75 36.7448 6.06174892254702
119.8 28.1931 5.30971750660993
119.85 37.5816 6.13038334853539
119.9 43.7739 6.6161847011703
119.95 33.177 5.75994791643119
120 26.3266 5.13094533200267
120.05 29.3829 5.42059959783048
120.1 36.9532 6.07891437676169
120.15 31.245 5.589722712264
120.2 26.8142 5.17824294524697
120.25 28.3821 5.32748533550305
120.3 44.2413 6.65141338363509
120.35 33.5009 5.78799619903123
120.4 33.0259 5.74681651003406
120.45 33.8414 5.81733616013378
120.5 37.6885 6.13909602466031
120.55 38.5202 6.20646437192706
120.6 35.9567 5.99639058100788
120.65 33.2007 5.76200485942176
120.7 27.9921 5.29075608963407
120.75 35.2931 5.94079960948019
120.8 27.6556 5.25885919187803
120.85 25.4616 5.04594887013335
120.9 33.5348 5.79092393319063
120.95 31.4086 5.60433760581926
121 31.5002 5.61250389754876
121.05 30.4466 5.51784378176838
121.1 37.9321 6.15890412329986
121.15 39.2278 6.26321003958833
121.2 35.0821 5.92301443523482
121.25 29.4356 5.42545850596979
121.3 23.0441 4.80042706433501
121.35 28.7597 5.36280710076355
121.4 19.8492 4.45524410105664
121.45 31.5735 5.61903016542891
121.5 35.0162 5.91744877459873
121.55 29.2013 5.40382272100038
121.6 25.2284 5.02278807038481
121.65 23.2508 4.82190833591847
121.7 29.7184 5.45145852043286
121.75 27.2303 5.21826599551997
121.8 36.957 6.07922692453572
121.85 35.3207 5.94312207513862
121.9 32.9284 5.73832728240556
121.95 35.8497 5.98746189967001
122 31.416 5.60499776984791
122.05 22.422 4.73518743029249
122.1 37.4013 6.11566022600994
122.15 25.6905 5.06857968271191
122.2 32.779 5.72529475223765
122.25 31.8354 5.64228677045044
122.3 27.2452 5.21969347759042
122.35 22.6426 4.75842410888311
122.4 26.5401 5.15170845448381
122.45 28.055 5.29669708403265
122.5 27.5229 5.246227215819
122.55 24.7023 4.97014084307477
122.6 31.534 5.61551422400478
122.65 33.6627 5.80195656653857
122.7 31.3315 5.59745477873649
122.75 41.8037 6.46557808707002
122.8 25.4925 5.04900980391205
122.85 26.1792 5.11656134527868
122.9 28.6337 5.35104662659559
122.95 39.8707 6.31432498371758
123 30.3803 5.51183272605401
123.05 34.1255 5.84170351866645
123.1 33.1897 5.76105025147325
123.15 21.7719 4.66603686226331
123.2 29.6942 5.44923847890694
123.25 37.4173 6.11696820328502
123.3 31.9857 5.65559015488216
123.35 24.7408 4.97401246480143
123.4 36.3778 6.03140116390876
123.45 30.9067 5.55937946177449
123.5 26.6463 5.16200542425132
123.55 22.6434 4.75850816958424
123.6 33.639 5.79991379246278
123.65 34.1829 5.84661440493556
123.7 25.0275 5.00274924416565
123.75 29.2178 5.40534920241052
123.8 22.8117 4.77615954507385
123.85 38.6781 6.21917197060831
123.9 36.4845 6.04024006145451
123.95 24.0304 4.9020811906781
124 27.3428 5.22903432767466
124.05 35.7968 5.98304270417653
124.1 44.5659 6.67576961855335
124.15 30.2862 5.50328992512661
124.2 33.8518 5.81822997139164
124.25 17.3167 4.16133392075185
124.3 30.8406 5.55343137168364
124.35 24.9621 4.99620856250017
124.4 25.1455 5.01452889113225
124.45 20.6193 4.54084793843617
124.5 35.227 5.9352337780411
124.55 29.8687 5.46522643629704
124.6 29.3794 5.4202767457022
124.65 29.4785 5.42941064941675
124.7 32.1964 5.67418716645829
124.75 30.1785 5.49349615454494
124.8 23.7131 4.86960984063405
124.85 29.0264 5.38761542799781
124.9 32.826 5.72939787412255
124.95 30.9612 5.56427892902575
125 31.8072 5.63978723002916
125.05 28.5798 5.34600785633542
125.1 30.0773 5.48427752762385
125.15 30.2488 5.49989090800899
125.2 34.0662 5.8366257375302
125.25 21.699 4.65821854360656
125.3 28.5267 5.34103922472022
125.35 30.4546 5.51856865500466
125.4 32.5739 5.70735490398135
125.45 32.9924 5.74390111335493
125.5 41.6797 6.45598172240288
125.55 23.6287 4.86093612383458
125.6 25.6995 5.06946742764957
125.65 20.2524 4.5002666587659
125.7 29.4351 5.42541242671928
125.75 28.1907 5.30949150107616
125.8 30.4944 5.52217348514152
125.85 27.5518 5.24898085346098
125.9 22.1127 4.70241427354077
125.95 20.333 4.50921279160787
126 37.6771 6.13816747897937
126.05 32.8972 5.73560807587129
126.1 25.606 5.06023714859294
126.15 21.7135 4.6597746726639
126.2 30.1835 5.49395121929564
126.25 34.1182 5.84107866750654
126.3 36.8337 6.06907735986286
126.35 34.4554 5.86987223029599
126.4 21.7164 4.66008583611933
126.45 33.1319 5.75603161909314
126.5 27.8678 5.27899611668734
126.55 29.9054 5.46858299745007
126.6 29.9069 5.46872014277564
126.65 33.4483 5.78345052715073
126.7 30.8655 5.55567277654111
126.75 40.6392 6.37488823431439
126.8 22.3186 4.72425655526878
126.85 25.554 5.05509643824923
126.9 26.3833 5.13646765783646
126.95 21.2039 4.60476926674942
127 24.351 4.93467324146189
127.05 27.2139 5.21669435562407
127.1 24.0591 4.90500764525398
127.15 30.0862 5.48508887804017
127.2 24.6364 4.9635068248165
127.25 30.4829 5.52113213027908
127.3 30.0822 5.48472424101705
127.35 23.4667 4.84424400706653
127.4 36.4908 6.04076154139526
127.45 23.8501 4.88365641707113
127.5 40.2129 6.34136420654105
127.55 39.6479 6.29665784365007
127.6 21.3204 4.6174018668511
127.65 34.0361 5.83404662305676
127.7 23.4746 4.84505933916191
127.75 34.9262 5.90983925331307
127.8 19.9038 4.46136750335589
127.85 16.033 4.00412287523747
127.9 24.8987 4.98985971746702
127.95 30.3202 5.50637811996234
128 38.8016 6.22909303189477
128.05 47.3451 6.88077757233875
128.1 43.3068 6.58079022610507
128.15 37.2383 6.10231923124315
128.2 32.7545 5.72315472445049
128.25 33.9538 5.82698893082868
128.3 36.1826 6.01519741986911
128.35 39.1068 6.25354299577448
128.4 33.7037 5.80548878217847
128.45 24.7895 4.97890550221633
128.5 39.4812 6.28340671928851
128.55 34.7766 5.89716881223524
128.6 41.8434 6.46864746295545
128.65 35.1221 5.9263901322812
128.7 24.2698 4.92643887610513
128.75 32.0283 5.65935508693349
128.8 27.5839 5.25203769978853
128.85 36.7251 6.06012376111247
128.9 37.6768 6.13814304166985
128.95 38.5532 6.20912232123027
129 31.3017 5.59479222134299
129.05 33.9382 5.82565017830628
129.1 29.6785 5.44779772018015
129.15 39.6996 6.30076185869614
129.2 38.8396 6.23214248874334
129.25 38.4933 6.20429689811827
129.3 28.42 5.33104117410474
129.35 24.1934 4.9186786843623
129.4 33.826 5.81601237962919
129.45 37.5665 6.1291516541851
129.5 27.4172 5.23614361911512
129.55 19.4975 4.41559735483207
129.6 32.6358 5.71277515748695
129.65 30.1455 5.49049178125239
129.7 41.2981 6.42635977828817
129.75 31.8841 5.64660074735234
129.8 24.8126 4.98122474899497
129.85 21.3387 4.61938307569312
129.9 32.0718 5.66319697697334
129.95 26.5806 5.15563769091661
130 9.3164 3.05227783794333
130 9.3164 3.05227783794333
