
#Surface 0 of 1 surfaces

#IsoCurve 0, 1801 points
#x y z type
 40  50.9356  33.4107 i
 40.05  39.5222  33.4078 i
 40.1  33.7484  33.4049 i
 40.15  43.5738  33.4021 i
 40.2  40.8431  33.3993 i
 40.25  39.995  33.3965 i
 40.3  41.5446  33.3937 i
 40.35  42.5775  33.3908 i
 40.4  34.6092  33.3879 i
 40.45  42.6772  33.385 i
 40.5  39.5808  33.382 i
 40.55  41.0786  33.379 i
 40.6  43.3082  33.376 i
 40.65  33.7938  33.3729 i
 40.7  31.8268  33.3698 i
 40.75  30.6344  33.3668 i
 40.8  36.0504  33.3637 i
 40.85  33.0255  33.3607 i
 40.9  33.2301  33.3577 i
 40.95  43.1249  33.3548 i
 41  45.9716  33.3519 i
 41.05  43.7289  33.3493 i
 41.1  42.2274  33.3466 i
 41.15  38.9199  33.3442 i
 41.2  32.3443  33.3417 i
 41.25  38.2665  33.3395 i
 41.3  46.387  33.3373 i
 41.35  32.2934  33.3353 i
 41.4  38.3952  33.3333 i
 41.45  38.9968  33.3314 i
 41.5  40.7926  33.3296 i
 41.55  36.4399  33.3279 i
 41.6  36.267  33.3262 i
 41.65  31.5862  33.3245 i
 41.7  34.991  33.3229 i
 41.75  46.1418  33.3214 i
 41.8  38.0193  33.3198 i
 41.85  29.2718  33.3184 i
 41.9  34.735  33.317 i
 41.95  29.7976  33.3158 i
 42  21.8026  33.3146 i
 42.05  28.1345  33.3137 i
 42.1  41.1551  33.3128 i
 42.15  31.6848  33.3124 i
 42.2  20.0197  33.312 i
 42.25  37.4144  33.3122 i
 42.3  37.8992  33.3124 i
 42.35  37.4231  33.3134 i
 42.4  43.298  33.3144 i
 42.45  35.6569  33.3164 i
 42.5  28.9064  33.3183 i
 42.55  41.2304  33.3216 i
 42.6  36.4365  33.3248 i
 42.65  34.328  33.3295 i
 42.7  29.1717  33.3343 i
 42.75  31.3533  33.3411 i
 42.8  50.4467  33.3479 i
 42.85  45.7215  33.3449 i
 42.9  43.4014  33.3671 i
 42.95  36.992  33.3808 i
 43  34.194  33.3946 i
 43.05  33.9364  33.4159 i
 43.1  38.0418  33.4372 i
 43.15  38.1675  33.5143 i
 43.2  39.6639  33.5915 i
 43.25  36.2478  33.8913 i
 43.3  36.4908  34.1912 i
 43.35  42.4909  34.3147 i
 43.4  43.5326  34.4382 i
 43.45  39.0915  34.6087 i
 43.5  47.1077  34.7793 i
 43.55  44.2583  35.0287 i
 43.6  41.0295  35.2795 i
 43.65  45.1257  35.6645 i
 43.7  42.0135  36.0495 i
 43.75  40.4897  36.6784 i
 43.8  40.7682  37.3074 i
 43.85  43.0945  38.2927 i
 43.9  56.2838  39.5312 i
 43.95  40.4548  41.3791 i
 44  57.8221  43.9862 i
 44.05  62.2837  48.197 i
 44.1  85.4976  55.732 i
 44.15  101.5  74.7366 i
 44.2  163.585  142.189 i
 44.25  378.059  381.933 i
 44.3  1200.22  1003.72 i
 44.35  2137.27  1985.75 i
 44.4  2084.42  2657.79 i
 44.45  1432.03  1461.07 i
 44.5  451.744  239.195 i
 44.55  180.469  89.2952 i
 44.6  84.3203  60.8639 i
 44.65  65.9747  49.6731 i
 44.7  61.0946  43.9115 i
 44.75  48.0908  40.6857 i
 44.8  51.1395  38.6019 i
 44.85  42.0532  37.2737 i
 44.9  42.8902  36.3195 i
 44.95  42.5  35.7395 i
 45  44.9388  35.1595 i
 45.05  40.4211  34.8315 i
 45.1  37.936  34.5035 i
 45.15  31.1631  34.3031 i
 45.2  42.834  34.1027 i
 45.25  27.09  33.9727 i
 45.3  43.8242  33.8427 i
 45.35  45.8407  33.7537 i
 45.4  36.6288  33.6647 i
 45.45  46.579  33.6009 i
 45.5  37.9197  33.537 i
 45.55  44.4455  33.4754 i
 45.6  31.2415  33.4138 i
 45.65  33.0218  33.3268 i
 45.7  36.2327  33.2399 i
 45.75  31.4729  33.2153 i
 45.8  25.1858  33.1907 i
 45.85  35.4593  33.1727 i
 45.9  32.2347  33.1547 i
 45.95  28.0252  33.1412 i
 46  25.1439  33.1277 i
 46.05  42.0494  33.1173 i
 46.1  31.809  33.107 i
 46.15  43.1139  33.0986 i
 46.2  38.3707  33.0903 i
 46.25  37.3599  33.083 i
 46.3  50.2744  33.0757 i
 46.35  26.9277  33.0687 i
 46.4  33.0119  33.0616 i
 46.45  41.8952  33.0546 i
 46.5  33.7675  33.0475 i
 46.55  42.3077  33.0403 i
 46.6  34.4743  33.0332 i
 46.65  36.8827  33.0264 i
 46.7  42.5846  33.0196 i
 46.75  34.3855  33.0135 i
 46.8  38.294  33.0075 i
 46.85  35.5651  33.0025 i
 46.9  33.7808  32.9975 i
 46.95  43.1371  32.9936 i
 47  33.7037  32.9898 i
 47.05  37.8134  32.9866 i
 47.1  34.0987  32.9835 i
 47.15  38.6264  32.9804 i
 47.2  39.7034  32.9773 i
 47.25  34.5154  32.9738 i
 47.3  47.931  32.9702 i
 47.35  35.7378  32.9659 i
 47.4  40.2357  32.9615 i
 47.45  26.9129  32.9564 i
 47.5  35.4933  32.9514 i
 47.55  39.0563  32.9463 i
 47.6  32.4427  32.9411 i
 47.65  45.3211  32.9366 i
 47.7  31.7496  32.932 i
 47.75  36.7516  32.9285 i
 47.8  34.2534  32.925 i
 47.85  32.8584  32.9225 i
 47.9  37.3772  32.92 i
 47.95  29.2691  32.9179 i
 48  38.9962  32.9159 i
 48.05  39.9369  32.9135 i
 48.1  36.8821  32.9111 i
 48.15  38.5393  32.9078 i
 48.2  42.7613  32.9045 i
 48.25  30.7573  32.9004 i
 48.3  35.0602  32.8963 i
 48.35  33.799  32.8919 i
 48.4  31.3787  32.8875 i
 48.45  29.8062  32.8835 i
 48.5  35.9543  32.8795 i
 48.55  30.3773  32.8764 i
 48.6  35.3931  32.8732 i
 48.65  30.4082  32.8707 i
 48.7  32.3725  32.8681 i
 48.75  26.4477  32.8656 i
 48.8  26.9503  32.863 i
 48.85  24.3012  32.8597 i
 48.9  33.9372  32.8565 i
 48.95  34.8373  32.8525 i
 49  31.2826  32.8485 i
 49.05  35.5058  32.8443 i
 49.1  31.12  32.8401 i
 49.15  35.6913  32.8366 i
 49.2  29.3027  32.8331 i
 49.25  28.3981  32.8306 i
 49.3  25.0442  32.8282 i
 49.35  35.4684  32.8263 i
 49.4  35.3563  32.8244 i
 49.45  33.0377  32.8221 i
 49.5  31.8068  32.8199 i
 49.55  32.0996  32.8167 i
 49.6  24.0452  32.8135 i
 49.65  35.855  32.8095 i
 49.7  37.4795  32.8056 i
 49.75  40.8451  32.8016 i
 49.8  39.2289  32.7977 i
 49.85  25.0575  32.7945 i
 49.9  43.3595  32.7913 i
 49.95  39.0373  32.7887 i
 50  37.9769  32.7861 i
 50.05  43.4921  32.7834 i
 50.1  31.799  32.7807 i
 50.15  31.5482  32.7772 i
 50.2  28.2066  32.7737 i
 50.25  32.4019  32.7696 i
 50.3  25.4904  32.7656 i
 50.35  31.2777  32.7619 i
 50.4  39.6394  32.7581 i
 50.45  34.3314  32.7554 i
 50.5  31.1654  32.7527 i
 50.55  33.4748  32.7507 i
 50.6  20.9375  32.7486 i
 50.65  34.1893  32.7463 i
 50.7  35.7658  32.744 i
 50.75  34.2404  32.7408 i
 50.8  19.3156  32.7375 i
 50.85  40.098  32.7338 i
 50.9  39.9812  32.7301 i
 50.95  33.1682  32.7269 i
 51  41.9292  32.7236 i
 51.05  30.1187  32.7211 i
 51.1  42.1705  32.7185 i
 51.15  32.1408  32.7159 i
 51.2  36.9905  32.7133 i
 51.25  42.3937  32.7099 i
 51.3  35.781  32.7065 i
 51.35  28.2812  32.7024 i
 51.4  34.2193  32.6983 i
 51.45  41.2838  32.6946 i
 51.5  28.0655  32.6909 i
 51.55  40.0498  32.6881 i
 51.6  38.9556  32.6853 i
 51.65  36.3573  32.683 i
 51.7  30.9239  32.6806 i
 51.75  22.9345  32.6776 i
 51.8  40.1015  32.6746 i
 51.85  36.7824  32.6711 i
 51.9  26.6054  32.6675 i
 51.95  42.2174  32.6644 i
 52  35.9208  32.6612 i
 52.05  22.1967  32.6589 i
 52.1  37.0891  32.6566 i
 52.15  24.439  32.6543 i
 52.2  32.1237  32.652 i
 52.25  38.2421  32.6489 i
 52.3  33.1047  32.6457 i
 52.35  40.0426  32.642 i
 52.4  25.0494  32.6382 i
 52.45  36.5992  32.6348 i
 52.5  28.2492  32.6315 i
 52.55  36.8013  32.6288 i
 52.6  28.4712  32.6261 i
 52.65  39.5762  32.6231 i
 52.7  33.8587  32.6202 i
 52.75  28.8091  32.6164 i
 52.8  41.714  32.6127 i
 52.85  44.2668  32.609 i
 52.9  32.9794  32.6052 i
 52.95  37.5971  32.6024 i
 53  30.0739  32.5996 i
 53.05  27.1933  32.5973 i
 53.1  30.7919  32.5949 i
 53.15  41.4752  32.5919 i
 53.2  27.5155  32.5889 i
 53.25  21.1259  32.5855 i
 53.3  27.2822  32.5821 i
 53.35  31.0979  32.5793 i
 53.4  32.6945  32.5765 i
 53.45  33.2156  32.5742 i
 53.5  22.7821  32.572 i
 53.55  44.8206  32.5691 i
 53.6  33.7495  32.5662 i
 53.65  23.1482  32.5626 i
 53.7  26.872  32.559 i
 53.75  31.3692  32.5557 i
 53.8  40.8326  32.5524 i
 53.85  29.6635  32.5496 i
 53.9  31.3655  32.5469 i
 53.95  32.7749  32.5437 i
 54  29.6892  32.5406 i
 54.05  37.116  32.5368 i
 54.1  23.3529  32.533 i
 54.15  38.2085  32.5296 i
 54.2  34.8188  32.5262 i
 54.25  25.0042  32.5236 i
 54.3  33.2233  32.521 i
 54.35  21.1445  32.5181 i
 54.4  34.4006  32.5153 i
 54.45  39.7575  32.5119 i
 54.5  28.3528  32.5085 i
 54.55  18.6999  32.5056 i
 54.6  38.7877  32.5027 i
 54.65  33.1358  32.5004 i
 54.7  30.4837  32.4981 i
 54.75  29.6267  32.4953 i
 54.8  53.9054  32.4924 i
 54.85  43.1645  32.4892 i
 54.9  37.4686  32.4857 i
 54.95  32.1344  32.4828 i
 55  30.8344  32.4799 i
 55.05  38.6458  32.4771 i
 55.1  29.634  32.4744 i
 55.15  45.8298  32.471 i
 55.2  29.8256  32.4675 i
 55.25  41.3581  32.4639 i
 55.3  32.9573  32.4602 i
 55.35  36.8349  32.4573 i
 55.4  32.6688  32.4543 i
 55.45  35.135  32.4512 i
 55.5  30.976  32.4482 i
 55.55  46.0812  32.4447 i
 55.6  30.0751  32.4412 i
 55.65  37.0817  32.4381 i
 55.7  23.2511  32.435 i
 55.75  32.1214  32.4324 i
 55.8  35.375  32.4299 i
 55.85  26.3629  32.427 i
 55.9  29.4932  32.424 i
 55.95  31.2355  32.4209 i
 56  34.4942  32.4178 i
 56.05  25.6651  32.4152 i
 56.1  21.1381  32.4127 i
 56.15  28.2225  32.41 i
 56.2  31.1394  32.4073 i
 56.25  26.82  32.404 i
 56.3  29.8372  32.4006 i
 56.35  24.7881  32.3976 i
 56.4  33.9741  32.3945 i
 56.45  33.6207  32.3916 i
 56.5  36.7681  32.3887 i
 56.55  37.3887  32.3852 i
 56.6  37.956  32.3817 i
 56.65  26.9033  32.3783 i
 56.7  36.4554  32.3748 i
 56.75  29.4872  32.3719 i
 56.8  31.9572  32.3689 i
 56.85  34.0673  32.3656 i
 56.9  28.3878  32.3623 i
 56.95  30.7043  32.3591 i
 57  31.584  32.3558 i
 57.05  30.6917  32.353 i
 57.1  39.5901  32.3503 i
 57.15  33.7894  32.3474 i
 57.2  35.5981  32.3446 i
 57.25  28.0599  32.3416 i
 57.3  28.7338  32.3385 i
 57.35  26.527  32.3359 i
 57.4  29.3217  32.3333 i
 57.45  36.856  32.3305 i
 57.5  32.539  32.3278 i
 57.55  30.7117  32.3246 i
 57.6  26.3878  32.3215 i
 57.65  31.1328  32.3186 i
 57.7  35.818  32.3156 i
 57.75  36.5329  32.3126 i
 57.8  36.4137  32.3095 i
 57.85  43.0494  32.3061 i
 57.9  25.2836  32.3027 i
 57.95  28.9569  32.2995 i
 58  34.963  32.2963 i
 58.05  26.8357  32.293 i
 58.1  26.4052  32.2898 i
 58.15  33.3595  32.2864 i
 58.2  29.1381  32.2831 i
 58.25  23.1663  32.28 i
 58.3  38.9837  32.277 i
 58.35  33.2459  32.274 i
 58.4  33.8823  32.271 i
 58.45  28.9435  32.268 i
 58.5  25.9701  32.265 i
 58.55  29.7985  32.2623 i
 58.6  30.9936  32.2595 i
 58.65  23.5424  32.2568 i
 58.7  25.558  32.254 i
 58.75  33.7057  32.2511 i
 58.8  35.4687  32.2483 i
 58.85  37.3662  32.2455 i
 58.9  24.6902  32.2428 i
 58.95  36.3878  32.2398 i
 59  22.9212  32.2368 i
 59.05  26.2485  32.2337 i
 59.1  27.0757  32.2306 i
 59.15  40.1654  32.2275 i
 59.2  36.745  32.2244 i
 59.25  23.6502  32.2211 i
 59.3  30.162  32.2178 i
 59.35  23.7288  32.2145 i
 59.4  25.8005  32.2113 i
 59.45  39.4096  32.208 i
 59.5  33.384  32.2048 i
 59.55  33.6553  32.2016 i
 59.6  31.035  32.1985 i
 59.65  36.6175  32.1956 i
 59.7  20.3557  32.1927 i
 59.75  24.4649  32.1897 i
 59.8  30.0817  32.1867 i
 59.85  34.5278  32.1838 i
 59.9  36.3516  32.1809 i
 59.95  32.489  32.178 i
 60  35.9221  32.1752 i
 60.05  29.1406  32.1724 i
 60.1  23.3775  32.1695 i
 60.15  28.2964  32.1667 i
 60.2  44.063  32.1639 i
 60.25  31.5663  32.1611 i
 60.3  30.2569  32.1583 i
 60.35  21.1446  32.1554 i
 60.4  31.6966  32.1526 i
 60.45  29.6281  32.1497 i
 60.5  31.3874  32.1467 i
 60.55  27.72  32.1438 i
 60.6  33.9832  32.1408 i
 60.65  25.3607  32.1379 i
 60.7  29.0095  32.1349 i
 60.75  34.2648  32.1319 i
 60.8  28.4201  32.1289 i
 60.85  25.661  32.1259 i
 60.9  25.9915  32.123 i
 60.95  49.2777  32.1201 i
 61  41.5223  32.1172 i
 61.05  34.6463  32.1144 i
 61.1  24.2049  32.1116 i
 61.15  31.2234  32.1089 i
 61.2  42.6454  32.1063 i
 61.25  32.5289  32.1037 i
 61.3  37.2495  32.1011 i
 61.35  34.2769  32.0987 i
 61.4  34.4268  32.0962 i
 61.45  31.6804  32.0939 i
 61.5  35.1568  32.0915 i
 61.55  33.6684  32.0892 i
 61.6  29.3883  32.0869 i
 61.65  24.2116  32.0847 i
 61.7  25.9467  32.0825 i
 61.75  24.9321  32.0803 i
 61.8  35.129  32.0781 i
 61.85  32.9138  32.076 i
 61.9  41.8601  32.0739 i
 61.95  26.5733  32.0719 i
 62  30.7829  32.0699 i
 62.05  30.0685  32.068 i
 62.1  31.9571  32.0661 i
 62.15  30.2378  32.0644 i
 62.2  32.9079  32.0628 i
 62.25  40.566  32.0614 i
 62.3  25.0511  32.06 i
 62.35  28.9037  32.059 i
 62.4  41.2277  32.058 i
 62.45  32.3375  32.0575 i
 62.5  17.0702  32.057 i
 62.55  35.7033  32.0572 i
 62.6  26.9699  32.0573 i
 62.65  36.2402  32.0583 i
 62.7  32.4024  32.0592 i
 62.75  33.2288  32.0612 i
 62.8  43.0681  32.0631 i
 62.85  31.2217  32.0664 i
 62.9  27.1882  32.0696 i
 62.95  33.1349  32.0745 i
 63  25.2544  32.0794 i
 63.05  30.2044  32.0866 i
 63.1  31.4996  32.0938 i
 63.15  36.6349  32.1043 i
 63.2  31.4633  32.1148 i
 63.25  42.3265  32.1303 i
 63.3  33.0877  32.1459 i
 63.35  28.262  32.1708 i
 63.4  35.3867  32.1958 i
 63.45  30.1809  32.2421 i
 63.5  27.8584  32.2885 i
 63.55  27.8038  32.3519 i
 63.6  34.1359  32.4153 i
 63.65  36.3949  32.4875 i
 63.7  35.0784  32.5597 i
 63.75  28.6543  32.6589 i
 63.8  33.4808  32.758 i
 63.85  35.8371  32.9047 i
 63.9  39.1336  33.0514 i
 63.95  24.439  33.2789 i
 64  29.6568  33.5063 i
 64.05  27.514  33.8778 i
 64.1  32.1718  34.2493 i
 64.15  36.1031  34.899 i
 64.2  39.4241  35.5488 i
 64.25  37.4359  36.8002 i
 64.3  30.7185  38.0516 i
 64.35  33.9657  40.84 i
 64.4  36.8985  43.6283 i
 64.45  48.7269  49.2357 i
 64.5  66.2035  59.0689 i
 64.55  68.3827  76.6976 i
 64.6  94.0906  105.754 i
 64.65  131.294  142.495 i
 64.7  151.889  167.54 i
 64.75  146.823  157.347 i
 64.8  87.8711  119.102 i
 64.85  87.3451  83.5919 i
 64.9  49.5502  61.795 i
 64.95  42.7131  50.3574 i
 65  42.0787  44.0558 i
 65.05  41.8782  41.0249 i
 65.1  36.0201  37.994 i
 65.15  29.8985  36.6835 i
 65.2  29.1132  35.3731 i
 65.25  33.4866  34.7105 i
 65.3  35.238  34.048 i
 65.35  28.4352  33.6758 i
 65.4  21.9956  33.3036 i
 65.45  20.9737  33.0782 i
 65.5  26.7257  32.8527 i
 65.55  31.6831  32.708 i
 65.6  33.8961  32.5633 i
 65.65  30.6335  32.4658 i
 65.7  33.2532  32.3682 i
 65.75  32.7148  32.2986 i
 65.8  31.9106  32.2291 i
 65.85  25.773  32.1734 i
 65.9  31.1109  32.1176 i
 65.95  30.5638  32.073 i
 66  41.9554  32.0285 i
 66.05  31.8245  31.999 i
 66.1  40.1952  31.9696 i
 66.15  28.7424  31.9482 i
 66.2  32.6005  31.9268 i
 66.25  37.2686  31.9101 i
 66.3  35.2511  31.8933 i
 66.35  34.0269  31.8798 i
 66.4  37.7351  31.8662 i
 66.45  31.4247  31.8549 i
 66.5  23.546  31.8435 i
 66.55  29.8152  31.8339 i
 66.6  26.8758  31.8242 i
 66.65  26.1062  31.8158 i
 66.7  39.6785  31.8074 i
 66.75  32.0723  31.8 i
 66.8  37.7342  31.7926 i
 66.85  41.8388  31.786 i
 66.9  24.5177  31.7794 i
 66.95  36.7586  31.7734 i
 67  30.9275  31.7675 i
 67.05  35.4242  31.762 i
 67.1  29.9298  31.7565 i
 67.15  32.6728  31.7514 i
 67.2  25.6482  31.7463 i
 67.25  34.1947  31.7415 i
 67.3  29.2746  31.7367 i
 67.35  38.3504  31.7321 i
 67.4  28.0163  31.7275 i
 67.45  27.642  31.7231 i
 67.5  28.7248  31.7187 i
 67.55  29.571  31.7144 i
 67.6  22.7345  31.7101 i
 67.65  37.2505  31.7059 i
 67.7  38.3247  31.7017 i
 67.75  24.3814  31.6976 i
 67.8  31.1883  31.6935 i
 67.85  27.9869  31.6894 i
 67.9  31.9542  31.6854 i
 67.95  37.8434  31.6814 i
 68  33.9616  31.6774 i
 68.05  25.0531  31.6735 i
 68.1  33.2883  31.6696 i
 68.15  31.6618  31.6657 i
 68.2  27.3823  31.6619 i
 68.25  30.0377  31.6582 i
 68.3  33.1886  31.6544 i
 68.35  32.9161  31.6508 i
 68.4  38.768  31.6471 i
 68.45  31.9083  31.6436 i
 68.5  20.6211  31.64 i
 68.55  28.0991  31.6365 i
 68.6  41.5197  31.633 i
 68.65  20.056  31.6295 i
 68.7  27.1451  31.626 i
 68.75  24.1738  31.6226 i
 68.8  31.8238  31.6191 i
 68.85  34.6858  31.6157 i
 68.9  33.5526  31.6122 i
 68.95  24.1754  31.6088 i
 69  34.3118  31.6053 i
 69.05  33.1277  31.6018 i
 69.1  34.0754  31.5983 i
 69.15  33.4477  31.5948 i
 69.2  22.2351  31.5913 i
 69.25  27.0972  31.5878 i
 69.3  23.0703  31.5843 i
 69.35  28.8426  31.5808 i
 69.4  32.7545  31.5773 i
 69.45  31.9095  31.5737 i
 69.5  29.1266  31.5702 i
 69.55  39.8914  31.5667 i
 69.6  36.2203  31.5632 i
 69.65  40.3997  31.5597 i
 69.7  25.2154  31.5563 i
 69.75  31.2072  31.5528 i
 69.8  32.6048  31.5494 i
 69.85  27.1692  31.546 i
 69.9  37.3003  31.5426 i
 69.95  30.8779  31.5392 i
 70  32.7486  31.5359 i
 70.05  30.1122  31.5325 i
 70.1  27.987  31.5292 i
 70.15  31.303  31.5259 i
 70.2  37.9627  31.5225 i
 70.25  27.685  31.5192 i
 70.3  23.7356  31.5159 i
 70.35  31.2004  31.5125 i
 70.4  34.6825  31.5092 i
 70.45  33.9508  31.5058 i
 70.5  24.362  31.5024 i
 70.55  23.5212  31.499 i
 70.6  32.8535  31.4956 i
 70.65  30.784  31.4922 i
 70.7  46.2617  31.4887 i
 70.75  31.3148  31.4853 i
 70.8  32.3014  31.4818 i
 70.85  31.2103  31.4784 i
 70.9  28.7272  31.4749 i
 70.95  29.279  31.4715 i
 71  27.5787  31.468 i
 71.05  33.1788  31.4646 i
 71.1  24.1863  31.4611 i
 71.15  34.0698  31.4577 i
 71.2  34.7332  31.4543 i
 71.25  25.5603  31.4509 i
 71.3  23.4693  31.4475 i
 71.35  33.9409  31.4441 i
 71.4  34.8891  31.4407 i
 71.45  24.8814  31.4373 i
 71.5  37.2614  31.434 i
 71.55  27.859  31.4306 i
 71.6  21.7905  31.4273 i
 71.65  27.0768  31.4239 i
 71.7  36.1935  31.4205 i
 71.75  40.6803  31.4172 i
 71.8  32.7409  31.4138 i
 71.85  31.6564  31.4104 i
 71.9  43.3901  31.4071 i
 71.95  39.3856  31.4037 i
 72  28.2618  31.4003 i
 72.05  32.4128  31.3969 i
 72.1  32.6352  31.3934 i
 72.15  26.913  31.39 i
 72.2  30.7031  31.3865 i
 72.25  28.3626  31.3831 i
 72.3  26.6574  31.3796 i
 72.35  29.2417  31.3762 i
 72.4  24.6718  31.3727 i
 72.45  31.8536  31.3692 i
 72.5  34.645  31.3658 i
 72.55  33.9735  31.3623 i
 72.6  23.3181  31.3589 i
 72.65  28.5851  31.3554 i
 72.7  38.4036  31.352 i
 72.75  50.224  31.3485 i
 72.8  35.0734  31.3451 i
 72.85  22.6605  31.3417 i
 72.9  34.1533  31.3383 i
 72.95  30.5629  31.3349 i
 73  28.9237  31.3314 i
 73.05  27.0586  31.328 i
 73.1  39.9048  31.3246 i
 73.15  27.8718  31.3212 i
 73.2  40.4374  31.3178 i
 73.25  41.6491  31.3144 i
 73.3  27.9883  31.311 i
 73.35  32.4723  31.3076 i
 73.4  28.396  31.3042 i
 73.45  18.8292  31.3007 i
 73.5  34.2871  31.2972 i
 73.55  36.608  31.2937 i
 73.6  30.2422  31.2902 i
 73.65  27.0395  31.2866 i
 73.7  30.3881  31.2831 i
 73.75  31.04  31.2794 i
 73.8  33.3802  31.2758 i
 73.85  38.9816  31.2721 i
 73.9  33.2182  31.2685 i
 73.95  34.2167  31.2647 i
 74  18.5273  31.261 i
 74.05  30.7263  31.2572 i
 74.1  23.3902  31.2535 i
 74.15  28.3616  31.2497 i
 74.2  31.1345  31.2459 i
 74.25  46.4665  31.2421 i
 74.3  30.6122  31.2382 i
 74.35  27.7451  31.2344 i
 74.4  28.5679  31.2305 i
 74.45  34.315  31.2266 i
 74.5  28.301  31.2227 i
 74.55  27.7949  31.2188 i
 74.6  37.9528  31.2149 i
 74.65  36.8016  31.2109 i
 74.7  33.8489  31.2069 i
 74.75  32.0652  31.2029 i
 74.8  27.1654  31.1989 i
 74.85  26.5279  31.1948 i
 74.9  31.2568  31.1908 i
 74.95  30.8954  31.1867 i
 75  41.2187  31.1826 i
 75.05  34.1135  31.1784 i
 75.1  30.3797  31.1743 i
 75.15  37.9081  31.1701 i
 75.2  25.1473  31.1659 i
 75.25  23.2678  31.1616 i
 75.3  26.4448  31.1574 i
 75.35  45.6279  31.1531 i
 75.4  44.8077  31.1489 i
 75.45  36.3593  31.1446 i
 75.5  30.3299  31.1403 i
 75.55  21.8562  31.1359 i
 75.6  29.8953  31.1316 i
 75.65  27.8476  31.1273 i
 75.7  33.5758  31.1229 i
 75.75  42.6948  31.1185 i
 75.8  30.8995  31.1142 i
 75.85  26.0188  31.1098 i
 75.9  30.2793  31.1054 i
 75.95  34.2476  31.1009 i
 76  37.9842  31.0965 i
 76.05  40.8676  31.0921 i
 76.1  34.4817  31.0876 i
 76.15  31.6244  31.0831 i
 76.2  36.5419  31.0786 i
 76.25  34.9835  31.0741 i
 76.3  27.691  31.0696 i
 76.35  32.2085  31.0651 i
 76.4  27.6207  31.0606 i
 76.45  34.684  31.056 i
 76.5  31.9848  31.0514 i
 76.55  27.4257  31.0468 i
 76.6  24.7625  31.0422 i
 76.65  34.1717  31.0376 i
 76.7  33.2828  31.033 i
 76.75  28.194  31.0284 i
 76.8  24.0494  31.0238 i
 76.85  38.7416  31.0191 i
 76.9  31.1695  31.0145 i
 76.95  31.0282  31.0098 i
 77  32.2342  31.0052 i
 77.05  27.5689  31.0005 i
 77.1  35.1268  30.9958 i
 77.15  32.1079  30.9911 i
 77.2  39.3439  30.9865 i
 77.25  27.0652  30.9818 i
 77.3  29.4572  30.9771 i
 77.35  30.8011  30.9724 i
 77.4  29.0532  30.9677 i
 77.45  30.6724  30.9629 i
 77.5  33.5901  30.9582 i
 77.55  24.9798  30.9535 i
 77.6  33.8325  30.9488 i
 77.65  25.847  30.944 i
 77.7  30.2999  30.9393 i
 77.75  26.3283  30.9345 i
 77.8  25.7821  30.9298 i
 77.85  33.3968  30.9251 i
 77.9  33.6489  30.9203 i
 77.95  27.763  30.9156 i
 78  37.0801  30.9108 i
 78.05  35.2656  30.9061 i
 78.1  30.8481  30.9013 i
 78.15  31.8142  30.8966 i
 78.2  32.417  30.8919 i
 78.25  42.0233  30.8872 i
 78.3  30.756  30.8825 i
 78.35  40.928  30.8778 i
 78.4  33.9353  30.8731 i
 78.45  22.3819  30.8685 i
 78.5  37.278  30.8638 i
 78.55  28.4994  30.8592 i
 78.6  31.4594  30.8546 i
 78.65  31.4254  30.85 i
 78.7  23.9237  30.8455 i
 78.75  23.9904  30.8409 i
 78.8  28.9175  30.8364 i
 78.85  32.1548  30.8319 i
 78.9  27.3315  30.8274 i
 78.95  34.0952  30.823 i
 79  37.8595  30.8185 i
 79.05  33.2346  30.8142 i
 79.1  35.6118  30.8098 i
 79.15  35.7408  30.8055 i
 79.2  32.6326  30.8012 i
 79.25  28.3955  30.7971 i
 79.3  37.1562  30.7929 i
 79.35  35.8628  30.7888 i
 79.4  36.3387  30.7847 i
 79.45  31.7342  30.7809 i
 79.5  36.5629  30.777 i
 79.55  28.2174  30.7734 i
 79.6  35.6178  30.7698 i
 79.65  31.7728  30.7664 i
 79.7  23.1175  30.7631 i
 79.75  30.8574  30.76 i
 79.8  36.2196  30.757 i
 79.85  37.7113  30.7544 i
 79.9  26.95  30.7519 i
 79.95  34.6753  30.7498 i
 80  29.541  30.7478 i
 80.05  25.4174  30.7464 i
 80.1  36.4672  30.7451 i
 80.15  27.244  30.7446 i
 80.2  36.1623  30.7441 i
 80.25  19.1549  30.7449 i
 80.3  25.928  30.7457 i
 80.35  29.7678  30.7481 i
 80.4  38.9481  30.7505 i
 80.45  23.1145  30.7552 i
 80.5  20.5103  30.76 i
 80.55  40.0407  30.7684 i
 80.6  30.2381  30.7767 i
 80.65  49.3688  30.7919 i
 80.7  25.6777  30.8071 i
 80.75  38.3771  30.853 i
 80.8  34.8499  30.8989 i
 80.85  26.7928  30.985 i
 80.9  37.3889  31.0711 i
 80.95  31.7471  31.1326 i
 81  36.082  31.194 i
 81.05  18.5954  31.2771 i
 81.1  30.4164  31.3603 i
 81.15  37.4814  31.4835 i
 81.2  26.5132  31.6067 i
 81.25  27.5229  31.7982 i
 81.3  29.826  31.9896 i
 81.35  35.7708  32.3043 i
 81.4  46.3944  32.6189 i
 81.45  29.3394  33.1765 i
 81.5  26.1576  33.7341 i
 81.55  34.5051  34.8405 i
 81.6  50.3464  35.9469 i
 81.65  46.5177  37.9559 i
 81.7  44.1063  41.2616 i
 81.75  56.6631  47.7246 i
 81.8  79.8148  60.7812 i
 81.85  131.49  95.7572 i
 81.9  221.054  177.513 i
 81.95  310.083  298.598 i
 82  255.266  349.493 i
 82.05  221.063  245.01 i
 82.1  122.475  121.729 i
 82.15  81.7051  67.7623 i
 82.2  61.9412  49.3988 i
 82.25  43.5143  41.8424 i
 82.3  44.7929  37.9973 i
 82.35  33.7114  36.1827 i
 82.4  30.8957  34.368 i
 82.45  29.0649  33.5728 i
 82.5  29.9285  32.7776 i
 82.55  45.4235  32.3651 i
 82.6  32.5712  31.9527 i
 82.65  19.6965  31.7144 i
 82.7  37.0215  31.4761 i
 82.75  27.5751  31.3276 i
 82.8  35.6102  31.179 i
 82.85  30.9305  31.0807 i
 82.9  27.4819  30.9824 i
 82.95  32.5655  30.9138 i
 83  34.139  30.8452 i
 83.05  37.4531  30.7929 i
 83.1  34.9748  30.7406 i
 83.15  32.3244  30.6765 i
 83.2  31.5492  30.6124 i
 83.25  32.3851  30.5775 i
 83.3  25.7667  30.5425 i
 83.35  36.6936  30.5217 i
 83.4  24.3075  30.5008 i
 83.45  27.1141  30.4847 i
 83.5  33.2558  30.4686 i
 83.55  16.2924  30.4554 i
 83.6  30.799  30.4422 i
 83.65  28.8261  30.431 i
 83.7  38.9351  30.4198 i
 83.75  31.4884  30.4101 i
 83.8  25.0769  30.4003 i
 83.85  34.6483  30.3917 i
 83.9  24.8229  30.383 i
 83.95  31.3799  30.3752 i
 84  26.5747  30.3674 i
 84.05  33.1121  30.3603 i
 84.1  29.4369  30.3532 i
 84.15  25.919  30.3466 i
 84.2  23.5956  30.3401 i
 84.25  20.3685  30.334 i
 84.3  22.4635  30.3279 i
 84.35  42.7407  30.3221 i
 84.4  33.7164  30.3164 i
 84.45  40.3982  30.311 i
 84.5  30.6839  30.3056 i
 84.55  28.1408  30.3005 i
 84.6  22.4444  30.2953 i
 84.65  30.1321  30.2904 i
 84.7  29.5108  30.2855 i
 84.75  38.4198  30.2808 i
 84.8  32.496  30.2761 i
 84.85  25.1537  30.2715 i
 84.9  23.137  30.2669 i
 84.95  34.3376  30.2625 i
 85  25.0077  30.258 i
 85.05  35.9024  30.2536 i
 85.1  28.9599  30.2493 i
 85.15  27.1188  30.245 i
 85.2  27.221  30.2407 i
 85.25  23.4535  30.2365 i
 85.3  36.3098  30.2323 i
 85.35  28.3356  30.2282 i
 85.4  25.9875  30.224 i
 85.45  37.806  30.22 i
 85.5  28.4772  30.2159 i
 85.55  25.2021  30.2119 i
 85.6  35.9573  30.2079 i
 85.65  33.0387  30.204 i
 85.7  27.2001  30.2002 i
 85.75  39.2427  30.1963 i
 85.8  22.7765  30.1925 i
 85.85  27.9865  30.1888 i
 85.9  26.2444  30.1851 i
 85.95  26.4549  30.1815 i
 86  35.9011  30.1779 i
 86.05  29.2096  30.1744 i
 86.1  29.9845  30.1709 i
 86.15  32.7848  30.1675 i
 86.2  30.1622  30.1641 i
 86.25  25.7186  30.1608 i
 86.3  21.2495  30.1575 i
 86.35  38.7533  30.1542 i
 86.4  30.6176  30.151 i
 86.45  24.9823  30.1478 i
 86.5  31.3293  30.1446 i
 86.55  20.1407  30.1415 i
 86.6  27.2517  30.1384 i
 86.65  35.7716  30.1353 i
 86.7  28.8515  30.1322 i
 86.75  35.0558  30.1292 i
 86.8  35.9016  30.1262 i
 86.85  31.5203  30.1232 i
 86.9  27.7743  30.1202 i
 86.95  30.832  30.1172 i
 87  26.044  30.1142 i
 87.05  19.9426  30.1113 i
 87.1  30.2721  30.1084 i
 87.15  33.2564  30.1056 i
 87.2  22.9108  30.1027 i
 87.25  30.9396  30.1 i
 87.3  37.814  30.0972 i
 87.35  35.6591  30.0945 i
 87.4  20.9947  30.0918 i
 87.45  21.9424  30.0892 i
 87.5  31.6631  30.0865 i
 87.55  17.2216  30.084 i
 87.6  37.0484  30.0815 i
 87.65  39.4857  30.0791 i
 87.7  33.8275  30.0766 i
 87.75  31.9918  30.0743 i
 87.8  36.6673  30.072 i
 87.85  34.0085  30.0697 i
 87.9  24.005  30.0675 i
 87.95  28.6043  30.0653 i
 88  27.2013  30.0631 i
 88.05  23.0065  30.061 i
 88.1  30.4324  30.0589 i
 88.15  30.1478  30.0569 i
 88.2  31.7028  30.0549 i
 88.25  30.9458  30.0529 i
 88.3  28.8007  30.0509 i
 88.35  26.8108  30.049 i
 88.4  27.3246  30.047 i
 88.45  23.2228  30.0452 i
 88.5  32.5585  30.0433 i
 88.55  31.5507  30.0415 i
 88.6  32.9889  30.0397 i
 88.65  21.1031  30.0379 i
 88.7  36.031  30.0361 i
 88.75  27.92  30.0344 i
 88.8  22.3814  30.0327 i
 88.85  32.4372  30.0311 i
 88.9  30.1938  30.0295 i
 88.95  26.6673  30.0279 i
 89  26.9106  30.0264 i
 89.05  31.5956  30.025 i
 89.1  26.9276  30.0235 i
 89.15  23.6865  30.0222 i
 89.2  34.5161  30.0208 i
 89.25  27.4408  30.0196 i
 89.3  30.1104  30.0183 i
 89.35  33.8  30.0172 i
 89.4  37.1827  30.016 i
 89.45  35.6649  30.015 i
 89.5  29.759  30.0139 i
 89.55  35.7174  30.013 i
 89.6  28.7553  30.012 i
 89.65  37.9853  30.0112 i
 89.7  28.0343  30.0103 i
 89.75  39.0407  30.0095 i
 89.8  24.2576  30.0087 i
 89.85  40.6936  30.008 i
 89.9  38.241  30.0073 i
 89.95  38.8308  30.0066 i
 90  29.1586  30.006 i
 90.05  34.565  30.0054 i
 90.1  28.9858  30.0048 i
 90.15  37.6121  30.0043 i
 90.2  34.6125  30.0038 i
 90.25  26.7024  30.0033 i
 90.3  28.6345  30.0029 i
 90.35  28.8134  30.0025 i
 90.4  27.6588  30.0021 i
 90.45  30.5438  30.0019 i
 90.5  31.5567  30.0016 i
 90.55  22.5297  30.0014 i
 90.6  26.772  30.0012 i
 90.65  36.7415  30.0011 i
 90.7  29.3818  30.001 i
 90.75  30.3127  30.001 i
 90.8  29.8515  30.001 i
 90.85  33.0936  30.0012 i
 90.9  30.7551  30.0013 i
 90.95  26.143  30.0016 i
 91  26.1332  30.0019 i
 91.05  24.8781  30.0022 i
 91.1  24.2474  30.0026 i
 91.15  21.6263  30.0031 i
 91.2  36.8811  30.0036 i
 91.25  23.2376  30.0042 i
 91.3  28.3468  30.0048 i
 91.35  24.8664  30.0055 i
 91.4  35.1717  30.0062 i
 91.45  36.0215  30.007 i
 91.5  26.7557  30.0078 i
 91.55  28.6312  30.0086 i
 91.6  30.447  30.0095 i
 91.65  28.5262  30.0104 i
 91.7  32.3954  30.0114 i
 91.75  29.2013  30.0124 i
 91.8  29.1299  30.0134 i
 91.85  31.4207  30.0145 i
 91.9  33.1754  30.0156 i
 91.95  35.9654  30.0168 i
 92  33.0674  30.0179 i
 92.05  25.7007  30.0192 i
 92.1  38.8136  30.0204 i
 92.15  33.7589  30.0218 i
 92.2  37.4884  30.0231 i
 92.25  36.8459  30.0245 i
 92.3  28.7597  30.026 i
 92.35  30.1467  30.0275 i
 92.4  38.8622  30.029 i
 92.45  28.2999  30.0307 i
 92.5  30.0375  30.0323 i
 92.55  26.3691  30.0341 i
 92.6  37.8535  30.0358 i
 92.65  28.143  30.0376 i
 92.7  31.5376  30.0395 i
 92.75  26.332  30.0414 i
 92.8  26.0465  30.0434 i
 92.85  25.174  30.0454 i
 92.9  30.7374  30.0475 i
 92.95  23.1567  30.0496 i
 93  17.6644  30.0517 i
 93.05  21.2554  30.0539 i
 93.1  29.8269  30.0562 i
 93.15  26.8671  30.0584 i
 93.2  27.3278  30.0607 i
 93.25  36.6923  30.0631 i
 93.3  34.7076  30.0654 i
 93.35  27.9217  30.0678 i
 93.4  29.9678  30.0702 i
 93.45  23.5741  30.0726 i
 93.5  36.6359  30.075 i
 93.55  26.0465  30.0776 i
 93.6  30.1724  30.0802 i
 93.65  28.2541  30.0828 i
 93.7  28.5781  30.0855 i
 93.75  24.4553  30.0882 i
 93.8  31.0314  30.091 i
 93.85  42.1737  30.0938 i
 93.9  23.0051  30.0967 i
 93.95  29.0472  30.0996 i
 94  25.3655  30.1025 i
 94.05  29.3285  30.1055 i
 94.1  26.8098  30.1085 i
 94.15  32.3446  30.1115 i
 94.2  33.3098  30.1146 i
 94.25  25.9572  30.1177 i
 94.3  30.8598  30.1209 i
 94.35  24.9628  30.1241 i
 94.4  33.7319  30.1273 i
 94.45  27.2931  30.1305 i
 94.5  26.9943  30.1338 i
 94.55  44.23  30.1371 i
 94.6  25.5349  30.1405 i
 94.65  23.2176  30.1439 i
 94.7  25.8229  30.1473 i
 94.75  31.4882  30.1508 i
 94.8  26.0633  30.1543 i
 94.85  28.7292  30.1579 i
 94.9  31.8774  30.1615 i
 94.95  34.3611  30.1651 i
 95  26.236  30.1688 i
 95.05  28.347  30.1726 i
 95.1  38.6055  30.1763 i
 95.15  24.936  30.1802 i
 95.2  31.371  30.1841 i
 95.25  33.2018  30.1881 i
 95.3  28.3039  30.1921 i
 95.35  35.1319  30.1962 i
 95.4  29.3675  30.2003 i
 95.45  34.5646  30.2046 i
 95.5  34.0903  30.2088 i
 95.55  31.0517  30.2132 i
 95.6  24.2469  30.2176 i
 95.65  38.1992  30.2222 i
 95.7  31.4595  30.2267 i
 95.75  36.4673  30.2314 i
 95.8  24.4644  30.2361 i
 95.85  18.6621  30.241 i
 95.9  34.0826  30.2459 i
 95.95  34.6744  30.251 i
 96  24.4358  30.2561 i
 96.05  33.2158  30.2614 i
 96.1  23.9111  30.2667 i
 96.15  25.1102  30.2723 i
 96.2  20.5252  30.2779 i
 96.25  26.7999  30.2839 i
 96.3  37.039  30.2898 i
 96.35  25.6341  30.2962 i
 96.4  22.26  30.3026 i
 96.45  29.6223  30.3094 i
 96.5  32.2977  30.3163 i
 96.55  30.3435  30.3239 i
 96.6  40.7516  30.3314 i
 96.65  41.4437  30.3397 i
 96.7  32.5396  30.3481 i
 96.75  38.1167  30.3575 i
 96.8  30.1782  30.367 i
 96.85  32.28  30.3778 i
 96.9  39.5038  30.3887 i
 96.95  31.9514  30.4015 i
 97  37.1741  30.4142 i
 97.05  31.2335  30.4297 i
 97.1  32.976  30.4452 i
 97.15  25.8214  30.4647 i
 97.2  27.8998  30.4842 i
 97.25  29.3423  30.5116 i
 97.3  36.2371  30.539 i
 97.35  31.3338  30.5889 i
 97.4  26.5807  30.6387 i
 97.45  31.0708  30.6926 i
 97.5  32.5829  30.7465 i
 97.55  30.8944  30.8098 i
 97.6  31.6593  30.873 i
 97.65  30.4614  30.9602 i
 97.7  32.2741  31.0473 i
 97.75  32.395  31.1746 i
 97.8  26.3563  31.3019 i
 97.85  31.7281  31.4984 i
 97.9  27.669  31.695 i
 97.95  32.8093  32.0199 i
 98  29.3902  32.3448 i
 98.05  40.9557  32.9339 i
 98.1  34.0194  33.5229 i
 98.15  30.7108  34.7482 i
 98.2  29.0278  35.9735 i
 98.25  42.3133  38.3259 i
 98.3  49.2349  42.4357 i
 98.35  65.6647  50.5047 i
 98.4  77.2636  67.8446 i
 98.45  107.625  102.532 i
 98.5  158.086  151.777 i
 98.55  164.085  182.404 i
 98.6  121.742  160.417 i
 98.65  93.9584  110.108 i
 98.7  66.7557  72.7955 i
 98.75  54.6896  54.5551 i
 98.8  46.7055  45.0458 i
 98.85  46.4848  40.2753 i
 98.9  38.6701  37.4641 i
 98.95  40.3194  35.9699 i
 99  39.3977  34.4756 i
 99.05  39.3143  33.7498 i
 99.1  41.2685  33.024 i
 99.15  26.2152  32.6243 i
 99.2  29.2371  32.2246 i
 99.25  32.3366  31.9851 i
 99.3  30.7442  31.7456 i
 99.35  36.226  31.5931 i
 99.4  27.7866  31.4406 i
 99.45  25.6293  31.3385 i
 99.5  34.1215  31.2365 i
 99.55  33.1587  31.1639 i
 99.6  28.1522  31.0914 i
 99.65  28.8748  31.0272 i
 99.7  32.2921  30.963 i
 99.75  31.0141  30.8916 i
 99.8  30.1411  30.8203 i
 99.85  25.8175  30.7925 i
 99.9  14.7164  30.7646 i
 99.95  25.5423  30.751 i
 100  25.6895  30.7374 i
 100.05  26.4604  30.7294 i
 100.1  28.2009  30.7215 i
 100.15  40.6651  30.7169 i
 100.2  28.208  30.7123 i
 100.25  31.3973  30.7099 i
 100.3  31.5272  30.7075 i
 100.35  18.0209  30.7067 i
 100.4  22.7795  30.706 i
 100.45  38.5646  30.7064 i
 100.5  28.8079  30.7068 i
 100.55  37.3617  30.7081 i
 100.6  43.888  30.7094 i
 100.65  32.0846  30.7114 i
 100.7  22.3617  30.7134 i
 100.75  25.7262  30.7159 i
 100.8  34.7152  30.7185 i
 100.85  24.8457  30.7214 i
 100.9  24.9265  30.7244 i
 100.95  31.967  30.7276 i
 101  29.8097  30.7309 i
 101.05  21.4698  30.7345 i
 101.1  29.7765  30.738 i
 101.15  30.2998  30.7418 i
 101.2  24.8191  30.7455 i
 101.25  29.8173  30.7495 i
 101.3  36.662  30.7534 i
 101.35  40.8045  30.7574 i
 101.4  30.3958  30.7615 i
 101.45  31.5958  30.7656 i
 101.5  28.9453  30.7698 i
 101.55  29.6314  30.774 i
 101.6  34.6348  30.7783 i
 101.65  33.2215  30.7826 i
 101.7  22.3913  30.7869 i
 101.75  30.5829  30.7913 i
 101.8  33.2032  30.7958 i
 101.85  27.3414  30.8002 i
 101.9  33.5473  30.8046 i
 101.95  28.7832  30.809 i
 102  37.4577  30.8135 i
 102.05  24.3556  30.8179 i
 102.1  38.0925  30.8224 i
 102.15  31.3689  30.8269 i
 102.2  28.7415  30.8314 i
 102.25  30.0231  30.8359 i
 102.3  27.9953  30.8405 i
 102.35  32.2376  30.845 i
 102.4  37.3748  30.8496 i
 102.45  32.8213  30.8542 i
 102.5  31.8806  30.8587 i
 102.55  23.4348  30.8633 i
 102.6  36.3112  30.8679 i
 102.65  31.5849  30.8725 i
 102.7  36.4369  30.8772 i
 102.75  23.3518  30.8818 i
 102.8  36.1508  30.8864 i
 102.85  32.5992  30.891 i
 102.9  30.3152  30.8956 i
 102.95  23.7787  30.9003 i
 103  30.2863  30.9049 i
 103.05  23.8168  30.9095 i
 103.1  26.7309  30.9141 i
 103.15  29.2947  30.9186 i
 103.2  21.6642  30.9232 i
 103.25  34.3208  30.9278 i
 103.3  32.5145  30.9323 i
 103.35  31.27  30.9368 i
 103.4  27.5009  30.9413 i
 103.45  33.4463  30.9458 i
 103.5  28.8411  30.9502 i
 103.55  37.3704  30.9547 i
 103.6  37.3112  30.9591 i
 103.65  19.6636  30.9635 i
 103.7  31.3511  30.9679 i
 103.75  29.7747  30.9722 i
 103.8  40.1446  30.9765 i
 103.85  33.5878  30.9809 i
 103.9  30.6302  30.9852 i
 103.95  25.0871  30.9895 i
 104  29.1095  30.9937 i
 104.05  32.5763  30.998 i
 104.1  28.4754  31.0023 i
 104.15  32.314  31.0065 i
 104.2  24.0603  31.0107 i
 104.25  24.5976  31.015 i
 104.3  24.0466  31.0192 i
 104.35  30.4942  31.0234 i
 104.4  33.1113  31.0276 i
 104.45  31.1413  31.0318 i
 104.5  29.4827  31.036 i
 104.55  27.841  31.0401 i
 104.6  27.5554  31.0443 i
 104.65  33.4087  31.0485 i
 104.7  28.0592  31.0526 i
 104.75  39.7135  31.0567 i
 104.8  30.157  31.0608 i
 104.85  28.3307  31.0649 i
 104.9  31.9626  31.069 i
 104.95  32.2332  31.073 i
 105  36.179  31.0771 i
 105.05  33.8403  31.081 i
 105.1  20.5028  31.085 i
 105.15  23.659  31.0889 i
 105.2  25.4177  31.0928 i
 105.25  24.5768  31.0967 i
 105.3  47.8034  31.1005 i
 105.35  31.8968  31.1043 i
 105.4  30.2682  31.1081 i
 105.45  22.1823  31.1118 i
 105.5  32.2846  31.1155 i
 105.55  34.2099  31.1191 i
 105.6  29.1323  31.1228 i
 105.65  36.6489  31.1263 i
 105.7  24.6602  31.1299 i
 105.75  30.2392  31.1334 i
 105.8  41.0399  31.1369 i
 105.85  33.2075  31.1404 i
 105.9  31.1884  31.1439 i
 105.95  29.2881  31.1473 i
 106  30.0526  31.1507 i
 106.05  28.9448  31.1541 i
 106.1  32.592  31.1574 i
 106.15  39.2577  31.1608 i
 106.2  30.4587  31.1641 i
 106.25  22.9159  31.1674 i
 106.3  25.4471  31.1707 i
 106.35  30.1759  31.1739 i
 106.4  25.3586  31.1772 i
 106.45  37.0269  31.1804 i
 106.5  29.5677  31.1837 i
 106.55  24.0986  31.1869 i
 106.6  27.1094  31.19 i
 106.65  33.065  31.1932 i
 106.7  22.7337  31.1963 i
 106.75  25.0386  31.1994 i
 106.8  32.5213  31.2025 i
 106.85  42.4148  31.2055 i
 106.9  33.0406  31.2086 i
 106.95  19.9612  31.2115 i
 107  30.1869  31.2145 i
 107.05  26.883  31.2174 i
 107.1  32.3372  31.2202 i
 107.15  30.3917  31.223 i
 107.2  33.2543  31.2258 i
 107.25  26.2107  31.2285 i
 107.3  27.8379  31.2312 i
 107.35  39.5417  31.2338 i
 107.4  30.3203  31.2364 i
 107.45  23.7611  31.2389 i
 107.5  29.4208  31.2415 i
 107.55  43.2115  31.2439 i
 107.6  35.4331  31.2463 i
 107.65  30.8483  31.2486 i
 107.7  31.0412  31.251 i
 107.75  26.6225  31.2532 i
 107.8  34.8284  31.2555 i
 107.85  21.9938  31.2577 i
 107.9  29.4716  31.2598 i
 107.95  34.1374  31.262 i
 108  24.747  31.2641 i
 108.05  25.4663  31.2661 i
 108.1  33.1906  31.2682 i
 108.15  28.739  31.2702 i
 108.2  30.4793  31.2722 i
 108.25  36.4603  31.2742 i
 108.3  25.5883  31.2761 i
 108.35  36.0859  31.2781 i
 108.4  28.1225  31.28 i
 108.45  27.3882  31.2818 i
 108.5  36.2926  31.2837 i
 108.55  34.5161  31.2855 i
 108.6  28.9504  31.2873 i
 108.65  28.7996  31.2891 i
 108.7  28.5942  31.2908 i
 108.75  22.3512  31.2925 i
 108.8  31.4623  31.2942 i
 108.85  18.2313  31.2959 i
 108.9  32.4101  31.2975 i
 108.95  27.4914  31.299 i
 109  36.4583  31.3005 i
 109.05  29.3179  31.302 i
 109.1  33.447  31.3034 i
 109.15  31.5662  31.3048 i
 109.2  25.1733  31.3061 i
 109.25  27.6689  31.3073 i
 109.3  31.5854  31.3086 i
 109.35  24.4339  31.3097 i
 109.4  45.9657  31.3108 i
 109.45  26.9969  31.3119 i
 109.5  24.9872  31.3129 i
 109.55  30.4186  31.3139 i
 109.6  35.1777  31.3149 i
 109.65  37.8526  31.3157 i
 109.7  35.3243  31.3166 i
 109.75  24.5506  31.3175 i
 109.8  30.2873  31.3183 i
 109.85  37.6269  31.3191 i
 109.9  31.8161  31.3199 i
 109.95  40.1869  31.3206 i
 110  26.8589  31.3213 i
 110.05  24.5953  31.322 i
 110.1  37.4929  31.3227 i
 110.15  28.548  31.3234 i
 110.2  39.5942  31.3241 i
 110.25  31.6544  31.3248 i
 110.3  32.7278  31.3255 i
 110.35  36.5711  31.3262 i
 110.4  25.5446  31.3269 i
 110.45  28.0415  31.3276 i
 110.5  17.8738  31.3283 i
 110.55  32.5676  31.329 i
 110.6  32.2694  31.3297 i
 110.65  31.0568  31.3304 i
 110.7  34.0822  31.3311 i
 110.75  29.6649  31.3318 i
 110.8  28.784  31.3325 i
 110.85  26.51  31.3332 i
 110.9  28.1733  31.3339 i
 110.95  29.8926  31.3347 i
 111  26.3761  31.3354 i
 111.05  22.5969  31.3361 i
 111.1  43.6945  31.3368 i
 111.15  32.8355  31.3375 i
 111.2  25.7457  31.3382 i
 111.25  22.2707  31.339 i
 111.3  29.7773  31.3397 i
 111.35  29.754  31.3404 i
 111.4  31.5542  31.3411 i
 111.45  31.502  31.3418 i
 111.5  35.2784  31.3425 i
 111.55  42.8003  31.3432 i
 111.6  33.5212  31.344 i
 111.65  31.9155  31.3447 i
 111.7  32.0134  31.3455 i
 111.75  38.7742  31.3463 i
 111.8  43.4378  31.3471 i
 111.85  27.9115  31.348 i
 111.9  34.7915  31.3489 i
 111.95  28.7169  31.3499 i
 112  25.6224  31.3509 i
 112.05  21.2665  31.3521 i
 112.1  32.1454  31.3533 i
 112.15  26.1801  31.3546 i
 112.2  26.9238  31.3559 i
 112.25  20.0866  31.3575 i
 112.3  26.4171  31.3591 i
 112.35  26.5352  31.3609 i
 112.4  29.5635  31.3628 i
 112.45  33.2016  31.365 i
 112.5  23.8618  31.3672 i
 112.55  27.6195  31.3698 i
 112.6  22.603  31.3723 i
 112.65  46.0276  31.3754 i
 112.7  32.8583  31.3784 i
 112.75  39.8393  31.3821 i
 112.8  34.6707  31.3857 i
 112.85  33.5521  31.3899 i
 112.9  32.8823  31.3942 i
 112.95  36.1931  31.3992 i
 113  34.697  31.4042 i
 113.05  40.8182  31.4101 i
 113.1  42.1753  31.416 i
 113.15  28.9085  31.423 i
 113.2  27.7728  31.43 i
 113.25  32.4429  31.4384 i
 113.3  22.3444  31.4467 i
 113.35  23.6251  31.4566 i
 113.4  33.2653  31.4665 i
 113.45  15.7559  31.4783 i
 113.5  33.6749  31.4902 i
 113.55  38.1278  31.5044 i
 113.6  41.5857  31.5186 i
 113.65  37.0265  31.5358 i
 113.7  31.7329  31.553 i
 113.75  38.6568  31.574 i
 113.8  35.0842  31.5949 i
 113.85  39.5486  31.6206 i
 113.9  31.18  31.6462 i
 113.95  31.8867  31.6778 i
 114  24.3598  31.7094 i
 114.05  32.7674  31.7488 i
 114.1  34.8053  31.7881 i
 114.15  37.4061  31.8374 i
 114.2  20.6629  31.8868 i
 114.25  27.4558  31.9493 i
 114.3  26.0644  32.0119 i
 114.35  31.0237  32.0921 i
 114.4  32.4723  32.1723 i
 114.45  23.1793  32.2767 i
 114.5  33.1923  32.381 i
 114.55  31.9218  32.5186 i
 114.6  40.1448  32.6563 i
 114.65  32.8922  32.8393 i
 114.7  26.337  33.0224 i
 114.75  31.5457  33.2656 i
 114.8  28.2188  33.5087 i
 114.85  34.2958  33.8333 i
 114.9  27.9473  34.1578 i
 114.95  39.3135  34.601 i
 115  34.4818  35.0441 i
 115.05  24.9733  35.6677 i
 115.1  33.9105  36.2913 i
 115.15  36.0263  37.1969 i
 115.2  31.5809  38.1024 i
 115.25  23.1328  39.4625 i
 115.3  36.9292  40.8225 i
 115.35  30.6335  42.9397 i
 115.4  30.7733  45.0569 i
 115.45  31.4679  48.4667 i
 115.5  43.9295  51.8766 i
 115.55  44.0997  56.7796 i
 115.6  48.6959  63.0423 i
 115.65  50.9215  71.0192 i
 115.7  68.4009  80.5067 i
 115.75  80.0457  91.448 i
 115.8  87.4154  102.621 i
 115.85  108.34  112.05 i
 115.9  114.964  117.54 i
 115.95  111.781  117.367 i
 116  110.061  111.637 i
 116.05  74.3215  102.034 i
 116.1  83.3512  90.8733 i
 116.15  52.3882  80.1344 i
 116.2  53.7732  70.6168 i
 116.25  59.2505  62.9574 i
 116.3  48.9904  56.7072 i
 116.35  37.7604  51.8739 i
 116.4  44.7448  48.0924 i
 116.45  44.5544  45.1233 i
 116.5  41.3989  42.7758 i
 116.55  38.7895  41.0869 i
 116.6  39.4379  39.3981 i
 116.65  41.0524  38.2856 i
 116.7  35.6447  37.1732 i
 116.75  34.0139  36.414 i
 116.8  34.625  35.6549 i
 116.85  28.1266  35.1192 i
 116.9  36.8206  34.5836 i
 116.95  38.2873  34.1935 i
 117  32.3403  33.8033 i
 117.05  32.6283  33.5113 i
 117.1  25.1036  33.2192 i
 117.15  36.743  32.9978 i
 117.2  37.042  32.7764 i
 117.25  40.1036  32.6086 i
 117.3  35.856  32.4407 i
 117.35  23.5379  32.3126 i
 117.4  26.6804  32.1844 i
 117.45  37.9505  32.0851 i
 117.5  30.7395  31.9857 i
 117.55  35.0938  31.9074 i
 117.6  27.8784  31.8291 i
 117.65  21.865  31.7663 i
 117.7  27.1333  31.7036 i
 117.75  29.7791  31.6527 i
 117.8  26.9631  31.6018 i
 117.85  37.1777  31.5599 i
 117.9  33.9041  31.5181 i
 117.95  24.077  31.4832 i
 118  34.3687  31.4484 i
 118.05  33.6657  31.4191 i
 118.1  29.6958  31.3898 i
 118.15  36.0538  31.3648 i
 118.2  31.4648  31.3399 i
 118.25  24.6331  31.3184 i
 118.3  32.9109  31.297 i
 118.35  35.8107  31.2783 i
 118.4  36.4233  31.2597 i
 118.45  33.5419  31.2433 i
 118.5  22.7065  31.227 i
 118.55  27.8921  31.2125 i
 118.6  24.1224  31.198 i
 118.65  24.8033  31.185 i
 118.7  38.614  31.1721 i
 118.75  30.7473  31.1604 i
 118.8  21.9899  31.1487 i
 118.85  35.4974  31.1381 i
 118.9  42.3674  31.1275 i
 118.95  33.0889  31.1177 i
 119  31.9512  31.108 i
 119.05  28.3764  31.0991 i
 119.1  26.8362  31.0901 i
 119.15  30.4222  31.0818 i
 119.2  30.5164  31.0735 i
 119.25  26.7586  31.0658 i
 119.3  23.0958  31.058 i
 119.35  38.609  31.0508 i
 119.4  24.915  31.0435 i
 119.45  29.4472  31.0367 i
 119.5  36.0986  31.0299 i
 119.55  24.9215  31.0234 i
 119.6  28.9165  31.017 i
 119.65  34.2062  31.0108 i
 119.7  29.0564  31.0047 i
 119.75  36.7448  30.9988 i
 119.8  28.1931  30.993 i
 119.85  37.5816  30.9874 i
 119.9  43.7739  30.9818 i
 119.95  33.177  30.9764 i
 120  26.3266  30.9709 i
 120.05  29.3829  30.9657 i
 120.1  36.9532  30.9605 i
 120.15  31.245  30.9554 i
 120.2  26.8142  30.9503 i
 120.25  28.3821  30.9453 i
 120.3  44.2413  30.9404 i
 120.35  33.5009  30.9355 i
 120.4  33.0259  30.9306 i
 120.45  33.8414  30.9258 i
 120.5  37.6885  30.921 i
 120.55  38.5202  30.9163 i
 120.6  35.9567  30.9116 i
 120.65  33.2007  30.9069 i
 120.7  27.9921  30.9022 i
 120.75  35.2931  30.8975 i
 120.8  27.6556  30.8929 i
 120.85  25.4616  30.8882 i
 120.9  33.5348  30.8836 i
 120.95  31.4086  30.879 i
 121  31.5002  30.8744 i
 121.05  30.4466  30.8698 i
 121.1  37.9321  30.8652 i
 121.15  39.2278  30.8607 i
 121.2  35.0821  30.8561 i
 121.25  29.4356  30.8516 i
 121.3  23.0441  30.847 i
 121.35  28.7597  30.8425 i
 121.4  19.8492  30.838 i
 121.45  31.5735  30.8336 i
 121.5  35.0162  30.8291 i
 121.55  29.2013  30.8246 i
 121.6  25.2284  30.8202 i
 121.65  23.2508  30.8158 i
 121.7  29.7184  30.8114 i
 121.75  27.2303  30.807 i
 121.8  36.957  30.8027 i
 121.85  35.3207  30.7984 i
 121.9  32.9284  30.794 i
 121.95  35.8497  30.7898 i
 122  31.416  30.7855 i
 122.05  22.422  30.7813 i
 122.1  37.4013  30.777 i
 122.15  25.6905  30.7728 i
 122.2  32.779  30.7686 i
 122.25  31.8354  30.7645 i
 122.3  27.2452  30.7603 i
 122.35  22.6426  30.7562 i
 122.4  26.5401  30.7521 i
 122.45  28.055  30.748 i
 122.5  27.5229  30.7439 i
 122.55  24.7023  30.7398 i
 122.6  31.534  30.7357 i
 122.65  33.6627  30.7316 i
 122.7  31.3315  30.7275 i
 122.75  41.8037  30.7235 i
 122.8  25.4925  30.7194 i
 122.85  26.1792  30.7153 i
 122.9  28.6337  30.7112 i
 122.95  39.8707  30.7071 i
 123  30.3803  30.703 i
 123.05  34.1255  30.6989 i
 123.1  33.1897  30.6948 i
 123.15  21.7719  30.6906 i
 123.2  29.6942  30.6865 i
 123.25  37.4173  30.6823 i
 123.3  31.9857  30.6781 i
 123.35  24.7408  30.6739 i
 123.4  36.3778  30.6697 i
 123.45  30.9067  30.6655 i
 123.5  26.6463  30.6613 i
 123.55  22.6434  30.6571 i
 123.6  33.639  30.6529 i
 123.65  34.1829  30.6487 i
 123.7  25.0275  30.6444 i
 123.75  29.2178  30.6402 i
 123.8  22.8117  30.636 i
 123.85  38.6781  30.6317 i
 123.9  36.4845  30.6275 i
 123.95  24.0304  30.6233 i
 124  27.3428  30.6191 i
 124.05  35.7968  30.6149 i
 124.1  44.5659  30.6107 i
 124.15  30.2862  30.6065 i
 124.2  33.8518  30.6023 i
 124.25  17.3167  30.5982 i
 124.3  30.8406  30.594 i
 124.35  24.9621  30.5899 i
 124.4  25.1455  30.5858 i
 124.45  20.6193  30.5817 i
 124.5  35.227  30.5776 i
 124.55  29.8687  30.5736 i
 124.6  29.3794  30.5695 i
 124.65  29.4785  30.5655 i
 124.7  32.1964  30.5614 i
 124.75  30.1785  30.5574 i
 124.8  23.7131  30.5534 i
 124.85  29.0264  30.5494 i
 124.9  32.826  30.5455 i
 124.95  30.9612  30.5415 i
 125  31.8072  30.5375 i
 125.05  28.5798  30.5336 i
 125.1  30.0773  30.5296 i
 125.15  30.2488  30.5257 i
 125.2  34.0662  30.5217 i
 125.25  21.699  30.5178 i
 125.3  28.5267  30.5138 i
 125.35  30.4546  30.5099 i
 125.4  32.5739  30.5059 i
 125.45  32.9924  30.5019 i
 125.5  41.6797  30.498 i
 125.55  23.6287  30.494 i
 125.6  25.6995  30.49 i
 125.65  20.2524  30.4861 i
 125.7  29.4351  30.4821 i
 125.75  28.1907  30.4781 i
 125.8  30.4944  30.4741 i
 125.85  27.5518  30.4701 i
 125.9  22.1127  30.4661 i
 125.95  20.333  30.462 i
 126  37.6771  30.458 i
 126.05  32.8972  30.454 i
 126.1  25.606  30.45 i
 126.15  21.7135  30.4459 i
 126.2  30.1835  30.4419 i
 126.25  34.1182  30.4379 i
 126.3  36.8337  30.4339 i
 126.35  34.4554  30.4298 i
 126.4  21.7164  30.4258 i
 126.45  33.1319  30.4218 i
 126.5  27.8678  30.4178 i
 126.55  29.9054  30.4138 i
 126.6  29.9069  30.4098 i
 126.65  33.4483  30.4058 i
 126.7  30.8655  30.4019 i
 126.75  40.6392  30.3979 i
 126.8  22.3186  30.394 i
 126.85  25.554  30.3901 i
 126.9  26.3833  30.3861 i
 126.95  21.2039  30.3823 i
 127  24.351  30.3784 i
 127.05  27.2139  30.3745 i
 127.1  24.0591  30.3707 i
 127.15  30.0862  30.3669 i
 127.2  24.6364  30.3631 i
 127.25  30.4829  30.3593 i
 127.3  30.0822  30.3555 i
 127.35  23.4667  30.3517 i
 127.4  36.4908  30.348 i
 127.45  23.8501  30.3443 i
 127.5  40.2129  30.3406 i
 127.55  39.6479  30.3369 i
 127.6  21.3204  30.3332 i
 127.65  34.0361  30.3295 i
 127.7  23.4746  30.3258 i
 127.75  34.9262  30.3222 i
 127.8  19.9038  30.3185 i
 127.85  16.033  30.3149 i
 127.9  24.8987  30.3112 i
 127.95  30.3202  30.3076 i
 128  38.8016  30.304 i
 128.05  47.3451  30.3004 i
 128.1  43.3068  30.2967 i
 128.15  37.2383  30.2931 i
 128.2  32.7545  30.2895 i
 128.25  33.9538  30.2859 i
 128.3  36.1826  30.2823 i
 128.35  39.1068  30.2787 i
 128.4  33.7037  30.275 i
 128.45  24.7895  30.2714 i
 128.5  39.4812  30.2678 i
 128.55  34.7766  30.2642 i
 128.6  41.8434  30.2606 i
 128.65  35.1221  30.257 i
 128.7  24.2698  30.2534 i
 128.75  32.0283  30.2498 i
 128.8  27.5839  30.2462 i
 128.85  36.7251  30.2426 i
 128.9  37.6768  30.239 i
 128.95  38.5532  30.2354 i
 129  31.3017  30.2319 i
 129.05  33.9382  30.2283 i
 129.1  29.6785  30.2247 i
 129.15  39.6996  30.2212 i
 129.2  38.8396  30.2177 i
 129.25  38.4933  30.2142 i
 129.3  28.42  30.2107 i
 129.35  24.1934  30.2072 i
 129.4  33.826  30.2037 i
 129.45  37.5665  30.2003 i
 129.5  27.4172  30.1968 i
 129.55  19.4975  30.1934 i
 129.6  32.6358  30.19 i
 129.65  30.1455  30.1867 i
 129.7  41.2981  30.1833 i
 129.75  31.8841  30.18 i
 129.8  24.8126  30.1767 i
 129.85  21.3387  30.1734 i
 129.9  32.0718  30.1701 i
 129.95  26.5806  30.1817 i
 130  9.3164  30.1933 i

