
#Surface 0 of 1 surfaces

#IsoCurve 0, 1801 points
#x y z type
 40  50.9356  33.4061 i
 40.05  39.5222  33.4029 i
 40.1  33.7484  33.3997 i
 40.15  43.5738  33.3965 i
 40.2  40.8431  33.3933 i
 40.25  39.995  33.3901 i
 40.3  41.5446  33.3869 i
 40.35  42.5775  33.3837 i
 40.4  34.6092  33.3805 i
 40.45  42.6772  33.3773 i
 40.5  39.5808  33.3741 i
 40.55  41.0786  33.3709 i
 40.6  43.3082  33.3677 i
 40.65  33.7938  33.3645 i
 40.7  31.8268  33.3613 i
 40.75  30.6344  33.3581 i
 40.8  36.0504  33.3549 i
 40.85  33.0255  33.3517 i
 40.9  33.2301  33.3486 i
 40.95  43.1249  33.3454 i
 41  45.9716  33.3422 i
 41.05  43.7289  33.339 i
 41.1  42.2274  33.3358 i
 41.15  38.9199  33.3326 i
 41.2  32.3443  33.3295 i
 41.25  38.2665  33.3263 i
 41.3  46.387  33.3231 i
 41.35  32.2934  33.3199 i
 41.4  38.3952  33.3167 i
 41.45  38.9968  33.3136 i
 41.5  40.7926  33.3104 i
 41.55  36.4399  33.3072 i
 41.6  36.267  33.3041 i
 41.65  31.5862  33.3009 i
 41.7  34.991  33.2977 i
 41.75  46.1418  33.2945 i
 41.8  38.0193  33.2914 i
 41.85  29.2718  33.2882 i
 41.9  34.735  33.285 i
 41.95  29.7976  33.2819 i
 42  21.8026  33.2787 i
 42.05  28.1345  33.2756 i
 42.1  41.1551  33.2724 i
 42.15  31.6848  33.2692 i
 42.2  20.0197  33.2661 i
 42.25  37.4144  33.2629 i
 42.3  37.8992  33.2598 i
 42.35  37.4231  33.2566 i
 42.4  43.298  33.2535 i
 42.45  35.6569  33.2503 i
 42.5  28.9064  33.2471 i
 42.55  41.2304  33.244 i
 42.6  36.4365  33.2408 i
 42.65  34.328  33.2377 i
 42.7  29.1717  33.2345 i
 42.75  31.3533  33.2314 i
 42.8  50.4467  33.2283 i
 42.85  45.7215  33.2251 i
 42.9  43.4014  33.222 i
 42.95  36.992  33.2188 i
 43  34.194  33.2157 i
 43.05  33.9364  33.2125 i
 43.1  38.0418  33.2094 i
 43.15  38.1675  33.2063 i
 43.2  39.6639  33.2031 i
 43.25  36.2478  33.2 i
 43.3  36.4908  33.1968 i
 43.35  42.4909  33.1937 i
 43.4  43.5326  33.1906 i
 43.45  39.0915  33.1874 i
 43.5  47.1077  33.1843 i
 43.55  44.2583  33.1812 i
 43.6  41.0295  33.178 i
 43.65  45.1257  33.1749 i
 43.7  42.0135  33.1718 i
 43.75  40.4897  33.1686 i
 43.8  40.7682  33.1655 i
 43.85  43.0945  33.1624 i
 43.9  56.2838  33.1593 i
 43.95  40.4548  33.1561 i
 44  57.8221  33.153 i
 44.05  62.2837  33.1499 i
 44.1  85.4976  33.1468 i
 44.15  101.5  33.1436 i
 44.2  163.585  33.1405 i
 44.25  378.059  33.1374 i
 44.3  1200.22  33.1343 i
 44.35  2137.27  33.1312 i
 44.4  2084.42  33.128 i
 44.45  1432.03  33.1249 i
 44.5  451.744  33.1218 i
 44.55  180.469  33.1187 i
 44.6  84.3203  33.1156 i
 44.65  65.9747  33.1125 i
 44.7  61.0946  33.1094 i
 44.75  48.0908  33.1062 i
 44.8  51.1395  33.1031 i
 44.85  42.0532  33.1 i
 44.9  42.8902  33.0969 i
 44.95  42.5  33.0938 i
 45  44.9388  33.0907 i
 45.05  40.4211  33.0876 i
 45.1  37.936  33.0845 i
 45.15  31.1631  33.0814 i
 45.2  42.834  33.0783 i
 45.25  27.09  33.0752 i
 45.3  43.8242  33.0721 i
 45.35  45.8407  33.069 i
 45.4  36.6288  33.0659 i
 45.45  46.579  33.0628 i
 45.5  37.9197  33.0597 i
 45.55  44.4455  33.0566 i
 45.6  31.2415  33.0535 i
 45.65  33.0218  33.0504 i
 45.7  36.2327  33.0473 i
 45.75  31.4729  33.0442 i
 45.8  25.1858  33.0411 i
 45.85  35.4593  33.038 i
 45.9  32.2347  33.0349 i
 45.95  28.0252  33.0318 i
 46  25.1439  33.0287 i
 46.05  42.0494  33.0256 i
 46.1  31.809  33.0225 i
 46.15  43.1139  33.0194 i
 46.2  38.3707  33.0163 i
 46.25  37.3599  33.0132 i
 46.3  50.2744  33.0101 i
 46.35  26.9277  33.007 i
 46.4  33.0119  33.004 i
 46.45  41.8952  33.0009 i
 46.5  33.7675  32.9978 i
 46.55  42.3077  32.9947 i
 46.6  34.4743  32.9916 i
 46.65  36.8827  32.9885 i
 46.7  42.5846  32.9854 i
 46.75  34.3855  32.9824 i
 46.8  38.294  32.9793 i
 46.85  35.5651  32.9762 i
 46.9  33.7808  32.9731 i
 46.95  43.1371  32.97 i
 47  33.7037  32.9669 i
 47.05  37.8134  32.9639 i
 47.1  34.0987  32.9608 i
 47.15  38.6264  32.9577 i
 47.2  39.7034  32.9546 i
 47.25  34.5154  32.9515 i
 47.3  47.931  32.9485 i
 47.35  35.7378  32.9454 i
 47.4  40.2357  32.9423 i
 47.45  26.9129  32.9392 i
 47.5  35.4933  32.9362 i
 47.55  39.0563  32.9331 i
 47.6  32.4427  32.93 i
 47.65  45.3211  32.9269 i
 47.7  31.7496  32.9239 i
 47.75  36.7516  32.9208 i
 47.8  34.2534  32.9177 i
 47.85  32.8584  32.9147 i
 47.9  37.3772  32.9116 i
 47.95  29.2691  32.9085 i
 48  38.9962  32.9054 i
 48.05  39.9369  32.9024 i
 48.1  36.8821  32.8993 i
 48.15  38.5393  32.8962 i
 48.2  42.7613  32.8932 i
 48.25  30.7573  32.8901 i
 48.3  35.0602  32.887 i
 48.35  33.799  32.884 i
 48.4  31.3787  32.8809 i
 48.45  29.8062  32.8778 i
 48.5  35.9543  32.8748 i
 48.55  30.3773  32.8717 i
 48.6  35.3931  32.8686 i
 48.65  30.4082  32.8656 i
 48.7  32.3725  32.8625 i
 48.75  26.4477  32.8594 i
 48.8  26.9503  32.8564 i
 48.85  24.3012  32.8533 i
 48.9  33.9372  32.8502 i
 48.95  34.8373  32.8472 i
 49  31.2826  32.8441 i
 49.05  35.5058  32.8411 i
 49.1  31.12  32.838 i
 49.15  35.6913  32.8349 i
 49.2  29.3027  32.8319 i
 49.25  28.3981  32.8288 i
 49.3  25.0442  32.8258 i
 49.35  35.4684  32.8227 i
 49.4  35.3563  32.8196 i
 49.45  33.0377  32.8166 i
 49.5  31.8068  32.8135 i
 49.55  32.0996  32.8105 i
 49.6  24.0452  32.8074 i
 49.65  35.855  32.8043 i
 49.7  37.4795  32.8013 i
 49.75  40.8451  32.7982 i
 49.8  39.2289  32.7952 i
 49.85  25.0575  32.7921 i
 49.9  43.3595  32.7891 i
 49.95  39.0373  32.786 i
 50  37.9769  32.783 i
 50.05  43.4921  32.7799 i
 50.1  31.799  32.7768 i
 50.15  31.5482  32.7738 i
 50.2  28.2066  32.7707 i
 50.25  32.4019  32.7677 i
 50.3  25.4904  32.7646 i
 50.35  31.2777  32.7616 i
 50.4  39.6394  32.7585 i
 50.45  34.3314  32.7555 i
 50.5  31.1654  32.7524 i
 50.55  33.4748  32.7494 i
 50.6  20.9375  32.7463 i
 50.65  34.1893  32.7433 i
 50.7  35.7658  32.7402 i
 50.75  34.2404  32.7372 i
 50.8  19.3156  32.7341 i
 50.85  40.098  32.7311 i
 50.9  39.9812  32.728 i
 50.95  33.1682  32.725 i
 51  41.9292  32.7219 i
 51.05  30.1187  32.7189 i
 51.1  42.1705  32.7158 i
 51.15  32.1408  32.7128 i
 51.2  36.9905  32.7097 i
 51.25  42.3937  32.7067 i
 51.3  35.781  32.7036 i
 51.35  28.2812  32.7006 i
 51.4  34.2193  32.6975 i
 51.45  41.2838  32.6945 i
 51.5  28.0655  32.6914 i
 51.55  40.0498  32.6884 i
 51.6  38.9556  32.6853 i
 51.65  36.3573  32.6823 i
 51.7  30.9239  32.6792 i
 51.75  22.9345  32.6762 i
 51.8  40.1015  32.6731 i
 51.85  36.7824  32.6701 i
 51.9  26.6054  32.667 i
 51.95  42.2174  32.664 i
 52  35.9208  32.6609 i
 52.05  22.1967  32.6579 i
 52.1  37.0891  32.6548 i
 52.15  24.439  32.6518 i
 52.2  32.1237  32.6487 i
 52.25  38.2421  32.6457 i
 52.3  33.1047  32.6427 i
 52.35  40.0426  32.6396 i
 52.4  25.0494  32.6366 i
 52.45  36.5992  32.6335 i
 52.5  28.2492  32.6305 i
 52.55  36.8013  32.6274 i
 52.6  28.4712  32.6244 i
 52.65  39.5762  32.6213 i
 52.7  33.8587  32.6183 i
 52.75  28.8091  32.6152 i
 52.8  41.714  32.6122 i
 52.85  44.2668  32.6091 i
 52.9  32.9794  32.6061 i
 52.95  37.5971  32.603 i
 53  30.0739  32.6 i
 53.05  27.1933  32.597 i
 53.1  30.7919  32.5939 i
 53.15  41.4752  32.5909 i
 53.2  27.5155  32.5878 i
 53.25  21.1259  32.5848 i
 53.3  27.2822  32.5817 i
 53.35  31.0979  32.5787 i
 53.4  32.6945  32.5756 i
 53.45  33.2156  32.5726 i
 53.5  22.7821  32.5695 i
 53.55  44.8206  32.5665 i
 53.6  33.7495  32.5634 i
 53.65  23.1482  32.5604 i
 53.7  26.872  32.5573 i
 53.75  31.3692  32.5543 i
 53.8  40.8326  32.5513 i
 53.85  29.6635  32.5482 i
 53.9  31.3655  32.5452 i
 53.95  32.7749  32.5421 i
 54  29.6892  32.5391 i
 54.05  37.116  32.536 i
 54.1  23.3529  32.533 i
 54.15  38.2085  32.5299 i
 54.2  34.8188  32.5269 i
 54.25  25.0042  32.5238 i
 54.3  33.2233  32.5208 i
 54.35  21.1445  32.5177 i
 54.4  34.4006  32.5147 i
 54.45  39.7575  32.5116 i
 54.5  28.3528  32.5086 i
 54.55  18.6999  32.5055 i
 54.6  38.7877  32.5025 i
 54.65  33.1358  32.4994 i
 54.7  30.4837  32.4964 i
 54.75  29.6267  32.4933 i
 54.8  53.9054  32.4903 i
 54.85  43.1645  32.4872 i
 54.9  37.4686  32.4842 i
 54.95  32.1344  32.4811 i
 55  30.8344  32.4781 i
 55.05  38.6458  32.475 i
 55.1  29.634  32.472 i
 55.15  45.8298  32.4689 i
 55.2  29.8256  32.4659 i
 55.25  41.3581  32.4628 i
 55.3  32.9573  32.4598 i
 55.35  36.8349  32.4567 i
 55.4  32.6688  32.4537 i
 55.45  35.135  32.4506 i
 55.5  30.976  32.4476 i
 55.55  46.0812  32.4445 i
 55.6  30.0751  32.4415 i
 55.65  37.0817  32.4384 i
 55.7  23.2511  32.4354 i
 55.75  32.1214  32.4323 i
 55.8  35.375  32.4293 i
 55.85  26.3629  32.4262 i
 55.9  29.4932  32.4232 i
 55.95  31.2355  32.4201 i
 56  34.4942  32.417 i
 56.05  25.6651  32.414 i
 56.1  21.1381  32.4109 i
 56.15  28.2225  32.4079 i
 56.2  31.1394  32.4048 i
 56.25  26.82  32.4018 i
 56.3  29.8372  32.3987 i
 56.35  24.7881  32.3957 i
 56.4  33.9741  32.3926 i
 56.45  33.6207  32.3895 i
 56.5  36.7681  32.3865 i
 56.55  37.3887  32.3834 i
 56.6  37.956  32.3804 i
 56.65  26.9033  32.3773 i
 56.7  36.4554  32.3742 i
 56.75  29.4872  32.3712 i
 56.8  31.9572  32.3681 i
 56.85  34.0673  32.3651 i
 56.9  28.3878  32.362 i
 56.95  30.7043  32.3589 i
 57  31.584  32.3559 i
 57.05  30.6917  32.3528 i
 57.1  39.5901  32.3498 i
 57.15  33.7894  32.3467 i
 57.2  35.5981  32.3436 i
 57.25  28.0599  32.3406 i
 57.3  28.7338  32.3375 i
 57.35  26.527  32.3344 i
 57.4  29.3217  32.3314 i
 57.45  36.856  32.3283 i
 57.5  32.539  32.3252 i
 57.55  30.7117  32.3222 i
 57.6  26.3878  32.3191 i
 57.65  31.1328  32.316 i
 57.7  35.818  32.313 i
 57.75  36.5329  32.3099 i
 57.8  36.4137  32.3068 i
 57.85  43.0494  32.3038 i
 57.9  25.2836  32.3007 i
 57.95  28.9569  32.2976 i
 58  34.963  32.2946 i
 58.05  26.8357  32.2915 i
 58.1  26.4052  32.2884 i
 58.15  33.3595  32.2853 i
 58.2  29.1381  32.2823 i
 58.25  23.1663  32.2792 i
 58.3  38.9837  32.2761 i
 58.35  33.2459  32.2731 i
 58.4  33.8823  32.27 i
 58.45  28.9435  32.2669 i
 58.5  25.9701  32.2638 i
 58.55  29.7985  32.2608 i
 58.6  30.9936  32.2577 i
 58.65  23.5424  32.2546 i
 58.7  25.558  32.2515 i
 58.75  33.7057  32.2485 i
 58.8  35.4687  32.2454 i
 58.85  37.3662  32.2423 i
 58.9  24.6902  32.2392 i
 58.95  36.3878  32.2361 i
 59  22.9212  32.2331 i
 59.05  26.2485  32.23 i
 59.1  27.0757  32.2269 i
 59.15  40.1654  32.2238 i
 59.2  36.745  32.2207 i
 59.25  23.6502  32.2176 i
 59.3  30.162  32.2146 i
 59.35  23.7288  32.2115 i
 59.4  25.8005  32.2084 i
 59.45  39.4096  32.2053 i
 59.5  33.384  32.2022 i
 59.55  33.6553  32.1991 i
 59.6  31.035  32.196 i
 59.65  36.6175  32.193 i
 59.7  20.3557  32.1899 i
 59.75  24.4649  32.1868 i
 59.8  30.0817  32.1837 i
 59.85  34.5278  32.1806 i
 59.9  36.3516  32.1775 i
 59.95  32.489  32.1744 i
 60  35.9221  32.1713 i
 60.05  29.1406  32.1682 i
 60.1  23.3775  32.1651 i
 60.15  28.2964  32.162 i
 60.2  44.063  32.1589 i
 60.25  31.5663  32.1558 i
 60.3  30.2569  32.1527 i
 60.35  21.1446  32.1496 i
 60.4  31.6966  32.1465 i
 60.45  29.6281  32.1434 i
 60.5  31.3874  32.1403 i
 60.55  27.72  32.1372 i
 60.6  33.9832  32.1341 i
 60.65  25.3607  32.131 i
 60.7  29.0095  32.1279 i
 60.75  34.2648  32.1248 i
 60.8  28.4201  32.1217 i
 60.85  25.661  32.1186 i
 60.9  25.9915  32.1155 i
 60.95  49.2777  32.1124 i
 61  41.5223  32.1093 i
 61.05  34.6463  32.1062 i
 61.1  24.2049  32.1031 i
 61.15  31.2234  32.1 i
 61.2  42.6454  32.0969 i
 61.25  32.5289  32.0938 i
 61.3  37.2495  32.0906 i
 61.35  34.2769  32.0875 i
 61.4  34.4268  32.0844 i
 61.45  31.6804  32.0813 i
 61.5  35.1568  32.0782 i
 61.55  33.6684  32.0751 i
 61.6  29.3883  32.072 i
 61.65  24.2116  32.0688 i
 61.7  25.9467  32.0657 i
 61.75  24.9321  32.0626 i
 61.8  35.129  32.0595 i
 61.85  32.9138  32.0564 i
 61.9  41.8601  32.0532 i
 61.95  26.5733  32.0501 i
 62  30.7829  32.047 i
 62.05  30.0685  32.0439 i
 62.1  31.9571  32.0407 i
 62.15  30.2378  32.0376 i
 62.2  32.9079  32.0345 i
 62.25  40.566  32.0314 i
 62.3  25.0511  32.0282 i
 62.35  28.9037  32.0251 i
 62.4  41.2277  32.022 i
 62.45  32.3375  32.0188 i
 62.5  17.0702  32.0157 i
 62.55  35.7033  32.0126 i
 62.6  26.9699  32.0094 i
 62.65  36.2402  32.0063 i
 62.7  32.4024  32.0032 i
 62.75  33.2288  32 i
 62.8  43.0681  31.9969 i
 62.85  31.2217  31.9937 i
 62.9  27.1882  31.9906 i
 62.95  33.1349  31.9875 i
 63  25.2544  31.9843 i
 63.05  30.2044  31.9812 i
 63.1  31.4996  31.978 i
 63.15  36.6349  31.9749 i
 63.2  31.4633  31.9717 i
 63.25  42.3265  31.9686 i
 63.3  33.0877  31.9655 i
 63.35  28.262  31.9623 i
 63.4  35.3867  31.9592 i
 63.45  30.1809  31.956 i
 63.5  27.8584  31.9529 i
 63.55  27.8038  31.9497 i
 63.6  34.1359  31.9465 i
 63.65  36.3949  31.9434 i
 63.7  35.0784  31.9402 i
 63.75  28.6543  31.9371 i
 63.8  33.4808  31.9339 i
 63.85  35.8371  31.9308 i
 63.9  39.1336  31.9276 i
 63.95  24.439  31.9244 i
 64  29.6568  31.9213 i
 64.05  27.514  31.9181 i
 64.1  32.1718  31.915 i
 64.15  36.1031  31.9118 i
 64.2  39.4241  31.9086 i
 64.25  37.4359  31.9055 i
 64.3  30.7185  31.9023 i
 64.35  33.9657  31.8991 i
 64.4  36.8985  31.8959 i
 64.45  48.7269  31.8928 i
 64.5  66.2035  31.8896 i
 64.55  68.3827  31.8864 i
 64.6  94.0906  31.8833 i
 64.65  131.294  31.8801 i
 64.7  151.889  31.8769 i
 64.75  146.823  31.8737 i
 64.8  87.8711  31.8705 i
 64.85  87.3451  31.8674 i
 64.9  49.5502  31.8642 i
 64.95  42.7131  31.861 i
 65  42.0787  31.8578 i
 65.05  41.8782  31.8546 i
 65.1  36.0201  31.8514 i
 65.15  29.8985  31.8483 i
 65.2  29.1132  31.8451 i
 65.25  33.4866  31.8419 i
 65.3  35.238  31.8387 i
 65.35  28.4352  31.8355 i
 65.4  21.9956  31.8323 i
 65.45  20.9737  31.8291 i
 65.5  26.7257  31.8259 i
 65.55  31.6831  31.8227 i
 65.6  33.8961  31.8195 i
 65.65  30.6335  31.8163 i
 65.7  33.2532  31.8131 i
 65.75  32.7148  31.8099 i
 65.8  31.9106  31.8067 i
 65.85  25.773  31.8035 i
 65.9  31.1109  31.8003 i
 65.95  30.5638  31.7971 i
 66  41.9554  31.7939 i
 66.05  31.8245  31.7907 i
 66.1  40.1952  31.7875 i
 66.15  28.7424  31.7843 i
 66.2  32.6005  31.781 i
 66.25  37.2686  31.7778 i
 66.3  35.2511  31.7746 i
 66.35  34.0269  31.7714 i
 66.4  37.7351  31.7682 i
 66.45  31.4247  31.765 i
 66.5  23.546  31.7617 i
 66.55  29.8152  31.7585 i
 66.6  26.8758  31.7553 i
 66.65  26.1062  31.7521 i
 66.7  39.6785  31.7488 i
 66.75  32.0723  31.7456 i
 66.8  37.7342  31.7424 i
 66.85  41.8388  31.7392 i
 66.9  24.5177  31.7359 i
 66.95  36.7586  31.7327 i
 67  30.9275  31.7295 i
 67.05  35.4242  31.7262 i
 67.1  29.9298  31.723 i
 67.15  32.6728  31.7197 i
 67.2  25.6482  31.7165 i
 67.25  34.1947  31.7133 i
 67.3  29.2746  31.71 i
 67.35  38.3504  31.7068 i
 67.4  28.0163  31.7035 i
 67.45  27.642  31.7003 i
 67.5  28.7248  31.697 i
 67.55  29.571  31.6938 i
 67.6  22.7345  31.6905 i
 67.65  37.2505  31.6873 i
 67.7  38.3247  31.684 i
 67.75  24.3814  31.6808 i
 67.8  31.1883  31.6775 i
 67.85  27.9869  31.6743 i
 67.9  31.9542  31.671 i
 67.95  37.8434  31.6678 i
 68  33.9616  31.6645 i
 68.05  25.0531  31.6612 i
 68.1  33.2883  31.658 i
 68.15  31.6618  31.6547 i
 68.2  27.3823  31.6514 i
 68.25  30.0377  31.6482 i
 68.3  33.1886  31.6449 i
 68.35  32.9161  31.6416 i
 68.4  38.768  31.6383 i
 68.45  31.9083  31.6351 i
 68.5  20.6211  31.6318 i
 68.55  28.0991  31.6285 i
 68.6  41.5197  31.6252 i
 68.65  20.056  31.622 i
 68.7  27.1451  31.6187 i
 68.75  24.1738  31.6154 i
 68.8  31.8238  31.6121 i
 68.85  34.6858  31.6088 i
 68.9  33.5526  31.6055 i
 68.95  24.1754  31.6022 i
 69  34.3118  31.599 i
 69.05  33.1277  31.5957 i
 69.1  34.0754  31.5924 i
 69.15  33.4477  31.5891 i
 69.2  22.2351  31.5858 i
 69.25  27.0972  31.5825 i
 69.3  23.0703  31.5792 i
 69.35  28.8426  31.5759 i
 69.4  32.7545  31.5726 i
 69.45  31.9095  31.5693 i
 69.5  29.1266  31.566 i
 69.55  39.8914  31.5626 i
 69.6  36.2203  31.5593 i
 69.65  40.3997  31.556 i
 69.7  25.2154  31.5527 i
 69.75  31.2072  31.5494 i
 69.8  32.6048  31.5461 i
 69.85  27.1692  31.5428 i
 69.9  37.3003  31.5394 i
 69.95  30.8779  31.5361 i
 70  32.7486  31.5328 i
 70.05  30.1122  31.5295 i
 70.1  27.987  31.5261 i
 70.15  31.303  31.5228 i
 70.2  37.9627  31.5195 i
 70.25  27.685  31.5162 i
 70.3  23.7356  31.5128 i
 70.35  31.2004  31.5095 i
 70.4  34.6825  31.5062 i
 70.45  33.9508  31.5028 i
 70.5  24.362  31.4995 i
 70.55  23.5212  31.4961 i
 70.6  32.8535  31.4928 i
 70.65  30.784  31.4894 i
 70.7  46.2617  31.4861 i
 70.75  31.3148  31.4828 i
 70.8  32.3014  31.4794 i
 70.85  31.2103  31.4761 i
 70.9  28.7272  31.4727 i
 70.95  29.279  31.4693 i
 71  27.5787  31.466 i
 71.05  33.1788  31.4626 i
 71.1  24.1863  31.4593 i
 71.15  34.0698  31.4559 i
 71.2  34.7332  31.4525 i
 71.25  25.5603  31.4492 i
 71.3  23.4693  31.4458 i
 71.35  33.9409  31.4424 i
 71.4  34.8891  31.4391 i
 71.45  24.8814  31.4357 i
 71.5  37.2614  31.4323 i
 71.55  27.859  31.429 i
 71.6  21.7905  31.4256 i
 71.65  27.0768  31.4222 i
 71.7  36.1935  31.4188 i
 71.75  40.6803  31.4154 i
 71.8  32.7409  31.412 i
 71.85  31.6564  31.4087 i
 71.9  43.3901  31.4053 i
 71.95  39.3856  31.4019 i
 72  28.2618  31.3985 i
 72.05  32.4128  31.3951 i
 72.1  32.6352  31.3917 i
 72.15  26.913  31.3883 i
 72.2  30.7031  31.3849 i
 72.25  28.3626  31.3815 i
 72.3  26.6574  31.3781 i
 72.35  29.2417  31.3747 i
 72.4  24.6718  31.3713 i
 72.45  31.8536  31.3679 i
 72.5  34.645  31.3645 i
 72.55  33.9735  31.3611 i
 72.6  23.3181  31.3576 i
 72.65  28.5851  31.3542 i
 72.7  38.4036  31.3508 i
 72.75  50.224  31.3474 i
 72.8  35.0734  31.344 i
 72.85  22.6605  31.3405 i
 72.9  34.1533  31.3371 i
 72.95  30.5629  31.3337 i
 73  28.9237  31.3303 i
 73.05  27.0586  31.3268 i
 73.1  39.9048  31.3234 i
 73.15  27.8718  31.32 i
 73.2  40.4374  31.3165 i
 73.25  41.6491  31.3131 i
 73.3  27.9883  31.3096 i
 73.35  32.4723  31.3062 i
 73.4  28.396  31.3028 i
 73.45  18.8292  31.2993 i
 73.5  34.2871  31.2958 i
 73.55  36.608  31.2924 i
 73.6  30.2422  31.2888 i
 73.65  27.0395  31.2853 i
 73.7  30.3881  31.2817 i
 73.75  31.04  31.2781 i
 73.8  33.3802  31.2745 i
 73.85  38.9816  31.2709 i
 73.9  33.2182  31.2672 i
 73.95  34.2167  31.2635 i
 74  18.5273  31.2598 i
 74.05  30.7263  31.2561 i
 74.1  23.3902  31.2524 i
 74.15  28.3616  31.2486 i
 74.2  31.1345  31.2448 i
 74.25  46.4665  31.241 i
 74.3  30.6122  31.2371 i
 74.35  27.7451  31.2332 i
 74.4  28.5679  31.2294 i
 74.45  34.315  31.2255 i
 74.5  28.301  31.2215 i
 74.55  27.7949  31.2176 i
 74.6  37.9528  31.2136 i
 74.65  36.8016  31.2096 i
 74.7  33.8489  31.2056 i
 74.75  32.0652  31.2016 i
 74.8  27.1654  31.1975 i
 74.85  26.5279  31.1934 i
 74.9  31.2568  31.1893 i
 74.95  30.8954  31.1852 i
 75  41.2187  31.1811 i
 75.05  34.1135  31.1769 i
 75.1  30.3797  31.1728 i
 75.15  37.9081  31.1686 i
 75.2  25.1473  31.1644 i
 75.25  23.2678  31.1601 i
 75.3  26.4448  31.1559 i
 75.35  45.6279  31.1516 i
 75.4  44.8077  31.1474 i
 75.45  36.3593  31.1431 i
 75.5  30.3299  31.1388 i
 75.55  21.8562  31.1344 i
 75.6  29.8953  31.1301 i
 75.65  27.8476  31.1257 i
 75.7  33.5758  31.1213 i
 75.75  42.6948  31.1169 i
 75.8  30.8995  31.1125 i
 75.85  26.0188  31.1081 i
 75.9  30.2793  31.1037 i
 75.95  34.2476  31.0992 i
 76  37.9842  31.0947 i
 76.05  40.8676  31.0902 i
 76.1  34.4817  31.0857 i
 76.15  31.6244  31.0812 i
 76.2  36.5419  31.0767 i
 76.25  34.9835  31.0721 i
 76.3  27.691  31.0676 i
 76.35  32.2085  31.063 i
 76.4  27.6207  31.0584 i
 76.45  34.684  31.0538 i
 76.5  31.9848  31.0492 i
 76.55  27.4257  31.0446 i
 76.6  24.7625  31.0399 i
 76.65  34.1717  31.0353 i
 76.7  33.2828  31.0306 i
 76.75  28.194  31.0259 i
 76.8  24.0494  31.0212 i
 76.85  38.7416  31.0165 i
 76.9  31.1695  31.0118 i
 76.95  31.0282  31.0071 i
 77  32.2342  31.0024 i
 77.05  27.5689  30.9976 i
 77.1  35.1268  30.9929 i
 77.15  32.1079  30.9881 i
 77.2  39.3439  30.9833 i
 77.25  27.0652  30.9785 i
 77.3  29.4572  30.9737 i
 77.35  30.8011  30.9689 i
 77.4  29.0532  30.9641 i
 77.45  30.6724  30.9593 i
 77.5  33.5901  30.9545 i
 77.55  24.9798  30.9496 i
 77.6  33.8325  30.9448 i
 77.65  25.847  30.9399 i
 77.7  30.2999  30.935 i
 77.75  26.3283  30.9302 i
 77.8  25.7821  30.9253 i
 77.85  33.3968  30.9204 i
 77.9  33.6489  30.9155 i
 77.95  27.763  30.9106 i
 78  37.0801  30.9057 i
 78.05  35.2656  30.9008 i
 78.1  30.8481  30.8958 i
 78.15  31.8142  30.8909 i
 78.2  32.417  30.886 i
 78.25  42.0233  30.881 i
 78.3  30.756  30.8761 i
 78.35  40.928  30.8711 i
 78.4  33.9353  30.8661 i
 78.45  22.3819  30.8612 i
 78.5  37.278  30.8562 i
 78.55  28.4994  30.8512 i
 78.6  31.4594  30.8463 i
 78.65  31.4254  30.8413 i
 78.7  23.9237  30.8363 i
 78.75  23.9904  30.8313 i
 78.8  28.9175  30.8263 i
 78.85  32.1548  30.8213 i
 78.9  27.3315  30.8163 i
 78.95  34.0952  30.8113 i
 79  37.8595  30.8063 i
 79.05  33.2346  30.8013 i
 79.1  35.6118  30.7963 i
 79.15  35.7408  30.7912 i
 79.2  32.6326  30.7862 i
 79.25  28.3955  30.7812 i
 79.3  37.1562  30.7762 i
 79.35  35.8628  30.7712 i
 79.4  36.3387  30.7661 i
 79.45  31.7342  30.7611 i
 79.5  36.5629  30.7561 i
 79.55  28.2174  30.7511 i
 79.6  35.6178  30.746 i
 79.65  31.7728  30.741 i
 79.7  23.1175  30.736 i
 79.75  30.8574  30.731 i
 79.8  36.2196  30.7259 i
 79.85  37.7113  30.7209 i
 79.9  26.95  30.7159 i
 79.95  34.6753  30.7109 i
 80  29.541  30.7058 i
 80.05  25.4174  30.7008 i
 80.1  36.4672  30.6958 i
 80.15  27.244  30.6908 i
 80.2  36.1623  30.6858 i
 80.25  19.1549  30.6808 i
 80.3  25.928  30.6757 i
 80.35  29.7678  30.6707 i
 80.4  38.9481  30.6657 i
 80.45  23.1145  30.6607 i
 80.5  20.5103  30.6557 i
 80.55  40.0407  30.6507 i
 80.6  30.2381  30.6457 i
 80.65  49.3688  30.6408 i
 80.7  25.6777  30.6358 i
 80.75  38.3771  30.6308 i
 80.8  34.8499  30.6258 i
 80.85  26.7928  30.6209 i
 80.9  37.3889  30.6159 i
 80.95  31.7471  30.6109 i
 81  36.082  30.606 i
 81.05  18.5954  30.601 i
 81.1  30.4164  30.5961 i
 81.15  37.4814  30.5912 i
 81.2  26.5132  30.5862 i
 81.25  27.5229  30.5813 i
 81.3  29.826  30.5764 i
 81.35  35.7708  30.5715 i
 81.4  46.3944  30.5666 i
 81.45  29.3394  30.5617 i
 81.5  26.1576  30.5568 i
 81.55  34.5051  30.5519 i
 81.6  50.3464  30.547 i
 81.65  46.5177  30.5422 i
 81.7  44.1063  30.5373 i
 81.75  56.6631  30.5325 i
 81.8  79.8148  30.5276 i
 81.85  131.49  30.5228 i
 81.9  221.054  30.518 i
 81.95  310.083  30.5132 i
 82  255.266  30.5083 i
 82.05  221.063  30.5036 i
 82.1  122.475  30.4988 i
 82.15  81.7051  30.494 i
 82.2  61.9412  30.4892 i
 82.25  43.5143  30.4845 i
 82.3  44.7929  30.4797 i
 82.35  33.7114  30.475 i
 82.4  30.8957  30.4703 i
 82.45  29.0649  30.4656 i
 82.5  29.9285  30.4609 i
 82.55  45.4235  30.4562 i
 82.6  32.5712  30.4515 i
 82.65  19.6965  30.4469 i
 82.7  37.0215  30.4422 i
 82.75  27.5751  30.4376 i
 82.8  35.6102  30.4329 i
 82.85  30.9305  30.4283 i
 82.9  27.4819  30.4237 i
 82.95  32.5655  30.4192 i
 83  34.139  30.4146 i
 83.05  37.4531  30.41 i
 83.1  34.9748  30.4055 i
 83.15  32.3244  30.401 i
 83.2  31.5492  30.3964 i
 83.25  32.3851  30.3919 i
 83.3  25.7667  30.3875 i
 83.35  36.6936  30.383 i
 83.4  24.3075  30.3785 i
 83.45  27.1141  30.3741 i
 83.5  33.2558  30.3697 i
 83.55  16.2924  30.3653 i
 83.6  30.799  30.3609 i
 83.65  28.8261  30.3565 i
 83.7  38.9351  30.3521 i
 83.75  31.4884  30.3478 i
 83.8  25.0769  30.3435 i
 83.85  34.6483  30.3392 i
 83.9  24.8229  30.3349 i
 83.95  31.3799  30.3306 i
 84  26.5747  30.3263 i
 84.05  33.1121  30.3221 i
 84.1  29.4369  30.3179 i
 84.15  25.919  30.3137 i
 84.2  23.5956  30.3095 i
 84.25  20.3685  30.3053 i
 84.3  22.4635  30.3012 i
 84.35  42.7407  30.2971 i
 84.4  33.7164  30.2929 i
 84.45  40.3982  30.2889 i
 84.5  30.6839  30.2848 i
 84.55  28.1408  30.2807 i
 84.6  22.4444  30.2767 i
 84.65  30.1321  30.2727 i
 84.7  29.5108  30.2687 i
 84.75  38.4198  30.2647 i
 84.8  32.496  30.2608 i
 84.85  25.1537  30.2569 i
 84.9  23.137  30.253 i
 84.95  34.3376  30.2491 i
 85  25.0077  30.2452 i
 85.05  35.9024  30.2414 i
 85.1  28.9599  30.2376 i
 85.15  27.1188  30.2338 i
 85.2  27.221  30.23 i
 85.25  23.4535  30.2263 i
 85.3  36.3098  30.2225 i
 85.35  28.3356  30.2188 i
 85.4  25.9875  30.2152 i
 85.45  37.806  30.2115 i
 85.5  28.4772  30.2079 i
 85.55  25.2021  30.2043 i
 85.6  35.9573  30.2007 i
 85.65  33.0387  30.1971 i
 85.7  27.2001  30.1936 i
 85.75  39.2427  30.1901 i
 85.8  22.7765  30.1866 i
 85.85  27.9865  30.1831 i
 85.9  26.2444  30.1797 i
 85.95  26.4549  30.1763 i
 86  35.9011  30.1729 i
 86.05  29.2096  30.1696 i
 86.1  29.9845  30.1662 i
 86.15  32.7848  30.1629 i
 86.2  30.1622  30.1597 i
 86.25  25.7186  30.1564 i
 86.3  21.2495  30.1532 i
 86.35  38.7533  30.15 i
 86.4  30.6176  30.1468 i
 86.45  24.9823  30.1437 i
 86.5  31.3293  30.1406 i
 86.55  20.1407  30.1375 i
 86.6  27.2517  30.1344 i
 86.65  35.7716  30.1314 i
 86.7  28.8515  30.1284 i
 86.75  35.0558  30.1255 i
 86.8  35.9016  30.1225 i
 86.85  31.5203  30.1196 i
 86.9  27.7743  30.1167 i
 86.95  30.832  30.1139 i
 87  26.044  30.1111 i
 87.05  19.9426  30.1083 i
 87.1  30.2721  30.1055 i
 87.15  33.2564  30.1028 i
 87.2  22.9108  30.1001 i
 87.25  30.9396  30.0974 i
 87.3  37.814  30.0948 i
 87.35  35.6591  30.0922 i
 87.4  20.9947  30.0896 i
 87.45  21.9424  30.0871 i
 87.5  31.6631  30.0846 i
 87.55  17.2216  30.0821 i
 87.6  37.0484  30.0796 i
 87.65  39.4857  30.0772 i
 87.7  33.8275  30.0748 i
 87.75  31.9918  30.0725 i
 87.8  36.6673  30.0702 i
 87.85  34.0085  30.0679 i
 87.9  24.005  30.0657 i
 87.95  28.6043  30.0634 i
 88  27.2013  30.0613 i
 88.05  23.0065  30.0591 i
 88.1  30.4324  30.057 i
 88.15  30.1478  30.0549 i
 88.2  31.7028  30.0529 i
 88.25  30.9458  30.0509 i
 88.3  28.8007  30.0489 i
 88.35  26.8108  30.047 i
 88.4  27.3246  30.0451 i
 88.45  23.2228  30.0432 i
 88.5  32.5585  30.0414 i
 88.55  31.5507  30.0396 i
 88.6  32.9889  30.0379 i
 88.65  21.1031  30.0362 i
 88.7  36.031  30.0345 i
 88.75  27.92  30.0328 i
 88.8  22.3814  30.0312 i
 88.85  32.4372  30.0297 i
 88.9  30.1938  30.0281 i
 88.95  26.6673  30.0266 i
 89  26.9106  30.0252 i
 89.05  31.5956  30.0238 i
 89.1  26.9276  30.0224 i
 89.15  23.6865  30.0211 i
 89.2  34.5161  30.0198 i
 89.25  27.4408  30.0185 i
 89.3  30.1104  30.0173 i
 89.35  33.8  30.0161 i
 89.4  37.1827  30.015 i
 89.45  35.6649  30.0139 i
 89.5  29.759  30.0128 i
 89.55  35.7174  30.0118 i
 89.6  28.7553  30.0108 i
 89.65  37.9853  30.0099 i
 89.7  28.0343  30.009 i
 89.75  39.0407  30.0081 i
 89.8  24.2576  30.0073 i
 89.85  40.6936  30.0065 i
 89.9  38.241  30.0058 i
 89.95  38.8308  30.0051 i
 90  29.1586  30.0045 i
 90.05  34.565  30.0039 i
 90.1  28.9858  30.0033 i
 90.15  37.6121  30.0028 i
 90.2  34.6125  30.0023 i
 90.25  26.7024  30.0019 i
 90.3  28.6345  30.0015 i
 90.35  28.8134  30.0012 i
 90.4  27.6588  30.0009 i
 90.45  30.5438  30.0006 i
 90.5  31.5567  30.0004 i
 90.55  22.5297  30.0002 i
 90.6  26.772  30.0001 i
 90.65  36.7415  30 i
 90.7  29.3818  30 i
 90.75  30.3127  30 i
 90.8  29.8515  30.0001 i
 90.85  33.0936  30.0002 i
 90.9  30.7551  30.0004 i
 90.95  26.143  30.0006 i
 91  26.1332  30.0009 i
 91.05  24.8781  30.0012 i
 91.1  24.2474  30.0015 i
 91.15  21.6263  30.002 i
 91.2  36.8811  30.0024 i
 91.25  23.2376  30.0029 i
 91.3  28.3468  30.0035 i
 91.35  24.8664  30.0041 i
 91.4  35.1717  30.0048 i
 91.45  36.0215  30.0055 i
 91.5  26.7557  30.0062 i
 91.55  28.6312  30.007 i
 91.6  30.447  30.0079 i
 91.65  28.5262  30.0088 i
 91.7  32.3954  30.0097 i
 91.75  29.2013  30.0107 i
 91.8  29.1299  30.0117 i
 91.85  31.4207  30.0128 i
 91.9  33.1754  30.0139 i
 91.95  35.9654  30.0151 i
 92  33.0674  30.0163 i
 92.05  25.7007  30.0175 i
 92.1  38.8136  30.0188 i
 92.15  33.7589  30.0202 i
 92.2  37.4884  30.0216 i
 92.25  36.8459  30.023 i
 92.3  28.7597  30.0245 i
 92.35  30.1467  30.026 i
 92.4  38.8622  30.0276 i
 92.45  28.2999  30.0292 i
 92.5  30.0375  30.0308 i
 92.55  26.3691  30.0325 i
 92.6  37.8535  30.0342 i
 92.65  28.143  30.036 i
 92.7  31.5376  30.0378 i
 92.75  26.332  30.0397 i
 92.8  26.0465  30.0415 i
 92.85  25.174  30.0435 i
 92.9  30.7374  30.0454 i
 92.95  23.1567  30.0475 i
 93  17.6644  30.0495 i
 93.05  21.2554  30.0516 i
 93.1  29.8269  30.0537 i
 93.15  26.8671  30.0559 i
 93.2  27.3278  30.0581 i
 93.25  36.6923  30.0603 i
 93.3  34.7076  30.0626 i
 93.35  27.9217  30.0649 i
 93.4  29.9678  30.0673 i
 93.45  23.5741  30.0697 i
 93.5  36.6359  30.0721 i
 93.55  26.0465  30.0746 i
 93.6  30.1724  30.0771 i
 93.65  28.2541  30.0796 i
 93.7  28.5781  30.0822 i
 93.75  24.4553  30.0848 i
 93.8  31.0314  30.0875 i
 93.85  42.1737  30.0902 i
 93.9  23.0051  30.0929 i
 93.95  29.0472  30.0956 i
 94  25.3655  30.0984 i
 94.05  29.3285  30.1012 i
 94.1  26.8098  30.1041 i
 94.15  32.3446  30.107 i
 94.2  33.3098  30.1099 i
 94.25  25.9572  30.1128 i
 94.3  30.8598  30.1158 i
 94.35  24.9628  30.1189 i
 94.4  33.7319  30.1219 i
 94.45  27.2931  30.125 i
 94.5  26.9943  30.1281 i
 94.55  44.23  30.1312 i
 94.6  25.5349  30.1344 i
 94.65  23.2176  30.1376 i
 94.7  25.8229  30.1409 i
 94.75  31.4882  30.1441 i
 94.8  26.0633  30.1474 i
 94.85  28.7292  30.1508 i
 94.9  31.8774  30.1541 i
 94.95  34.3611  30.1575 i
 95  26.236  30.1609 i
 95.05  28.347  30.1644 i
 95.1  38.6055  30.1678 i
 95.15  24.936  30.1713 i
 95.2  31.371  30.1749 i
 95.25  33.2018  30.1784 i
 95.3  28.3039  30.182 i
 95.35  35.1319  30.1856 i
 95.4  29.3675  30.1893 i
 95.45  34.5646  30.1929 i
 95.5  34.0903  30.1966 i
 95.55  31.0517  30.2003 i
 95.6  24.2469  30.2041 i
 95.65  38.1992  30.2078 i
 95.7  31.4595  30.2116 i
 95.75  36.4673  30.2155 i
 95.8  24.4644  30.2193 i
 95.85  18.6621  30.2232 i
 95.9  34.0826  30.2271 i
 95.95  34.6744  30.231 i
 96  24.4358  30.2349 i
 96.05  33.2158  30.2389 i
 96.1  23.9111  30.2429 i
 96.15  25.1102  30.2469 i
 96.2  20.5252  30.2509 i
 96.25  26.7999  30.255 i
 96.3  37.039  30.2591 i
 96.35  25.6341  30.2632 i
 96.4  22.26  30.2673 i
 96.45  29.6223  30.2714 i
 96.5  32.2977  30.2756 i
 96.55  30.3435  30.2798 i
 96.6  40.7516  30.284 i
 96.65  41.4437  30.2882 i
 96.7  32.5396  30.2925 i
 96.75  38.1167  30.2967 i
 96.8  30.1782  30.301 i
 96.85  32.28  30.3053 i
 96.9  39.5038  30.3096 i
 96.95  31.9514  30.314 i
 97  37.1741  30.3183 i
 97.05  31.2335  30.3227 i
 97.1  32.976  30.3271 i
 97.15  25.8214  30.3315 i
 97.2  27.8998  30.336 i
 97.25  29.3423  30.3404 i
 97.3  36.2371  30.3449 i
 97.35  31.3338  30.3494 i
 97.4  26.5807  30.3539 i
 97.45  31.0708  30.3584 i
 97.5  32.5829  30.3629 i
 97.55  30.8944  30.3675 i
 97.6  31.6593  30.372 i
 97.65  30.4614  30.3766 i
 97.7  32.2741  30.3812 i
 97.75  32.395  30.3858 i
 97.8  26.3563  30.3905 i
 97.85  31.7281  30.3951 i
 97.9  27.669  30.3997 i
 97.95  32.8093  30.4044 i
 98  29.3902  30.4091 i
 98.05  40.9557  30.4138 i
 98.1  34.0194  30.4185 i
 98.15  30.7108  30.4232 i
 98.2  29.0278  30.4279 i
 98.25  42.3133  30.4327 i
 98.3  49.2349  30.4374 i
 98.35  65.6647  30.4422 i
 98.4  77.2636  30.447 i
 98.45  107.625  30.4518 i
 98.5  158.086  30.4565 i
 98.55  164.085  30.4614 i
 98.6  121.742  30.4662 i
 98.65  93.9584  30.471 i
 98.7  66.7557  30.4758 i
 98.75  54.6896  30.4807 i
 98.8  46.7055  30.4855 i
 98.85  46.4848  30.4904 i
 98.9  38.6701  30.4953 i
 98.95  40.3194  30.5002 i
 99  39.3977  30.5051 i
 99.05  39.3143  30.51 i
 99.1  41.2685  30.5149 i
 99.15  26.2152  30.5198 i
 99.2  29.2371  30.5247 i
 99.25  32.3366  30.5296 i
 99.3  30.7442  30.5346 i
 99.35  36.226  30.5395 i
 99.4  27.7866  30.5444 i
 99.45  25.6293  30.5494 i
 99.5  34.1215  30.5543 i
 99.55  33.1587  30.5593 i
 99.6  28.1522  30.5643 i
 99.65  28.8748  30.5692 i
 99.7  32.2921  30.5742 i
 99.75  31.0141  30.5792 i
 99.8  30.1411  30.5842 i
 99.85  25.8175  30.5892 i
 99.9  14.7164  30.5942 i
 99.95  25.5423  30.5992 i
 100  25.6895  30.6042 i
 100.05  26.4604  30.6092 i
 100.1  28.2009  30.6142 i
 100.15  40.6651  30.6192 i
 100.2  28.208  30.6242 i
 100.25  31.3973  30.6292 i
 100.3  31.5272  30.6342 i
 100.35  18.0209  30.6392 i
 100.4  22.7795  30.6442 i
 100.45  38.5646  30.6492 i
 100.5  28.8079  30.6542 i
 100.55  37.3617  30.6592 i
 100.6  43.888  30.6643 i
 100.65  32.0846  30.6693 i
 100.7  22.3617  30.6743 i
 100.75  25.7262  30.6793 i
 100.8  34.7152  30.6843 i
 100.85  24.8457  30.6893 i
 100.9  24.9265  30.6943 i
 100.95  31.967  30.6993 i
 101  29.8097  30.7043 i
 101.05  21.4698  30.7093 i
 101.1  29.7765  30.7143 i
 101.15  30.2998  30.7193 i
 101.2  24.8191  30.7243 i
 101.25  29.8173  30.7293 i
 101.3  36.662  30.7342 i
 101.35  40.8045  30.7392 i
 101.4  30.3958  30.7442 i
 101.45  31.5958  30.7492 i
 101.5  28.9453  30.7541 i
 101.55  29.6314  30.7591 i
 101.6  34.6348  30.764 i
 101.65  33.2215  30.769 i
 101.7  22.3913  30.7739 i
 101.75  30.5829  30.7789 i
 101.8  33.2032  30.7838 i
 101.85  27.3414  30.7887 i
 101.9  33.5473  30.7936 i
 101.95  28.7832  30.7985 i
 102  37.4577  30.8034 i
 102.05  24.3556  30.8083 i
 102.1  38.0925  30.8132 i
 102.15  31.3689  30.8181 i
 102.2  28.7415  30.8229 i
 102.25  30.0231  30.8278 i
 102.3  27.9953  30.8326 i
 102.35  32.2376  30.8375 i
 102.4  37.3748  30.8423 i
 102.45  32.8213  30.8471 i
 102.5  31.8806  30.8519 i
 102.55  23.4348  30.8567 i
 102.6  36.3112  30.8615 i
 102.65  31.5849  30.8663 i
 102.7  36.4369  30.871 i
 102.75  23.3518  30.8758 i
 102.8  36.1508  30.8805 i
 102.85  32.5992  30.8853 i
 102.9  30.3152  30.89 i
 102.95  23.7787  30.8947 i
 103  30.2863  30.8994 i
 103.05  23.8168  30.9041 i
 103.1  26.7309  30.9087 i
 103.15  29.2947  30.9134 i
 103.2  21.6642  30.918 i
 103.25  34.3208  30.9226 i
 103.3  32.5145  30.9272 i
 103.35  31.27  30.9318 i
 103.4  27.5009  30.9364 i
 103.45  33.4463  30.941 i
 103.5  28.8411  30.9455 i
 103.55  37.3704  30.9501 i
 103.6  37.3112  30.9546 i
 103.65  19.6636  30.9591 i
 103.7  31.3511  30.9636 i
 103.75  29.7747  30.968 i
 103.8  40.1446  30.9725 i
 103.85  33.5878  30.9769 i
 103.9  30.6302  30.9813 i
 103.95  25.0871  30.9857 i
 104  29.1095  30.9901 i
 104.05  32.5763  30.9945 i
 104.1  28.4754  30.9988 i
 104.15  32.314  31.0031 i
 104.2  24.0603  31.0075 i
 104.25  24.5976  31.0117 i
 104.3  24.0466  31.016 i
 104.35  30.4942  31.0203 i
 104.4  33.1113  31.0245 i
 104.45  31.1413  31.0287 i
 104.5  29.4827  31.0329 i
 104.55  27.841  31.037 i
 104.6  27.5554  31.0412 i
 104.65  33.4087  31.0453 i
 104.7  28.0592  31.0494 i
 104.75  39.7135  31.0535 i
 104.8  30.157  31.0575 i
 104.85  28.3307  31.0616 i
 104.9  31.9626  31.0656 i
 104.95  32.2332  31.0696 i
 105  36.179  31.0735 i
 105.05  33.8403  31.0775 i
 105.1  20.5028  31.0814 i
 105.15  23.659  31.0853 i
 105.2  25.4177  31.0891 i
 105.25  24.5768  31.093 i
 105.3  47.8034  31.0968 i
 105.35  31.8968  31.1006 i
 105.4  30.2682  31.1044 i
 105.45  22.1823  31.1081 i
 105.5  32.2846  31.1118 i
 105.55  34.2099  31.1155 i
 105.6  29.1323  31.1192 i
 105.65  36.6489  31.1228 i
 105.7  24.6602  31.1264 i
 105.75  30.2392  31.13 i
 105.8  41.0399  31.1336 i
 105.85  33.2075  31.1371 i
 105.9  31.1884  31.1406 i
 105.95  29.2881  31.1441 i
 106  30.0526  31.1475 i
 106.05  28.9448  31.1509 i
 106.1  32.592  31.1543 i
 106.15  39.2577  31.1577 i
 106.2  30.4587  31.161 i
 106.25  22.9159  31.1643 i
 106.3  25.4471  31.1676 i
 106.35  30.1759  31.1708 i
 106.4  25.3586  31.174 i
 106.45  37.0269  31.1772 i
 106.5  29.5677  31.1803 i
 106.55  24.0986  31.1835 i
 106.6  27.1094  31.1865 i
 106.65  33.065  31.1896 i
 106.7  22.7337  31.1926 i
 106.75  25.0386  31.1956 i
 106.8  32.5213  31.1985 i
 106.85  42.4148  31.2015 i
 106.9  33.0406  31.2043 i
 106.95  19.9612  31.2072 i
 107  30.1869  31.21 i
 107.05  26.883  31.2128 i
 107.1  32.3372  31.2156 i
 107.15  30.3917  31.2183 i
 107.2  33.2543  31.2209 i
 107.25  26.2107  31.2236 i
 107.3  27.8379  31.2262 i
 107.35  39.5417  31.2288 i
 107.4  30.3203  31.2313 i
 107.45  23.7611  31.2338 i
 107.5  29.4208  31.2363 i
 107.55  43.2115  31.2387 i
 107.6  35.4331  31.2411 i
 107.65  30.8483  31.2435 i
 107.7  31.0412  31.2458 i
 107.75  26.6225  31.2481 i
 107.8  34.8284  31.2503 i
 107.85  21.9938  31.2525 i
 107.9  29.4716  31.2547 i
 107.95  34.1374  31.2568 i
 108  24.747  31.2589 i
 108.05  25.4663  31.261 i
 108.1  33.1906  31.263 i
 108.15  28.739  31.2649 i
 108.2  30.4793  31.2669 i
 108.25  36.4603  31.2688 i
 108.3  25.5883  31.2706 i
 108.35  36.0859  31.2724 i
 108.4  28.1225  31.2742 i
 108.45  27.3882  31.2759 i
 108.5  36.2926  31.2776 i
 108.55  34.5161  31.2792 i
 108.6  28.9504  31.2808 i
 108.65  28.7996  31.2824 i
 108.7  28.5942  31.2839 i
 108.75  22.3512  31.2854 i
 108.8  31.4623  31.2868 i
 108.85  18.2313  31.2882 i
 108.9  32.4101  31.2896 i
 108.95  27.4914  31.2909 i
 109  36.4583  31.2921 i
 109.05  29.3179  31.2933 i
 109.1  33.447  31.2945 i
 109.15  31.5662  31.2956 i
 109.2  25.1733  31.2967 i
 109.25  27.6689  31.2977 i
 109.3  31.5854  31.2987 i
 109.35  24.4339  31.2996 i
 109.4  45.9657  31.3005 i
 109.45  26.9969  31.3014 i
 109.5  24.9872  31.3022 i
 109.55  30.4186  31.303 i
 109.6  35.1777  31.3038 i
 109.65  37.8526  31.3045 i
 109.7  35.3243  31.3052 i
 109.75  24.5506  31.3059 i
 109.8  30.2873  31.3065 i
 109.85  37.6269  31.3071 i
 109.9  31.8161  31.3077 i
 109.95  40.1869  31.3082 i
 110  26.8589  31.3087 i
 110.05  24.5953  31.3092 i
 110.1  37.4929  31.3096 i
 110.15  28.548  31.31 i
 110.2  39.5942  31.3104 i
 110.25  31.6544  31.3108 i
 110.3  32.7278  31.3111 i
 110.35  36.5711  31.3114 i
 110.4  25.5446  31.3116 i
 110.45  28.0415  31.3118 i
 110.5  17.8738  31.312 i
 110.55  32.5676  31.3122 i
 110.6  32.2694  31.3123 i
 110.65  31.0568  31.3124 i
 110.7  34.0822  31.3125 i
 110.75  29.6649  31.3125 i
 110.8  28.784  31.3126 i
 110.85  26.51  31.3125 i
 110.9  28.1733  31.3125 i
 110.95  29.8926  31.3124 i
 111  26.3761  31.3123 i
 111.05  22.5969  31.3122 i
 111.1  43.6945  31.312 i
 111.15  32.8355  31.3118 i
 111.2  25.7457  31.3116 i
 111.25  22.2707  31.3113 i
 111.3  29.7773  31.311 i
 111.35  29.754  31.3107 i
 111.4  31.5542  31.3104 i
 111.45  31.502  31.31 i
 111.5  35.2784  31.3096 i
 111.55  42.8003  31.3092 i
 111.6  33.5212  31.3087 i
 111.65  31.9155  31.3083 i
 111.7  32.0134  31.3077 i
 111.75  38.7742  31.3072 i
 111.8  43.4378  31.3066 i
 111.85  27.9115  31.306 i
 111.9  34.7915  31.3054 i
 111.95  28.7169  31.3048 i
 112  25.6224  31.3041 i
 112.05  21.2665  31.3034 i
 112.1  32.1454  31.3027 i
 112.15  26.1801  31.3019 i
 112.2  26.9238  31.3011 i
 112.25  20.0866  31.3003 i
 112.3  26.4171  31.2995 i
 112.35  26.5352  31.2986 i
 112.4  29.5635  31.2977 i
 112.45  33.2016  31.2968 i
 112.5  23.8618  31.2959 i
 112.55  27.6195  31.2949 i
 112.6  22.603  31.2939 i
 112.65  46.0276  31.2929 i
 112.7  32.8583  31.2918 i
 112.75  39.8393  31.2908 i
 112.8  34.6707  31.2897 i
 112.85  33.5521  31.2885 i
 112.9  32.8823  31.2874 i
 112.95  36.1931  31.2862 i
 113  34.697  31.285 i
 113.05  40.8182  31.2838 i
 113.1  42.1753  31.2826 i
 113.15  28.9085  31.2813 i
 113.2  27.7728  31.28 i
 113.25  32.4429  31.2787 i
 113.3  22.3444  31.2773 i
 113.35  23.6251  31.2759 i
 113.4  33.2653  31.2745 i
 113.45  15.7559  31.2731 i
 113.5  33.6749  31.2717 i
 113.55  38.1278  31.2702 i
 113.6  41.5857  31.2687 i
 113.65  37.0265  31.2672 i
 113.7  31.7329  31.2657 i
 113.75  38.6568  31.2641 i
 113.8  35.0842  31.2625 i
 113.85  39.5486  31.2609 i
 113.9  31.18  31.2593 i
 113.95  31.8867  31.2576 i
 114  24.3598  31.256 i
 114.05  32.7674  31.2543 i
 114.1  34.8053  31.2525 i
 114.15  37.4061  31.2508 i
 114.2  20.6629  31.249 i
 114.25  27.4558  31.2472 i
 114.3  26.0644  31.2454 i
 114.35  31.0237  31.2436 i
 114.4  32.4723  31.2417 i
 114.45  23.1793  31.2399 i
 114.5  33.1923  31.238 i
 114.55  31.9218  31.236 i
 114.6  40.1448  31.2341 i
 114.65  32.8922  31.2321 i
 114.7  26.337  31.2301 i
 114.75  31.5457  31.2281 i
 114.8  28.2188  31.2261 i
 114.85  34.2958  31.2241 i
 114.9  27.9473  31.222 i
 114.95  39.3135  31.2199 i
 115  34.4818  31.2178 i
 115.05  24.9733  31.2157 i
 115.1  33.9105  31.2135 i
 115.15  36.0263  31.2113 i
 115.2  31.5809  31.2092 i
 115.25  23.1328  31.2069 i
 115.3  36.9292  31.2047 i
 115.35  30.6335  31.2025 i
 115.4  30.7733  31.2002 i
 115.45  31.4679  31.1979 i
 115.5  43.9295  31.1956 i
 115.55  44.0997  31.1933 i
 115.6  48.6959  31.1909 i
 115.65  50.9215  31.1885 i
 115.7  68.4009  31.1862 i
 115.75  80.0457  31.1837 i
 115.8  87.4154  31.1813 i
 115.85  108.34  31.1789 i
 115.9  114.964  31.1764 i
 115.95  111.781  31.1739 i
 116  110.061  31.1714 i
 116.05  74.3215  31.1689 i
 116.1  83.3512  31.1664 i
 116.15  52.3882  31.1638 i
 116.2  53.7732  31.1613 i
 116.25  59.2505  31.1587 i
 116.3  48.9904  31.1561 i
 116.35  37.7604  31.1534 i
 116.4  44.7448  31.1508 i
 116.45  44.5544  31.1481 i
 116.5  41.3989  31.1455 i
 116.55  38.7895  31.1428 i
 116.6  39.4379  31.1401 i
 116.65  41.0524  31.1373 i
 116.7  35.6447  31.1346 i
 116.75  34.0139  31.1318 i
 116.8  34.625  31.129 i
 116.85  28.1266  31.1263 i
 116.9  36.8206  31.1234 i
 116.95  38.2873  31.1206 i
 117  32.3403  31.1178 i
 117.05  32.6283  31.1149 i
 117.1  25.1036  31.112 i
 117.15  36.743  31.1091 i
 117.2  37.042  31.1062 i
 117.25  40.1036  31.1033 i
 117.3  35.856  31.1004 i
 117.35  23.5379  31.0974 i
 117.4  26.6804  31.0945 i
 117.45  37.9505  31.0915 i
 117.5  30.7395  31.0885 i
 117.55  35.0938  31.0855 i
 117.6  27.8784  31.0824 i
 117.65  21.865  31.0794 i
 117.7  27.1333  31.0763 i
 117.75  29.7791  31.0733 i
 117.8  26.9631  31.0702 i
 117.85  37.1777  31.0671 i
 117.9  33.9041  31.064 i
 117.95  24.077  31.0608 i
 118  34.3687  31.0577 i
 118.05  33.6657  31.0545 i
 118.1  29.6958  31.0514 i
 118.15  36.0538  31.0482 i
 118.2  31.4648  31.045 i
 118.25  24.6331  31.0418 i
 118.3  32.9109  31.0386 i
 118.35  35.8107  31.0353 i
 118.4  36.4233  31.0321 i
 118.45  33.5419  31.0288 i
 118.5  22.7065  31.0255 i
 118.55  27.8921  31.0222 i
 118.6  24.1224  31.0189 i
 118.65  24.8033  31.0156 i
 118.7  38.614  31.0123 i
 118.75  30.7473  31.009 i
 118.8  21.9899  31.0056 i
 118.85  35.4974  31.0023 i
 118.9  42.3674  30.9989 i
 118.95  33.0889  30.9955 i
 119  31.9512  30.9921 i
 119.05  28.3764  30.9887 i
 119.1  26.8362  30.9853 i
 119.15  30.4222  30.9819 i
 119.2  30.5164  30.9784 i
 119.25  26.7586  30.975 i
 119.3  23.0958  30.9715 i
 119.35  38.609  30.968 i
 119.4  24.915  30.9645 i
 119.45  29.4472  30.961 i
 119.5  36.0986  30.9575 i
 119.55  24.9215  30.954 i
 119.6  28.9165  30.9505 i
 119.65  34.2062  30.9469 i
 119.7  29.0564  30.9434 i
 119.75  36.7448  30.9398 i
 119.8  28.1931  30.9363 i
 119.85  37.5816  30.9327 i
 119.9  43.7739  30.9291 i
 119.95  33.177  30.9255 i
 120  26.3266  30.9219 i
 120.05  29.3829  30.9183 i
 120.1  36.9532  30.9147 i
 120.15  31.245  30.911 i
 120.2  26.8142  30.9074 i
 120.25  28.3821  30.9037 i
 120.3  44.2413  30.9001 i
 120.35  33.5009  30.8964 i
 120.4  33.0259  30.8927 i
 120.45  33.8414  30.889 i
 120.5  37.6885  30.8853 i
 120.55  38.5202  30.8816 i
 120.6  35.9567  30.8779 i
 120.65  33.2007  30.8742 i
 120.7  27.9921  30.8705 i
 120.75  35.2931  30.8668 i
 120.8  27.6556  30.863 i
 120.85  25.4616  30.8593 i
 120.9  33.5348  30.8555 i
 120.95  31.4086  30.8517 i
 121  31.5002  30.848 i
 121.05  30.4466  30.8442 i
 121.1  37.9321  30.8404 i
 121.15  39.2278  30.8366 i
 121.2  35.0821  30.8328 i
 121.25  29.4356  30.829 i
 121.3  23.0441  30.8252 i
 121.35  28.7597  30.8214 i
 121.4  19.8492  30.8176 i
 121.45  31.5735  30.8137 i
 121.5  35.0162  30.8099 i
 121.55  29.2013  30.806 i
 121.6  25.2284  30.8022 i
 121.65  23.2508  30.7983 i
 121.7  29.7184  30.7945 i
 121.75  27.2303  30.7906 i
 121.8  36.957  30.7868 i
 121.85  35.3207  30.7829 i
 121.9  32.9284  30.779 i
 121.95  35.8497  30.7751 i
 122  31.416  30.7712 i
 122.05  22.422  30.7673 i
 122.1  37.4013  30.7634 i
 122.15  25.6905  30.7595 i
 122.2  32.779  30.7556 i
 122.25  31.8354  30.7517 i
 122.3  27.2452  30.7478 i
 122.35  22.6426  30.7438 i
 122.4  26.5401  30.7399 i
 122.45  28.055  30.736 i
 122.5  27.5229  30.7321 i
 122.55  24.7023  30.7281 i
 122.6  31.534  30.7242 i
 122.65  33.6627  30.7202 i
 122.7  31.3315  30.7163 i
 122.75  41.8037  30.7123 i
 122.8  25.4925  30.7084 i
 122.85  26.1792  30.7044 i
 122.9  28.6337  30.7005 i
 122.95  39.8707  30.6965 i
 123  30.3803  30.6925 i
 123.05  34.1255  30.6886 i
 123.1  33.1897  30.6846 i
 123.15  21.7719  30.6806 i
 123.2  29.6942  30.6766 i
 123.25  37.4173  30.6727 i
 123.3  31.9857  30.6687 i
 123.35  24.7408  30.6647 i
 123.4  36.3778  30.6607 i
 123.45  30.9067  30.6567 i
 123.5  26.6463  30.6527 i
 123.55  22.6434  30.6487 i
 123.6  33.639  30.6448 i
 123.65  34.1829  30.6408 i
 123.7  25.0275  30.6368 i
 123.75  29.2178  30.6328 i
 123.8  22.8117  30.6288 i
 123.85  38.6781  30.6248 i
 123.9  36.4845  30.6208 i
 123.95  24.0304  30.6168 i
 124  27.3428  30.6128 i
 124.05  35.7968  30.6088 i
 124.1  44.5659  30.6048 i
 124.15  30.2862  30.6008 i
 124.2  33.8518  30.5968 i
 124.25  17.3167  30.5928 i
 124.3  30.8406  30.5888 i
 124.35  24.9621  30.5848 i
 124.4  25.1455  30.5808 i
 124.45  20.6193  30.5768 i
 124.5  35.227  30.5728 i
 124.55  29.8687  30.5688 i
 124.6  29.3794  30.5648 i
 124.65  29.4785  30.5608 i
 124.7  32.1964  30.5568 i
 124.75  30.1785  30.5529 i
 124.8  23.7131  30.5489 i
 124.85  29.0264  30.5449 i
 124.9  32.826  30.5409 i
 124.95  30.9612  30.5369 i
 125  31.8072  30.5329 i
 125.05  28.5798  30.5289 i
 125.1  30.0773  30.525 i
 125.15  30.2488  30.521 i
 125.2  34.0662  30.517 i
 125.25  21.699  30.513 i
 125.3  28.5267  30.5091 i
 125.35  30.4546  30.5051 i
 125.4  32.5739  30.5011 i
 125.45  32.9924  30.4972 i
 125.5  41.6797  30.4932 i
 125.55  23.6287  30.4893 i
 125.6  25.6995  30.4853 i
 125.65  20.2524  30.4813 i
 125.7  29.4351  30.4774 i
 125.75  28.1907  30.4735 i
 125.8  30.4944  30.4695 i
 125.85  27.5518  30.4656 i
 125.9  22.1127  30.4617 i
 125.95  20.333  30.4577 i
 126  37.6771  30.4538 i
 126.05  32.8972  30.4499 i
 126.1  25.606  30.446 i
 126.15  21.7135  30.4421 i
 126.2  30.1835  30.4381 i
 126.25  34.1182  30.4342 i
 126.3  36.8337  30.4303 i
 126.35  34.4554  30.4264 i
 126.4  21.7164  30.4226 i
 126.45  33.1319  30.4187 i
 126.5  27.8678  30.4148 i
 126.55  29.9054  30.4109 i
 126.6  29.9069  30.4071 i
 126.65  33.4483  30.4032 i
 126.7  30.8655  30.3993 i
 126.75  40.6392  30.3955 i
 126.8  22.3186  30.3916 i
 126.85  25.554  30.3878 i
 126.9  26.3833  30.384 i
 126.95  21.2039  30.3801 i
 127  24.351  30.3763 i
 127.05  27.2139  30.3725 i
 127.1  24.0591  30.3687 i
 127.15  30.0862  30.3649 i
 127.2  24.6364  30.3611 i
 127.25  30.4829  30.3573 i
 127.3  30.0822  30.3535 i
 127.35  23.4667  30.3498 i
 127.4  36.4908  30.346 i
 127.45  23.8501  30.3422 i
 127.5  40.2129  30.3385 i
 127.55  39.6479  30.3347 i
 127.6  21.3204  30.331 i
 127.65  34.0361  30.3273 i
 127.7  23.4746  30.3236 i
 127.75  34.9262  30.3198 i
 127.8  19.9038  30.3161 i
 127.85  16.033  30.3124 i
 127.9  24.8987  30.3087 i
 127.95  30.3202  30.3051 i
 128  38.8016  30.3014 i
 128.05  47.3451  30.2977 i
 128.1  43.3068  30.2941 i
 128.15  37.2383  30.2904 i
 128.2  32.7545  30.2868 i
 128.25  33.9538  30.2832 i
 128.3  36.1826  30.2795 i
 128.35  39.1068  30.2759 i
 128.4  33.7037  30.2723 i
 128.45  24.7895  30.2687 i
 128.5  39.4812  30.2652 i
 128.55  34.7766  30.2616 i
 128.6  41.8434  30.258 i
 128.65  35.1221  30.2545 i
 128.7  24.2698  30.2509 i
 128.75  32.0283  30.2474 i
 128.8  27.5839  30.2439 i
 128.85  36.7251  30.2404 i
 128.9  37.6768  30.2369 i
 128.95  38.5532  30.2334 i
 129  31.3017  30.2299 i
 129.05  33.9382  30.2264 i
 129.1  29.6785  30.223 i
 129.15  39.6996  30.2195 i
 129.2  38.8396  30.2161 i
 129.25  38.4933  30.2127 i
 129.3  28.42  30.2093 i
 129.35  24.1934  30.2059 i
 129.4  33.826  30.2025 i
 129.45  37.5665  30.1991 i
 129.5  27.4172  30.1957 i
 129.55  19.4975  30.1924 i
 129.6  32.6358  30.189 i
 129.65  30.1455  30.1857 i
 129.7  41.2981  30.1824 i
 129.75  31.8841  30.1791 i
 129.8  24.8126  30.1758 i
 129.85  21.3387  30.1725 i
 129.9  32.0718  30.1692 i
 129.95  26.5806  30.166 i
 130  9.3164  30.1627 i

