
#Surface 0 of 1 surfaces

#IsoCurve 0, 1801 points
#x y z type
 40  50.9356  0 i
 40.05  39.5222  0 i
 40.1  33.7484  0 i
 40.15  43.5738  0 i
 40.2  40.8431  0 i
 40.25  39.995  0 i
 40.3  41.5446  0 i
 40.35  42.5775  0 i
 40.4  34.6092  0 i
 40.45  42.6772  0 i
 40.5  39.5808  0 i
 40.55  41.0786  0 i
 40.6  43.3082  0 i
 40.65  33.7938  0 i
 40.7  31.8268  0 i
 40.75  30.6344  0 i
 40.8  36.0504  0 i
 40.85  33.0255  0 i
 40.9  33.2301  0 i
 40.95  43.1249  0 i
 41  45.9716  0 i
 41.05  43.7289  0 i
 41.1  42.2274  0 i
 41.15  38.9199  0 i
 41.2  32.3443  0 i
 41.25  38.2665  0 i
 41.3  46.387  0 i
 41.35  32.2934  0 i
 41.4  38.3952  0 i
 41.45  38.9968  0 i
 41.5  40.7926  0 i
 41.55  36.4399  0 i
 41.6  36.267  0 i
 41.65  31.5862  0 i
 41.7  34.991  0 i
 41.75  46.1418  0 i
 41.8  38.0193  0 i
 41.85  29.2718  0 i
 41.9  34.735  0 i
 41.95  29.7976  0 i
 42  21.8026  0 i
 42.05  28.1345  0 i
 42.1  41.1551  0 i
 42.15  31.6848  0 i
 42.2  20.0197  0 i
 42.25  37.4144  0 i
 42.3  37.8992  0 i
 42.35  37.4231  0 i
 42.4  43.298  0 i
 42.45  35.6569  0 i
 42.5  28.9064  0 i
 42.55  41.2304  0 i
 42.6  36.4365  0 i
 42.65  34.328  0 i
 42.7  29.1717  0 i
 42.75  31.3533  0 i
 42.8  50.4467  0 i
 42.85  45.7215  0 i
 42.9  43.4014  0 i
 42.95  36.992  0 i
 43  34.194  0 i
 43.05  33.9364  0 i
 43.1  38.0418  0 i
 43.15  38.1675  0 i
 43.2  39.6639  0 i
 43.25  36.2478  0 i
 43.3  36.4908  0 i
 43.35  42.4909  0 i
 43.4  43.5326  0 i
 43.45  39.0915  0 i
 43.5  47.1077  0 i
 43.55  44.2583  0 i
 43.6  41.0295  0 i
 43.65  45.1257  0 i
 43.7  42.0135  0 i
 43.75  40.4897  0 i
 43.8  40.7682  0 i
 43.85  43.0945  0 i
 43.9  56.2838  0 i
 43.95  40.4548  0 i
 44  57.8221  0 i
 44.05  62.2837  0 i
 44.1  85.4976  0 i
 44.15  101.5  0 i
 44.2  163.585  0 i
 44.25  378.059  0 i
 44.3  1200.22  0 i
 44.35  2137.27  0 i
 44.4  2084.42  0 i
 44.45  1432.03  0 i
 44.5  451.744  0 i
 44.55  180.469  0 i
 44.6  84.3203  0 i
 44.65  65.9747  0 i
 44.7  61.0946  0 i
 44.75  48.0908  0 i
 44.8  51.1395  0 i
 44.85  42.0532  0 i
 44.9  42.8902  0 i
 44.95  42.5  0 i
 45  44.9388  0 i
 45.05  40.4211  0 i
 45.1  37.936  0 i
 45.15  31.1631  0 i
 45.2  42.834  0 i
 45.25  27.09  0 i
 45.3  43.8242  0 i
 45.35  45.8407  0 i
 45.4  36.6288  0 i
 45.45  46.579  0 i
 45.5  37.9197  0 i
 45.55  44.4455  0 i
 45.6  31.2415  0 i
 45.65  33.0218  0 i
 45.7  36.2327  0 i
 45.75  31.4729  0 i
 45.8  25.1858  0 i
 45.85  35.4593  0 i
 45.9  32.2347  0 i
 45.95  28.0252  0 i
 46  25.1439  0 i
 46.05  42.0494  0 i
 46.1  31.809  0 i
 46.15  43.1139  0 i
 46.2  38.3707  0 i
 46.25  37.3599  0 i
 46.3  50.2744  0 i
 46.35  26.9277  0 i
 46.4  33.0119  0 i
 46.45  41.8952  0 i
 46.5  33.7675  0 i
 46.55  42.3077  0 i
 46.6  34.4743  0 i
 46.65  36.8827  0 i
 46.7  42.5846  0 i
 46.75  34.3855  0 i
 46.8  38.294  0 i
 46.85  35.5651  0 i
 46.9  33.7808  0 i
 46.95  43.1371  0 i
 47  33.7037  0 i
 47.05  37.8134  0 i
 47.1  34.0987  0 i
 47.15  38.6264  0 i
 47.2  39.7034  0 i
 47.25  34.5154  0 i
 47.3  47.931  0 i
 47.35  35.7378  0 i
 47.4  40.2357  0 i
 47.45  26.9129  0 i
 47.5  35.4933  0 i
 47.55  39.0563  0 i
 47.6  32.4427  0 i
 47.65  45.3211  0 i
 47.7  31.7496  0 i
 47.75  36.7516  0 i
 47.8  34.2534  0 i
 47.85  32.8584  0 i
 47.9  37.3772  0 i
 47.95  29.2691  0 i
 48  38.9962  0 i
 48.05  39.9369  0 i
 48.1  36.8821  0 i
 48.15  38.5393  0 i
 48.2  42.7613  0 i
 48.25  30.7573  0 i
 48.3  35.0602  0 i
 48.35  33.799  0 i
 48.4  31.3787  0 i
 48.45  29.8062  0 i
 48.5  35.9543  0 i
 48.55  30.3773  0 i
 48.6  35.3931  0 i
 48.65  30.4082  0 i
 48.7  32.3725  0 i
 48.75  26.4477  0 i
 48.8  26.9503  0 i
 48.85  24.3012  0 i
 48.9  33.9372  0 i
 48.95  34.8373  0 i
 49  31.2826  0 i
 49.05  35.5058  0 i
 49.1  31.12  0 i
 49.15  35.6913  0 i
 49.2  29.3027  0 i
 49.25  28.3981  0 i
 49.3  25.0442  0 i
 49.35  35.4684  0 i
 49.4  35.3563  0 i
 49.45  33.0377  0 i
 49.5  31.8068  0 i
 49.55  32.0996  0 i
 49.6  24.0452  0 i
 49.65  35.855  0 i
 49.7  37.4795  0 i
 49.75  40.8451  0 i
 49.8  39.2289  0 i
 49.85  25.0575  0 i
 49.9  43.3595  0 i
 49.95  39.0373  0 i
 50  37.9769  0 i
 50.05  43.4921  0 i
 50.1  31.799  0 i
 50.15  31.5482  0 i
 50.2  28.2066  0 i
 50.25  32.4019  0 i
 50.3  25.4904  0 i
 50.35  31.2777  0 i
 50.4  39.6394  0 i
 50.45  34.3314  0 i
 50.5  31.1654  0 i
 50.55  33.4748  0 i
 50.6  20.9375  0 i
 50.65  34.1893  0 i
 50.7  35.7658  0 i
 50.75  34.2404  0 i
 50.8  19.3156  0 i
 50.85  40.098  0 i
 50.9  39.9812  0 i
 50.95  33.1682  0 i
 51  41.9292  0 i
 51.05  30.1187  0 i
 51.1  42.1705  0 i
 51.15  32.1408  0 i
 51.2  36.9905  0 i
 51.25  42.3937  0 i
 51.3  35.781  0 i
 51.35  28.2812  0 i
 51.4  34.2193  0 i
 51.45  41.2838  0 i
 51.5  28.0655  0 i
 51.55  40.0498  0 i
 51.6  38.9556  0 i
 51.65  36.3573  0 i
 51.7  30.9239  0 i
 51.75  22.9345  0 i
 51.8  40.1015  0 i
 51.85  36.7824  0 i
 51.9  26.6054  0 i
 51.95  42.2174  0 i
 52  35.9208  0 i
 52.05  22.1967  0 i
 52.1  37.0891  0 i
 52.15  24.439  0 i
 52.2  32.1237  0 i
 52.25  38.2421  0 i
 52.3  33.1047  0 i
 52.35  40.0426  0 i
 52.4  25.0494  0 i
 52.45  36.5992  0 i
 52.5  28.2492  0 i
 52.55  36.8013  0 i
 52.6  28.4712  0 i
 52.65  39.5762  0 i
 52.7  33.8587  0 i
 52.75  28.8091  0 i
 52.8  41.714  0 i
 52.85  44.2668  0 i
 52.9  32.9794  0 i
 52.95  37.5971  0 i
 53  30.0739  0 i
 53.05  27.1933  0 i
 53.1  30.7919  0 i
 53.15  41.4752  0 i
 53.2  27.5155  0 i
 53.25  21.1259  0 i
 53.3  27.2822  0 i
 53.35  31.0979  0 i
 53.4  32.6945  0 i
 53.45  33.2156  0 i
 53.5  22.7821  0 i
 53.55  44.8206  0 i
 53.6  33.7495  0 i
 53.65  23.1482  0 i
 53.7  26.872  0 i
 53.75  31.3692  0 i
 53.8  40.8326  0 i
 53.85  29.6635  0 i
 53.9  31.3655  0 i
 53.95  32.7749  0 i
 54  29.6892  0 i
 54.05  37.116  0 i
 54.1  23.3529  0 i
 54.15  38.2085  0 i
 54.2  34.8188  0 i
 54.25  25.0042  0 i
 54.3  33.2233  0 i
 54.35  21.1445  0 i
 54.4  34.4006  0 i
 54.45  39.7575  0 i
 54.5  28.3528  0 i
 54.55  18.6999  0 i
 54.6  38.7877  0 i
 54.65  33.1358  0 i
 54.7  30.4837  0 i
 54.75  29.6267  0 i
 54.8  53.9054  0 i
 54.85  43.1645  0 i
 54.9  37.4686  0 i
 54.95  32.1344  0 i
 55  30.8344  0 i
 55.05  38.6458  0 i
 55.1  29.634  0 i
 55.15  45.8298  0 i
 55.2  29.8256  0 i
 55.25  41.3581  0 i
 55.3  32.9573  0 i
 55.35  36.8349  0 i
 55.4  32.6688  0 i
 55.45  35.135  0 i
 55.5  30.976  0 i
 55.55  46.0812  0 i
 55.6  30.0751  0 i
 55.65  37.0817  0 i
 55.7  23.2511  0 i
 55.75  32.1214  0 i
 55.8  35.375  0 i
 55.85  26.3629  0 i
 55.9  29.4932  0 i
 55.95  31.2355  0 i
 56  34.4942  0 i
 56.05  25.6651  0 i
 56.1  21.1381  0 i
 56.15  28.2225  0 i
 56.2  31.1394  0 i
 56.25  26.82  0 i
 56.3  29.8372  0 i
 56.35  24.7881  0 i
 56.4  33.9741  0 i
 56.45  33.6207  0 i
 56.5  36.7681  0 i
 56.55  37.3887  0 i
 56.6  37.956  0 i
 56.65  26.9033  0 i
 56.7  36.4554  0 i
 56.75  29.4872  0 i
 56.8  31.9572  0 i
 56.85  34.0673  0 i
 56.9  28.3878  0 i
 56.95  30.7043  0 i
 57  31.584  0 i
 57.05  30.6917  0 i
 57.1  39.5901  0 i
 57.15  33.7894  0 i
 57.2  35.5981  0 i
 57.25  28.0599  0 i
 57.3  28.7338  0 i
 57.35  26.527  0 i
 57.4  29.3217  0 i
 57.45  36.856  0 i
 57.5  32.539  0 i
 57.55  30.7117  0 i
 57.6  26.3878  0 i
 57.65  31.1328  0 i
 57.7  35.818  0 i
 57.75  36.5329  0 i
 57.8  36.4137  0 i
 57.85  43.0494  0 i
 57.9  25.2836  0 i
 57.95  28.9569  0 i
 58  34.963  0 i
 58.05  26.8357  0 i
 58.1  26.4052  0 i
 58.15  33.3595  0 i
 58.2  29.1381  0 i
 58.25  23.1663  0 i
 58.3  38.9837  0 i
 58.35  33.2459  0 i
 58.4  33.8823  0 i
 58.45  28.9435  0 i
 58.5  25.9701  0 i
 58.55  29.7985  0 i
 58.6  30.9936  0 i
 58.65  23.5424  0 i
 58.7  25.558  0 i
 58.75  33.7057  0 i
 58.8  35.4687  0 i
 58.85  37.3662  0 i
 58.9  24.6902  0 i
 58.95  36.3878  0 i
 59  22.9212  0 i
 59.05  26.2485  0 i
 59.1  27.0757  0 i
 59.15  40.1654  0 i
 59.2  36.745  0 i
 59.25  23.6502  0 i
 59.3  30.162  0 i
 59.35  23.7288  0 i
 59.4  25.8005  0 i
 59.45  39.4096  0 i
 59.5  33.384  0 i
 59.55  33.6553  0 i
 59.6  31.035  0 i
 59.65  36.6175  0 i
 59.7  20.3557  0 i
 59.75  24.4649  0 i
 59.8  30.0817  0 i
 59.85  34.5278  0 i
 59.9  36.3516  0 i
 59.95  32.489  0 i
 60  35.9221  0 i
 60.05  29.1406  0 i
 60.1  23.3775  0 i
 60.15  28.2964  0 i
 60.2  44.063  0 i
 60.25  31.5663  0 i
 60.3  30.2569  0 i
 60.35  21.1446  0 i
 60.4  31.6966  0 i
 60.45  29.6281  0 i
 60.5  31.3874  0 i
 60.55  27.72  0 i
 60.6  33.9832  0 i
 60.65  25.3607  0 i
 60.7  29.0095  0 i
 60.75  34.2648  0 i
 60.8  28.4201  0 i
 60.85  25.661  0 i
 60.9  25.9915  0 i
 60.95  49.2777  0 i
 61  41.5223  0 i
 61.05  34.6463  0 i
 61.1  24.2049  0 i
 61.15  31.2234  0 i
 61.2  42.6454  0 i
 61.25  32.5289  0 i
 61.3  37.2495  0 i
 61.35  34.2769  0 i
 61.4  34.4268  0 i
 61.45  31.6804  0 i
 61.5  35.1568  0 i
 61.55  33.6684  0 i
 61.6  29.3883  0 i
 61.65  24.2116  0 i
 61.7  25.9467  0 i
 61.75  24.9321  0 i
 61.8  35.129  0 i
 61.85  32.9138  0 i
 61.9  41.8601  0 i
 61.95  26.5733  0 i
 62  30.7829  0 i
 62.05  30.0685  0 i
 62.1  31.9571  0 i
 62.15  30.2378  0 i
 62.2  32.9079  0 i
 62.25  40.566  0 i
 62.3  25.0511  0 i
 62.35  28.9037  0 i
 62.4  41.2277  0 i
 62.45  32.3375  0 i
 62.5  17.0702  0 i
 62.55  35.7033  0 i
 62.6  26.9699  0 i
 62.65  36.2402  0 i
 62.7  32.4024  0 i
 62.75  33.2288  0 i
 62.8  43.0681  0 i
 62.85  31.2217  0 i
 62.9  27.1882  0 i
 62.95  33.1349  0 i
 63  25.2544  0 i
 63.05  30.2044  0 i
 63.1  31.4996  0 i
 63.15  36.6349  0 i
 63.2  31.4633  0 i
 63.25  42.3265  0 i
 63.3  33.0877  0 i
 63.35  28.262  0 i
 63.4  35.3867  0 i
 63.45  30.1809  0 i
 63.5  27.8584  0 i
 63.55  27.8038  0 i
 63.6  34.1359  0 i
 63.65  36.3949  0 i
 63.7  35.0784  0 i
 63.75  28.6543  0 i
 63.8  33.4808  0 i
 63.85  35.8371  0 i
 63.9  39.1336  0 i
 63.95  24.439  0 i
 64  29.6568  0 i
 64.05  27.514  0 i
 64.1  32.1718  0 i
 64.15  36.1031  0 i
 64.2  39.4241  0 i
 64.25  37.4359  0 i
 64.3  30.7185  0 i
 64.35  33.9657  0 i
 64.4  36.8985  0 i
 64.45  48.7269  0 i
 64.5  66.2035  0 i
 64.55  68.3827  0 i
 64.6  94.0906  0 i
 64.65  131.294  0 i
 64.7  151.889  0 i
 64.75  146.823  0 i
 64.8  87.8711  0 i
 64.85  87.3451  0 i
 64.9  49.5502  0 i
 64.95  42.7131  0 i
 65  42.0787  0 i
 65.05  41.8782  0 i
 65.1  36.0201  0 i
 65.15  29.8985  0 i
 65.2  29.1132  0 i
 65.25  33.4866  0 i
 65.3  35.238  0 i
 65.35  28.4352  0 i
 65.4  21.9956  0 i
 65.45  20.9737  0 i
 65.5  26.7257  0 i
 65.55  31.6831  0 i
 65.6  33.8961  0 i
 65.65  30.6335  0 i
 65.7  33.2532  0 i
 65.75  32.7148  0 i
 65.8  31.9106  0 i
 65.85  25.773  0 i
 65.9  31.1109  0 i
 65.95  30.5638  0 i
 66  41.9554  0 i
 66.05  31.8245  0 i
 66.1  40.1952  0 i
 66.15  28.7424  0 i
 66.2  32.6005  0 i
 66.25  37.2686  0 i
 66.3  35.2511  0 i
 66.35  34.0269  0 i
 66.4  37.7351  0 i
 66.45  31.4247  0 i
 66.5  23.546  0 i
 66.55  29.8152  0 i
 66.6  26.8758  0 i
 66.65  26.1062  0 i
 66.7  39.6785  0 i
 66.75  32.0723  0 i
 66.8  37.7342  0 i
 66.85  41.8388  0 i
 66.9  24.5177  0 i
 66.95  36.7586  0 i
 67  30.9275  0 i
 67.05  35.4242  0 i
 67.1  29.9298  0 i
 67.15  32.6728  0 i
 67.2  25.6482  0 i
 67.25  34.1947  0 i
 67.3  29.2746  0 i
 67.35  38.3504  0 i
 67.4  28.0163  0 i
 67.45  27.642  0 i
 67.5  28.7248  0 i
 67.55  29.571  0 i
 67.6  22.7345  0 i
 67.65  37.2505  0 i
 67.7  38.3247  0 i
 67.75  24.3814  0 i
 67.8  31.1883  0 i
 67.85  27.9869  0 i
 67.9  31.9542  0 i
 67.95  37.8434  0 i
 68  33.9616  0 i
 68.05  25.0531  0 i
 68.1  33.2883  0 i
 68.15  31.6618  0 i
 68.2  27.3823  0 i
 68.25  30.0377  0 i
 68.3  33.1886  0 i
 68.35  32.9161  0 i
 68.4  38.768  0 i
 68.45  31.9083  0 i
 68.5  20.6211  0 i
 68.55  28.0991  0 i
 68.6  41.5197  0 i
 68.65  20.056  0 i
 68.7  27.1451  0 i
 68.75  24.1738  0 i
 68.8  31.8238  0 i
 68.85  34.6858  0 i
 68.9  33.5526  0 i
 68.95  24.1754  0 i
 69  34.3118  0 i
 69.05  33.1277  0 i
 69.1  34.0754  0 i
 69.15  33.4477  0 i
 69.2  22.2351  0 i
 69.25  27.0972  0 i
 69.3  23.0703  0 i
 69.35  28.8426  0 i
 69.4  32.7545  0 i
 69.45  31.9095  0 i
 69.5  29.1266  0 i
 69.55  39.8914  0 i
 69.6  36.2203  0 i
 69.65  40.3997  0 i
 69.7  25.2154  0 i
 69.75  31.2072  0 i
 69.8  32.6048  0 i
 69.85  27.1692  0 i
 69.9  37.3003  0 i
 69.95  30.8779  0 i
 70  32.7486  0 i
 70.05  30.1122  0 i
 70.1  27.987  0 i
 70.15  31.303  0 i
 70.2  37.9627  0 i
 70.25  27.685  0 i
 70.3  23.7356  0 i
 70.35  31.2004  0 i
 70.4  34.6825  0 i
 70.45  33.9508  0 i
 70.5  24.362  0 i
 70.55  23.5212  0 i
 70.6  32.8535  0 i
 70.65  30.784  0 i
 70.7  46.2617  0 i
 70.75  31.3148  0 i
 70.8  32.3014  0 i
 70.85  31.2103  0 i
 70.9  28.7272  0 i
 70.95  29.279  0 i
 71  27.5787  0 i
 71.05  33.1788  0 i
 71.1  24.1863  0 i
 71.15  34.0698  0 i
 71.2  34.7332  0 i
 71.25  25.5603  0 i
 71.3  23.4693  0 i
 71.35  33.9409  0 i
 71.4  34.8891  0 i
 71.45  24.8814  0 i
 71.5  37.2614  0 i
 71.55  27.859  0 i
 71.6  21.7905  0 i
 71.65  27.0768  0 i
 71.7  36.1935  0 i
 71.75  40.6803  0 i
 71.8  32.7409  0 i
 71.85  31.6564  0 i
 71.9  43.3901  0 i
 71.95  39.3856  0 i
 72  28.2618  0 i
 72.05  32.4128  0 i
 72.1  32.6352  0 i
 72.15  26.913  0 i
 72.2  30.7031  0 i
 72.25  28.3626  0 i
 72.3  26.6574  0 i
 72.35  29.2417  0 i
 72.4  24.6718  0 i
 72.45  31.8536  0 i
 72.5  34.645  0 i
 72.55  33.9735  0 i
 72.6  23.3181  0 i
 72.65  28.5851  0 i
 72.7  38.4036  0 i
 72.75  50.224  0 i
 72.8  35.0734  0 i
 72.85  22.6605  0 i
 72.9  34.1533  0 i
 72.95  30.5629  0 i
 73  28.9237  0 i
 73.05  27.0586  0 i
 73.1  39.9048  0 i
 73.15  27.8718  0 i
 73.2  40.4374  0 i
 73.25  41.6491  0 i
 73.3  27.9883  0 i
 73.35  32.4723  0 i
 73.4  28.396  0 i
 73.45  18.8292  0 i
 73.5  34.2871  0 i
 73.55  36.608  0 i
 73.6  30.2422  0 i
 73.65  27.0395  0 i
 73.7  30.3881  0 i
 73.75  31.04  0 i
 73.8  33.3802  0 i
 73.85  38.9816  0 i
 73.9  33.2182  0 i
 73.95  34.2167  0 i
 74  18.5273  0 i
 74.05  30.7263  0 i
 74.1  23.3902  0 i
 74.15  28.3616  0 i
 74.2  31.1345  0 i
 74.25  46.4665  0 i
 74.3  30.6122  0 i
 74.35  27.7451  0 i
 74.4  28.5679  0 i
 74.45  34.315  0 i
 74.5  28.301  0 i
 74.55  27.7949  0 i
 74.6  37.9528  0 i
 74.65  36.8016  0 i
 74.7  33.8489  0 i
 74.75  32.0652  0 i
 74.8  27.1654  0 i
 74.85  26.5279  0 i
 74.9  31.2568  0 i
 74.95  30.8954  0 i
 75  41.2187  0 i
 75.05  34.1135  0 i
 75.1  30.3797  0 i
 75.15  37.9081  0 i
 75.2  25.1473  0 i
 75.25  23.2678  0 i
 75.3  26.4448  0 i
 75.35  45.6279  0 i
 75.4  44.8077  0 i
 75.45  36.3593  0 i
 75.5  30.3299  0 i
 75.55  21.8562  0 i
 75.6  29.8953  0 i
 75.65  27.8476  0 i
 75.7  33.5758  0 i
 75.75  42.6948  0 i
 75.8  30.8995  0 i
 75.85  26.0188  0 i
 75.9  30.2793  0 i
 75.95  34.2476  0 i
 76  37.9842  0 i
 76.05  40.8676  0 i
 76.1  34.4817  0 i
 76.15  31.6244  0 i
 76.2  36.5419  0 i
 76.25  34.9835  0 i
 76.3  27.691  0 i
 76.35  32.2085  0 i
 76.4  27.6207  0 i
 76.45  34.684  0 i
 76.5  31.9848  0 i
 76.55  27.4257  0 i
 76.6  24.7625  0 i
 76.65  34.1717  0 i
 76.7  33.2828  0 i
 76.75  28.194  0 i
 76.8  24.0494  0 i
 76.85  38.7416  0 i
 76.9  31.1695  0 i
 76.95  31.0282  0 i
 77  32.2342  0 i
 77.05  27.5689  0 i
 77.1  35.1268  0 i
 77.15  32.1079  0 i
 77.2  39.3439  0 i
 77.25  27.0652  0 i
 77.3  29.4572  0 i
 77.35  30.8011  0 i
 77.4  29.0532  0 i
 77.45  30.6724  0 i
 77.5  33.5901  0 i
 77.55  24.9798  0 i
 77.6  33.8325  0 i
 77.65  25.847  0 i
 77.7  30.2999  0 i
 77.75  26.3283  0 i
 77.8  25.7821  0 i
 77.85  33.3968  0 i
 77.9  33.6489  0 i
 77.95  27.763  0 i
 78  37.0801  0 i
 78.05  35.2656  0 i
 78.1  30.8481  0 i
 78.15  31.8142  0 i
 78.2  32.417  0 i
 78.25  42.0233  0 i
 78.3  30.756  0 i
 78.35  40.928  0 i
 78.4  33.9353  0 i
 78.45  22.3819  0 i
 78.5  37.278  0 i
 78.55  28.4994  0 i
 78.6  31.4594  0 i
 78.65  31.4254  0 i
 78.7  23.9237  0 i
 78.75  23.9904  0 i
 78.8  28.9175  0 i
 78.85  32.1548  0 i
 78.9  27.3315  0 i
 78.95  34.0952  0 i
 79  37.8595  0 i
 79.05  33.2346  0 i
 79.1  35.6118  0 i
 79.15  35.7408  0 i
 79.2  32.6326  0 i
 79.25  28.3955  0 i
 79.3  37.1562  0 i
 79.35  35.8628  0 i
 79.4  36.3387  0 i
 79.45  31.7342  0 i
 79.5  36.5629  0 i
 79.55  28.2174  0 i
 79.6  35.6178  0 i
 79.65  31.7728  0 i
 79.7  23.1175  0 i
 79.75  30.8574  0 i
 79.8  36.2196  0 i
 79.85  37.7113  0 i
 79.9  26.95  0 i
 79.95  34.6753  0 i
 80  29.541  0 i
 80.05  25.4174  0 i
 80.1  36.4672  0 i
 80.15  27.244  0 i
 80.2  36.1623  0 i
 80.25  19.1549  0 i
 80.3  25.928  0 i
 80.35  29.7678  0 i
 80.4  38.9481  0 i
 80.45  23.1145  0 i
 80.5  20.5103  0 i
 80.55  40.0407  0 i
 80.6  30.2381  0 i
 80.65  49.3688  0 i
 80.7  25.6777  0 i
 80.75  38.3771  0 i
 80.8  34.8499  0 i
 80.85  26.7928  0 i
 80.9  37.3889  0 i
 80.95  31.7471  0 i
 81  36.082  0 i
 81.05  18.5954  0 i
 81.1  30.4164  0 i
 81.15  37.4814  0 i
 81.2  26.5132  0 i
 81.25  27.5229  0 i
 81.3  29.826  0 i
 81.35  35.7708  0 i
 81.4  46.3944  0 i
 81.45  29.3394  0 i
 81.5  26.1576  0 i
 81.55  34.5051  0 i
 81.6  50.3464  0 i
 81.65  46.5177  0 i
 81.7  44.1063  0 i
 81.75  56.6631  0 i
 81.8  79.8148  0 i
 81.85  131.49  0 i
 81.9  221.054  0 i
 81.95  310.083  0 i
 82  255.266  0 i
 82.05  221.063  0 i
 82.1  122.475  0 i
 82.15  81.7051  0 i
 82.2  61.9412  0 i
 82.25  43.5143  0 i
 82.3  44.7929  0 i
 82.35  33.7114  0 i
 82.4  30.8957  0 i
 82.45  29.0649  0 i
 82.5  29.9285  0 i
 82.55  45.4235  0 i
 82.6  32.5712  0 i
 82.65  19.6965  0 i
 82.7  37.0215  0 i
 82.75  27.5751  0 i
 82.8  35.6102  0 i
 82.85  30.9305  0 i
 82.9  27.4819  0 i
 82.95  32.5655  0 i
 83  34.139  0 i
 83.05  37.4531  0 i
 83.1  34.9748  0 i
 83.15  32.3244  0 i
 83.2  31.5492  0 i
 83.25  32.3851  0 i
 83.3  25.7667  0 i
 83.35  36.6936  0 i
 83.4  24.3075  0 i
 83.45  27.1141  0 i
 83.5  33.2558  0 i
 83.55  16.2924  0 i
 83.6  30.799  0 i
 83.65  28.8261  0 i
 83.7  38.9351  0 i
 83.75  31.4884  0 i
 83.8  25.0769  0 i
 83.85  34.6483  0 i
 83.9  24.8229  0 i
 83.95  31.3799  0 i
 84  26.5747  0 i
 84.05  33.1121  0 i
 84.1  29.4369  0 i
 84.15  25.919  0 i
 84.2  23.5956  0 i
 84.25  20.3685  0 i
 84.3  22.4635  0 i
 84.35  42.7407  0 i
 84.4  33.7164  0 i
 84.45  40.3982  0 i
 84.5  30.6839  0 i
 84.55  28.1408  0 i
 84.6  22.4444  0 i
 84.65  30.1321  0 i
 84.7  29.5108  0 i
 84.75  38.4198  0 i
 84.8  32.496  0 i
 84.85  25.1537  0 i
 84.9  23.137  0 i
 84.95  34.3376  0 i
 85  25.0077  0 i
 85.05  35.9024  0 i
 85.1  28.9599  0 i
 85.15  27.1188  0 i
 85.2  27.221  0 i
 85.25  23.4535  0 i
 85.3  36.3098  0 i
 85.35  28.3356  0 i
 85.4  25.9875  0 i
 85.45  37.806  0 i
 85.5  28.4772  0 i
 85.55  25.2021  0 i
 85.6  35.9573  0 i
 85.65  33.0387  0 i
 85.7  27.2001  0 i
 85.75  39.2427  0 i
 85.8  22.7765  0 i
 85.85  27.9865  0 i
 85.9  26.2444  0 i
 85.95  26.4549  0 i
 86  35.9011  0 i
 86.05  29.2096  0 i
 86.1  29.9845  0 i
 86.15  32.7848  0 i
 86.2  30.1622  0 i
 86.25  25.7186  0 i
 86.3  21.2495  0 i
 86.35  38.7533  0 i
 86.4  30.6176  0 i
 86.45  24.9823  0 i
 86.5  31.3293  0 i
 86.55  20.1407  0 i
 86.6  27.2517  0 i
 86.65  35.7716  0 i
 86.7  28.8515  0 i
 86.75  35.0558  0 i
 86.8  35.9016  0 i
 86.85  31.5203  0 i
 86.9  27.7743  0 i
 86.95  30.832  0 i
 87  26.044  0 i
 87.05  19.9426  0 i
 87.1  30.2721  0 i
 87.15  33.2564  0 i
 87.2  22.9108  0 i
 87.25  30.9396  0 i
 87.3  37.814  0 i
 87.35  35.6591  0 i
 87.4  20.9947  0 i
 87.45  21.9424  0 i
 87.5  31.6631  0 i
 87.55  17.2216  0 i
 87.6  37.0484  0 i
 87.65  39.4857  0 i
 87.7  33.8275  0 i
 87.75  31.9918  0 i
 87.8  36.6673  0 i
 87.85  34.0085  0 i
 87.9  24.005  0 i
 87.95  28.6043  0 i
 88  27.2013  0 i
 88.05  23.0065  0 i
 88.1  30.4324  0 i
 88.15  30.1478  0 i
 88.2  31.7028  0 i
 88.25  30.9458  0 i
 88.3  28.8007  0 i
 88.35  26.8108  0 i
 88.4  27.3246  0 i
 88.45  23.2228  0 i
 88.5  32.5585  0 i
 88.55  31.5507  0 i
 88.6  32.9889  0 i
 88.65  21.1031  0 i
 88.7  36.031  0 i
 88.75  27.92  0 i
 88.8  22.3814  0 i
 88.85  32.4372  0 i
 88.9  30.1938  0 i
 88.95  26.6673  0 i
 89  26.9106  0 i
 89.05  31.5956  0 i
 89.1  26.9276  0 i
 89.15  23.6865  0 i
 89.2  34.5161  0 i
 89.25  27.4408  0 i
 89.3  30.1104  0 i
 89.35  33.8  0 i
 89.4  37.1827  0 i
 89.45  35.6649  0 i
 89.5  29.759  0 i
 89.55  35.7174  0 i
 89.6  28.7553  0 i
 89.65  37.9853  0 i
 89.7  28.0343  0 i
 89.75  39.0407  0 i
 89.8  24.2576  0 i
 89.85  40.6936  0 i
 89.9  38.241  0 i
 89.95  38.8308  0 i
 90  29.1586  0 i
 90.05  34.565  0 i
 90.1  28.9858  0 i
 90.15  37.6121  0 i
 90.2  34.6125  0 i
 90.25  26.7024  0 i
 90.3  28.6345  0 i
 90.35  28.8134  0 i
 90.4  27.6588  0 i
 90.45  30.5438  0 i
 90.5  31.5567  0 i
 90.55  22.5297  0 i
 90.6  26.772  0 i
 90.65  36.7415  0 i
 90.7  29.3818  0 i
 90.75  30.3127  0 i
 90.8  29.8515  0 i
 90.85  33.0936  0 i
 90.9  30.7551  0 i
 90.95  26.143  0 i
 91  26.1332  0 i
 91.05  24.8781  0 i
 91.1  24.2474  0 i
 91.15  21.6263  0 i
 91.2  36.8811  0 i
 91.25  23.2376  0 i
 91.3  28.3468  0 i
 91.35  24.8664  0 i
 91.4  35.1717  0 i
 91.45  36.0215  0 i
 91.5  26.7557  0 i
 91.55  28.6312  0 i
 91.6  30.447  0 i
 91.65  28.5262  0 i
 91.7  32.3954  0 i
 91.75  29.2013  0 i
 91.8  29.1299  0 i
 91.85  31.4207  0 i
 91.9  33.1754  0 i
 91.95  35.9654  0 i
 92  33.0674  0 i
 92.05  25.7007  0 i
 92.1  38.8136  0 i
 92.15  33.7589  0 i
 92.2  37.4884  0 i
 92.25  36.8459  0 i
 92.3  28.7597  0 i
 92.35  30.1467  0 i
 92.4  38.8622  0 i
 92.45  28.2999  0 i
 92.5  30.0375  0 i
 92.55  26.3691  0 i
 92.6  37.8535  0 i
 92.65  28.143  0 i
 92.7  31.5376  0 i
 92.75  26.332  0 i
 92.8  26.0465  0 i
 92.85  25.174  0 i
 92.9  30.7374  0 i
 92.95  23.1567  0 i
 93  17.6644  0 i
 93.05  21.2554  0 i
 93.1  29.8269  0 i
 93.15  26.8671  0 i
 93.2  27.3278  0 i
 93.25  36.6923  0 i
 93.3  34.7076  0 i
 93.35  27.9217  0 i
 93.4  29.9678  0 i
 93.45  23.5741  0 i
 93.5  36.6359  0 i
 93.55  26.0465  0 i
 93.6  30.1724  0 i
 93.65  28.2541  0 i
 93.7  28.5781  0 i
 93.75  24.4553  0 i
 93.8  31.0314  0 i
 93.85  42.1737  0 i
 93.9  23.0051  0 i
 93.95  29.0472  0 i
 94  25.3655  0 i
 94.05  29.3285  0 i
 94.1  26.8098  0 i
 94.15  32.3446  0 i
 94.2  33.3098  0 i
 94.25  25.9572  0 i
 94.3  30.8598  0 i
 94.35  24.9628  0 i
 94.4  33.7319  0 i
 94.45  27.2931  0 i
 94.5  26.9943  0 i
 94.55  44.23  0 i
 94.6  25.5349  0 i
 94.65  23.2176  0 i
 94.7  25.8229  0 i
 94.75  31.4882  0 i
 94.8  26.0633  0 i
 94.85  28.7292  0 i
 94.9  31.8774  0 i
 94.95  34.3611  0 i
 95  26.236  0 i
 95.05  28.347  0 i
 95.1  38.6055  0 i
 95.15  24.936  0 i
 95.2  31.371  0 i
 95.25  33.2018  0 i
 95.3  28.3039  0 i
 95.35  35.1319  0 i
 95.4  29.3675  0 i
 95.45  34.5646  0 i
 95.5  34.0903  0 i
 95.55  31.0517  0 i
 95.6  24.2469  0 i
 95.65  38.1992  0 i
 95.7  31.4595  0 i
 95.75  36.4673  0 i
 95.8  24.4644  0 i
 95.85  18.6621  0 i
 95.9  34.0826  0 i
 95.95  34.6744  0 i
 96  24.4358  0 i
 96.05  33.2158  0 i
 96.1  23.9111  0 i
 96.15  25.1102  0 i
 96.2  20.5252  0 i
 96.25  26.7999  0 i
 96.3  37.039  0 i
 96.35  25.6341  0 i
 96.4  22.26  0 i
 96.45  29.6223  0 i
 96.5  32.2977  0 i
 96.55  30.3435  0 i
 96.6  40.7516  0 i
 96.65  41.4437  0 i
 96.7  32.5396  0 i
 96.75  38.1167  0 i
 96.8  30.1782  0 i
 96.85  32.28  0 i
 96.9  39.5038  0 i
 96.95  31.9514  0 i
 97  37.1741  0 i
 97.05  31.2335  0 i
 97.1  32.976  0 i
 97.15  25.8214  0 i
 97.2  27.8998  0 i
 97.25  29.3423  0 i
 97.3  36.2371  0 i
 97.35  31.3338  0 i
 97.4  26.5807  0 i
 97.45  31.0708  0 i
 97.5  32.5829  0 i
 97.55  30.8944  0 i
 97.6  31.6593  0 i
 97.65  30.4614  0 i
 97.7  32.2741  0 i
 97.75  32.395  0 i
 97.8  26.3563  0 i
 97.85  31.7281  0 i
 97.9  27.669  0 i
 97.95  32.8093  0 i
 98  29.3902  0 i
 98.05  40.9557  0 i
 98.1  34.0194  0 i
 98.15  30.7108  0 i
 98.2  29.0278  0 i
 98.25  42.3133  0 i
 98.3  49.2349  0 i
 98.35  65.6647  0 i
 98.4  77.2636  0 i
 98.45  107.625  0 i
 98.5  158.086  0 i
 98.55  164.085  0 i
 98.6  121.742  0 i
 98.65  93.9584  0 i
 98.7  66.7557  0 i
 98.75  54.6896  0 i
 98.8  46.7055  0 i
 98.85  46.4848  0 i
 98.9  38.6701  0 i
 98.95  40.3194  0 i
 99  39.3977  0 i
 99.05  39.3143  0 i
 99.1  41.2685  0 i
 99.15  26.2152  0 i
 99.2  29.2371  0 i
 99.25  32.3366  0 i
 99.3  30.7442  0 i
 99.35  36.226  0 i
 99.4  27.7866  0 i
 99.45  25.6293  0 i
 99.5  34.1215  0 i
 99.55  33.1587  0 i
 99.6  28.1522  0 i
 99.65  28.8748  0 i
 99.7  32.2921  0 i
 99.75  31.0141  0 i
 99.8  30.1411  0 i
 99.85  25.8175  0 i
 99.9  14.7164  0 i
 99.95  25.5423  0 i
 100  25.6895  0 i
 100.05  26.4604  0 i
 100.1  28.2009  0 i
 100.15  40.6651  0 i
 100.2  28.208  0 i
 100.25  31.3973  0 i
 100.3  31.5272  0 i
 100.35  18.0209  0 i
 100.4  22.7795  0 i
 100.45  38.5646  0 i
 100.5  28.8079  0 i
 100.55  37.3617  0 i
 100.6  43.888  0 i
 100.65  32.0846  0 i
 100.7  22.3617  0 i
 100.75  25.7262  0 i
 100.8  34.7152  0 i
 100.85  24.8457  0 i
 100.9  24.9265  0 i
 100.95  31.967  0 i
 101  29.8097  0 i
 101.05  21.4698  0 i
 101.1  29.7765  0 i
 101.15  30.2998  0 i
 101.2  24.8191  0 i
 101.25  29.8173  0 i
 101.3  36.662  0 i
 101.35  40.8045  0 i
 101.4  30.3958  0 i
 101.45  31.5958  0 i
 101.5  28.9453  0 i
 101.55  29.6314  0 i
 101.6  34.6348  0 i
 101.65  33.2215  0 i
 101.7  22.3913  0 i
 101.75  30.5829  0 i
 101.8  33.2032  0 i
 101.85  27.3414  0 i
 101.9  33.5473  0 i
 101.95  28.7832  0 i
 102  37.4577  0 i
 102.05  24.3556  0 i
 102.1  38.0925  0 i
 102.15  31.3689  0 i
 102.2  28.7415  0 i
 102.25  30.0231  0 i
 102.3  27.9953  0 i
 102.35  32.2376  0 i
 102.4  37.3748  0 i
 102.45  32.8213  0 i
 102.5  31.8806  0 i
 102.55  23.4348  0 i
 102.6  36.3112  0 i
 102.65  31.5849  0 i
 102.7  36.4369  0 i
 102.75  23.3518  0 i
 102.8  36.1508  0 i
 102.85  32.5992  0 i
 102.9  30.3152  0 i
 102.95  23.7787  0 i
 103  30.2863  0 i
 103.05  23.8168  0 i
 103.1  26.7309  0 i
 103.15  29.2947  0 i
 103.2  21.6642  0 i
 103.25  34.3208  0 i
 103.3  32.5145  0 i
 103.35  31.27  0 i
 103.4  27.5009  0 i
 103.45  33.4463  0 i
 103.5  28.8411  0 i
 103.55  37.3704  0 i
 103.6  37.3112  0 i
 103.65  19.6636  0 i
 103.7  31.3511  0 i
 103.75  29.7747  0 i
 103.8  40.1446  0 i
 103.85  33.5878  0 i
 103.9  30.6302  0 i
 103.95  25.0871  0 i
 104  29.1095  0 i
 104.05  32.5763  0 i
 104.1  28.4754  0 i
 104.15  32.314  0 i
 104.2  24.0603  0 i
 104.25  24.5976  0 i
 104.3  24.0466  0 i
 104.35  30.4942  0 i
 104.4  33.1113  0 i
 104.45  31.1413  0 i
 104.5  29.4827  0 i
 104.55  27.841  0 i
 104.6  27.5554  0 i
 104.65  33.4087  0 i
 104.7  28.0592  0 i
 104.75  39.7135  0 i
 104.8  30.157  0 i
 104.85  28.3307  0 i
 104.9  31.9626  0 i
 104.95  32.2332  0 i
 105  36.179  0 i
 105.05  33.8403  0 i
 105.1  20.5028  0 i
 105.15  23.659  0 i
 105.2  25.4177  0 i
 105.25  24.5768  0 i
 105.3  47.8034  0 i
 105.35  31.8968  0 i
 105.4  30.2682  0 i
 105.45  22.1823  0 i
 105.5  32.2846  0 i
 105.55  34.2099  0 i
 105.6  29.1323  0 i
 105.65  36.6489  0 i
 105.7  24.6602  0 i
 105.75  30.2392  0 i
 105.8  41.0399  0 i
 105.85  33.2075  0 i
 105.9  31.1884  0 i
 105.95  29.2881  0 i
 106  30.0526  0 i
 106.05  28.9448  0 i
 106.1  32.592  0 i
 106.15  39.2577  0 i
 106.2  30.4587  0 i
 106.25  22.9159  0 i
 106.3  25.4471  0 i
 106.35  30.1759  0 i
 106.4  25.3586  0 i
 106.45  37.0269  0 i
 106.5  29.5677  0 i
 106.55  24.0986  0 i
 106.6  27.1094  0 i
 106.65  33.065  0 i
 106.7  22.7337  0 i
 106.75  25.0386  0 i
 106.8  32.5213  0 i
 106.85  42.4148  0 i
 106.9  33.0406  0 i
 106.95  19.9612  0 i
 107  30.1869  0 i
 107.05  26.883  0 i
 107.1  32.3372  0 i
 107.15  30.3917  0 i
 107.2  33.2543  0 i
 107.25  26.2107  0 i
 107.3  27.8379  0 i
 107.35  39.5417  0 i
 107.4  30.3203  0 i
 107.45  23.7611  0 i
 107.5  29.4208  0 i
 107.55  43.2115  0 i
 107.6  35.4331  0 i
 107.65  30.8483  0 i
 107.7  31.0412  0 i
 107.75  26.6225  0 i
 107.8  34.8284  0 i
 107.85  21.9938  0 i
 107.9  29.4716  0 i
 107.95  34.1374  0 i
 108  24.747  0 i
 108.05  25.4663  0 i
 108.1  33.1906  0 i
 108.15  28.739  0 i
 108.2  30.4793  0 i
 108.25  36.4603  0 i
 108.3  25.5883  0 i
 108.35  36.0859  0 i
 108.4  28.1225  0 i
 108.45  27.3882  0 i
 108.5  36.2926  0 i
 108.55  34.5161  0 i
 108.6  28.9504  0 i
 108.65  28.7996  0 i
 108.7  28.5942  0 i
 108.75  22.3512  0 i
 108.8  31.4623  0 i
 108.85  18.2313  0 i
 108.9  32.4101  0 i
 108.95  27.4914  0 i
 109  36.4583  0 i
 109.05  29.3179  0 i
 109.1  33.447  0 i
 109.15  31.5662  0 i
 109.2  25.1733  0 i
 109.25  27.6689  0 i
 109.3  31.5854  0 i
 109.35  24.4339  0 i
 109.4  45.9657  0 i
 109.45  26.9969  0 i
 109.5  24.9872  0 i
 109.55  30.4186  0 i
 109.6  35.1777  0 i
 109.65  37.8526  0 i
 109.7  35.3243  0 i
 109.75  24.5506  0 i
 109.8  30.2873  0 i
 109.85  37.6269  0 i
 109.9  31.8161  0 i
 109.95  40.1869  0 i
 110  26.8589  0 i
 110.05  24.5953  0 i
 110.1  37.4929  0 i
 110.15  28.548  0 i
 110.2  39.5942  0 i
 110.25  31.6544  0 i
 110.3  32.7278  0 i
 110.35  36.5711  0 i
 110.4  25.5446  0 i
 110.45  28.0415  0 i
 110.5  17.8738  0 i
 110.55  32.5676  0 i
 110.6  32.2694  0 i
 110.65  31.0568  0 i
 110.7  34.0822  0 i
 110.75  29.6649  0 i
 110.8  28.784  0 i
 110.85  26.51  0 i
 110.9  28.1733  0 i
 110.95  29.8926  0 i
 111  26.3761  0 i
 111.05  22.5969  0 i
 111.1  43.6945  0 i
 111.15  32.8355  0 i
 111.2  25.7457  0 i
 111.25  22.2707  0 i
 111.3  29.7773  0 i
 111.35  29.754  0 i
 111.4  31.5542  0 i
 111.45  31.502  0 i
 111.5  35.2784  0 i
 111.55  42.8003  0 i
 111.6  33.5212  0 i
 111.65  31.9155  0 i
 111.7  32.0134  0 i
 111.75  38.7742  0 i
 111.8  43.4378  0 i
 111.85  27.9115  0 i
 111.9  34.7915  0 i
 111.95  28.7169  0 i
 112  25.6224  0 i
 112.05  21.2665  0 i
 112.1  32.1454  0 i
 112.15  26.1801  0 i
 112.2  26.9238  0 i
 112.25  20.0866  0 i
 112.3  26.4171  0 i
 112.35  26.5352  0 i
 112.4  29.5635  0 i
 112.45  33.2016  0 i
 112.5  23.8618  0 i
 112.55  27.6195  0 i
 112.6  22.603  0 i
 112.65  46.0276  0 i
 112.7  32.8583  0 i
 112.75  39.8393  0 i
 112.8  34.6707  0 i
 112.85  33.5521  0 i
 112.9  32.8823  0 i
 112.95  36.1931  0 i
 113  34.697  0 i
 113.05  40.8182  0 i
 113.1  42.1753  0 i
 113.15  28.9085  0 i
 113.2  27.7728  0 i
 113.25  32.4429  0 i
 113.3  22.3444  0 i
 113.35  23.6251  0 i
 113.4  33.2653  0 i
 113.45  15.7559  0 i
 113.5  33.6749  0 i
 113.55  38.1278  0 i
 113.6  41.5857  0 i
 113.65  37.0265  0 i
 113.7  31.7329  0 i
 113.75  38.6568  0 i
 113.8  35.0842  0 i
 113.85  39.5486  0 i
 113.9  31.18  0 i
 113.95  31.8867  0 i
 114  24.3598  0 i
 114.05  32.7674  0 i
 114.1  34.8053  0 i
 114.15  37.4061  0 i
 114.2  20.6629  0 i
 114.25  27.4558  0 i
 114.3  26.0644  0 i
 114.35  31.0237  0 i
 114.4  32.4723  0 i
 114.45  23.1793  0 i
 114.5  33.1923  0 i
 114.55  31.9218  0 i
 114.6  40.1448  0 i
 114.65  32.8922  0 i
 114.7  26.337  0 i
 114.75  31.5457  0 i
 114.8  28.2188  0 i
 114.85  34.2958  0 i
 114.9  27.9473  0 i
 114.95  39.3135  0 i
 115  34.4818  0 i
 115.05  24.9733  0 i
 115.1  33.9105  0 i
 115.15  36.0263  0 i
 115.2  31.5809  0 i
 115.25  23.1328  0 i
 115.3  36.9292  0 i
 115.35  30.6335  0 i
 115.4  30.7733  0 i
 115.45  31.4679  0 i
 115.5  43.9295  0 i
 115.55  44.0997  0 i
 115.6  48.6959  0 i
 115.65  50.9215  0 i
 115.7  68.4009  0 i
 115.75  80.0457  0 i
 115.8  87.4154  0 i
 115.85  108.34  0 i
 115.9  114.964  0 i
 115.95  111.781  0 i
 116  110.061  0 i
 116.05  74.3215  0 i
 116.1  83.3512  0 i
 116.15  52.3882  0 i
 116.2  53.7732  0 i
 116.25  59.2505  0 i
 116.3  48.9904  0 i
 116.35  37.7604  0 i
 116.4  44.7448  0 i
 116.45  44.5544  0 i
 116.5  41.3989  0 i
 116.55  38.7895  0 i
 116.6  39.4379  0 i
 116.65  41.0524  0 i
 116.7  35.6447  0 i
 116.75  34.0139  0 i
 116.8  34.625  0 i
 116.85  28.1266  0 i
 116.9  36.8206  0 i
 116.95  38.2873  0 i
 117  32.3403  0 i
 117.05  32.6283  0 i
 117.1  25.1036  0 i
 117.15  36.743  0 i
 117.2  37.042  0 i
 117.25  40.1036  0 i
 117.3  35.856  0 i
 117.35  23.5379  0 i
 117.4  26.6804  0 i
 117.45  37.9505  0 i
 117.5  30.7395  0 i
 117.55  35.0938  0 i
 117.6  27.8784  0 i
 117.65  21.865  0 i
 117.7  27.1333  0 i
 117.75  29.7791  0 i
 117.8  26.9631  0 i
 117.85  37.1777  0 i
 117.9  33.9041  0 i
 117.95  24.077  0 i
 118  34.3687  0 i
 118.05  33.6657  0 i
 118.1  29.6958  0 i
 118.15  36.0538  0 i
 118.2  31.4648  0 i
 118.25  24.6331  0 i
 118.3  32.9109  0 i
 118.35  35.8107  0 i
 118.4  36.4233  0 i
 118.45  33.5419  0 i
 118.5  22.7065  0 i
 118.55  27.8921  0 i
 118.6  24.1224  0 i
 118.65  24.8033  0 i
 118.7  38.614  0 i
 118.75  30.7473  0 i
 118.8  21.9899  0 i
 118.85  35.4974  0 i
 118.9  42.3674  0 i
 118.95  33.0889  0 i
 119  31.9512  0 i
 119.05  28.3764  0 i
 119.1  26.8362  0 i
 119.15  30.4222  0 i
 119.2  30.5164  0 i
 119.25  26.7586  0 i
 119.3  23.0958  0 i
 119.35  38.609  0 i
 119.4  24.915  0 i
 119.45  29.4472  0 i
 119.5  36.0986  0 i
 119.55  24.9215  0 i
 119.6  28.9165  0 i
 119.65  34.2062  0 i
 119.7  29.0564  0 i
 119.75  36.7448  0 i
 119.8  28.1931  0 i
 119.85  37.5816  0 i
 119.9  43.7739  0 i
 119.95  33.177  0 i
 120  26.3266  0 i
 120.05  29.3829  0 i
 120.1  36.9532  0 i
 120.15  31.245  0 i
 120.2  26.8142  0 i
 120.25  28.3821  0 i
 120.3  44.2413  0 i
 120.35  33.5009  0 i
 120.4  33.0259  0 i
 120.45  33.8414  0 i
 120.5  37.6885  0 i
 120.55  38.5202  0 i
 120.6  35.9567  0 i
 120.65  33.2007  0 i
 120.7  27.9921  0 i
 120.75  35.2931  0 i
 120.8  27.6556  0 i
 120.85  25.4616  0 i
 120.9  33.5348  0 i
 120.95  31.4086  0 i
 121  31.5002  0 i
 121.05  30.4466  0 i
 121.1  37.9321  0 i
 121.15  39.2278  0 i
 121.2  35.0821  0 i
 121.25  29.4356  0 i
 121.3  23.0441  0 i
 121.35  28.7597  0 i
 121.4  19.8492  0 i
 121.45  31.5735  0 i
 121.5  35.0162  0 i
 121.55  29.2013  0 i
 121.6  25.2284  0 i
 121.65  23.2508  0 i
 121.7  29.7184  0 i
 121.75  27.2303  0 i
 121.8  36.957  0 i
 121.85  35.3207  0 i
 121.9  32.9284  0 i
 121.95  35.8497  0 i
 122  31.416  0 i
 122.05  22.422  0 i
 122.1  37.4013  0 i
 122.15  25.6905  0 i
 122.2  32.779  0 i
 122.25  31.8354  0 i
 122.3  27.2452  0 i
 122.35  22.6426  0 i
 122.4  26.5401  0 i
 122.45  28.055  0 i
 122.5  27.5229  0 i
 122.55  24.7023  0 i
 122.6  31.534  0 i
 122.65  33.6627  0 i
 122.7  31.3315  0 i
 122.75  41.8037  0 i
 122.8  25.4925  0 i
 122.85  26.1792  0 i
 122.9  28.6337  0 i
 122.95  39.8707  0 i
 123  30.3803  0 i
 123.05  34.1255  0 i
 123.1  33.1897  0 i
 123.15  21.7719  0 i
 123.2  29.6942  0 i
 123.25  37.4173  0 i
 123.3  31.9857  0 i
 123.35  24.7408  0 i
 123.4  36.3778  0 i
 123.45  30.9067  0 i
 123.5  26.6463  0 i
 123.55  22.6434  0 i
 123.6  33.639  0 i
 123.65  34.1829  0 i
 123.7  25.0275  0 i
 123.75  29.2178  0 i
 123.8  22.8117  0 i
 123.85  38.6781  0 i
 123.9  36.4845  0 i
 123.95  24.0304  0 i
 124  27.3428  0 i
 124.05  35.7968  0 i
 124.1  44.5659  0 i
 124.15  30.2862  0 i
 124.2  33.8518  0 i
 124.25  17.3167  0 i
 124.3  30.8406  0 i
 124.35  24.9621  0 i
 124.4  25.1455  0 i
 124.45  20.6193  0 i
 124.5  35.227  0 i
 124.55  29.8687  0 i
 124.6  29.3794  0 i
 124.65  29.4785  0 i
 124.7  32.1964  0 i
 124.75  30.1785  0 i
 124.8  23.7131  0 i
 124.85  29.0264  0 i
 124.9  32.826  0 i
 124.95  30.9612  0 i
 125  31.8072  0 i
 125.05  28.5798  0 i
 125.1  30.0773  0 i
 125.15  30.2488  0 i
 125.2  34.0662  0 i
 125.25  21.699  0 i
 125.3  28.5267  0 i
 125.35  30.4546  0 i
 125.4  32.5739  0 i
 125.45  32.9924  0 i
 125.5  41.6797  0 i
 125.55  23.6287  0 i
 125.6  25.6995  0 i
 125.65  20.2524  0 i
 125.7  29.4351  0 i
 125.75  28.1907  0 i
 125.8  30.4944  0 i
 125.85  27.5518  0 i
 125.9  22.1127  0 i
 125.95  20.333  0 i
 126  37.6771  0 i
 126.05  32.8972  0 i
 126.1  25.606  0 i
 126.15  21.7135  0 i
 126.2  30.1835  0 i
 126.25  34.1182  0 i
 126.3  36.8337  0 i
 126.35  34.4554  0 i
 126.4  21.7164  0 i
 126.45  33.1319  0 i
 126.5  27.8678  0 i
 126.55  29.9054  0 i
 126.6  29.9069  0 i
 126.65  33.4483  0 i
 126.7  30.8655  0 i
 126.75  40.6392  0 i
 126.8  22.3186  0 i
 126.85  25.554  0 i
 126.9  26.3833  0 i
 126.95  21.2039  0 i
 127  24.351  0 i
 127.05  27.2139  0 i
 127.1  24.0591  0 i
 127.15  30.0862  0 i
 127.2  24.6364  0 i
 127.25  30.4829  0 i
 127.3  30.0822  0 i
 127.35  23.4667  0 i
 127.4  36.4908  0 i
 127.45  23.8501  0 i
 127.5  40.2129  0 i
 127.55  39.6479  0 i
 127.6  21.3204  0 i
 127.65  34.0361  0 i
 127.7  23.4746  0 i
 127.75  34.9262  0 i
 127.8  19.9038  0 i
 127.85  16.033  0 i
 127.9  24.8987  0 i
 127.95  30.3202  0 i
 128  38.8016  0 i
 128.05  47.3451  0 i
 128.1  43.3068  0 i
 128.15  37.2383  0 i
 128.2  32.7545  0 i
 128.25  33.9538  0 i
 128.3  36.1826  0 i
 128.35  39.1068  0 i
 128.4  33.7037  0 i
 128.45  24.7895  0 i
 128.5  39.4812  0 i
 128.55  34.7766  0 i
 128.6  41.8434  0 i
 128.65  35.1221  0 i
 128.7  24.2698  0 i
 128.75  32.0283  0 i
 128.8  27.5839  0 i
 128.85  36.7251  0 i
 128.9  37.6768  0 i
 128.95  38.5532  0 i
 129  31.3017  0 i
 129.05  33.9382  0 i
 129.1  29.6785  0 i
 129.15  39.6996  0 i
 129.2  38.8396  0 i
 129.25  38.4933  0 i
 129.3  28.42  0 i
 129.35  24.1934  0 i
 129.4  33.826  0 i
 129.45  37.5665  0 i
 129.5  27.4172  0 i
 129.55  19.4975  0 i
 129.6  32.6358  0 i
 129.65  30.1455  0 i
 129.7  41.2981  0 i
 129.75  31.8841  0 i
 129.8  24.8126  0 i
 129.85  21.3387  0 i
 129.9  32.0718  0 i
 129.95  26.5806  0 i
 130  9.3164  0 i

