40 50.9356 33.4107 17.5249
40.05 39.5222 33.4078 6.1144
40.1 33.7484 33.4049 0.3435
40.15 43.5738 33.4021 10.1717
40.2 40.8431 33.3993 7.4438
40.25 39.995 33.3965 6.5985
40.3 41.5446 33.3937 8.1509
40.35 42.5775 33.3908 9.1867
40.4 34.6092 33.3879 1.2213
40.45 42.6772 33.385 9.2922
40.5 39.5808 33.382 6.1988
40.55 41.0786 33.379 7.6996
40.6 43.3082 33.376 9.9322
40.65 33.7938 33.3729 0.4209
40.7 31.8268 33.3698 -1.543
40.75 30.6344 33.3668 -2.7324
40.8 36.0504 33.3637 2.6867
40.85 33.0255 33.3607 -0.3352
40.9 33.2301 33.3577 -0.1276
40.95 43.1249 33.3548 9.7701
41 45.9716 33.3519 12.6197
41.05 43.7289 33.3493 10.3796
41.1 42.2274 33.3466 8.8808
41.15 38.9199 33.3442 5.5757
41.2 32.3443 33.3417 -0.9974
41.25 38.2665 33.3395 4.927
41.3 46.387 33.3373 13.0497
41.35 32.2934 33.3353 -1.0419
41.4 38.3952 33.3333 5.0619
41.45 38.9968 33.3314 5.6654
41.5 40.7926 33.3296 7.463
41.55 36.4399 33.3279 3.112
41.6 36.267 33.3262 2.9408
41.65 31.5862 33.3245 -1.7383
41.7 34.991 33.3229 1.6681
41.75 46.1418 33.3214 12.8204
41.8 38.0193 33.3198 4.6995
41.85 29.2718 33.3184 -4.0466
41.9 34.735 33.317 1.418
41.95 29.7976 33.3158 -3.5182
42 21.8026 33.3146 -11.512
42.05 28.1345 33.3137 -5.1792
42.1 41.1551 33.3128 7.8423
42.15 31.6848 33.3124 -1.6276
42.2 20.0197 33.312 -13.2923
42.25 37.4144 33.3122 4.1022
42.3 37.8992 33.3124 4.5868
42.35 37.4231 33.3134 4.1097
42.4 43.298 33.3144 9.9836
42.45 35.6569 33.3164 2.3405
42.5 28.9064 33.3183 -4.4119
42.55 41.2304 33.3216 7.9088
42.6 36.4365 33.3248 3.1117
42.65 34.328 33.3295 0.9985
42.7 29.1717 33.3343 -4.1626
42.75 31.3533 33.3411 -1.9878
42.8 50.4467 33.3479 17.0988
42.85 45.7215 33.3449 12.3766
42.9 43.4014 33.3671 10.0343
42.95 36.992 33.3808 3.6112
43 34.194 33.3946 0.7994
43.05 33.9364 33.4159 0.5205
43.1 38.0418 33.4372 4.6046
43.15 38.1675 33.5143 4.6532
43.2 39.6639 33.5915 6.0724
43.25 36.2478 33.8913 2.3565
43.3 36.4908 34.1912 2.2996
43.35 42.4909 34.3147 8.1762
43.4 43.5326 34.4382 9.0944
43.45 39.0915 34.6087 4.4828
43.5 47.1077 34.7793 12.3284
43.55 44.2583 35.0287 9.2296
43.6 41.0295 35.2795 5.75
43.65 45.1257 35.6645 9.4612
43.7 42.0135 36.0495 5.964
43.75 40.4897 36.6784 3.8113
43.8 40.7682 37.3074 3.4608
43.85 43.0945 38.2927 4.8018
43.9 56.2838 39.5312 16.7526
43.95 40.4548 41.3791 -0.9243
44 57.8221 43.9862 13.8359
44.05 62.2837 48.197 14.0867
44.1 85.4976 55.732 29.7656
44.15 101.5 74.7366 26.7634
44.2 163.585 142.189 21.396
44.25 378.059 381.933 -3.874
44.3 1200.22 1003.72 196.5
44.35 2137.27 1985.75 151.52
44.4 2084.42 2657.79 -573.37
44.45 1432.03 1461.07 -29.04
44.5 451.744 239.195 212.549
44.55 180.469 89.2952 91.1738
44.6 84.3203 60.8639 23.4564
44.65 65.9747 49.6731 16.3016
44.7 61.0946 43.9115 17.1831
44.75 48.0908 40.6857 7.4051
44.8 51.1395 38.6019 12.5376
44.85 42.0532 37.2737 4.7795
44.9 42.8902 36.3195 6.5707
44.95 42.5 35.7395 6.7605
45 44.9388 35.1595 9.7793
45.05 40.4211 34.8315 5.5896
45.1 37.936 34.5035 3.4325
45.15 31.1631 34.3031 -3.14
45.2 42.834 34.1027 8.7313
45.25 27.09 33.9727 -6.8827
45.3 43.8242 33.8427 9.9815
45.35 45.8407 33.7537 12.087
45.4 36.6288 33.6647 2.9641
45.45 46.579 33.6009 12.9781
45.5 37.9197 33.537 4.3827
45.55 44.4455 33.4754 10.9701
45.6 31.2415 33.4138 -2.1723
45.65 33.0218 33.3268 -0.305
45.7 36.2327 33.2399 2.9928
45.75 31.4729 33.2153 -1.7424
45.8 25.1858 33.1907 -8.0049
45.85 35.4593 33.1727 2.2866
45.9 32.2347 33.1547 -0.92
45.95 28.0252 33.1412 -5.116
46 25.1439 33.1277 -7.9838
46.05 42.0494 33.1173 8.9321
46.1 31.809 33.107 -1.298
46.15 43.1139 33.0986 10.0153
46.2 38.3707 33.0903 5.2804
46.25 37.3599 33.083 4.2769
46.3 50.2744 33.0757 17.1987
46.35 26.9277 33.0687 -6.141
46.4 33.0119 33.0616 -0.0497
46.45 41.8952 33.0546 8.8406
46.5 33.7675 33.0475 0.72
46.55 42.3077 33.0403 9.2674
46.6 34.4743 33.0332 1.4411
46.65 36.8827 33.0264 3.8563
46.7 42.5846 33.0196 9.565
46.75 34.3855 33.0135 1.372
46.8 38.294 33.0075 5.2865
46.85 35.5651 33.0025 2.5626
46.9 33.7808 32.9975 0.7833
46.95 43.1371 32.9936 10.1435
47 33.7037 32.9898 0.7139
47.05 37.8134 32.9866 4.8268
47.1 34.0987 32.9835 1.1152
47.15 38.6264 32.9804 5.646
47.2 39.7034 32.9773 6.7261
47.25 34.5154 32.9738 1.5416
47.3 47.931 32.9702 14.9608
47.35 35.7378 32.9659 2.7719
47.4 40.2357 32.9615 7.2742
47.45 26.9129 32.9564 -6.0435
47.5 35.4933 32.9514 2.5419
47.55 39.0563 32.9463 6.11
47.6 32.4427 32.9411 -0.4984
47.65 45.3211 32.9366 12.3845
47.7 31.7496 32.932 -1.1824
47.75 36.7516 32.9285 3.8231
47.8 34.2534 32.925 1.3284
47.85 32.8584 32.9225 -0.0641
47.9 37.3772 32.92 4.4572
47.95 29.2691 32.9179 -3.6488
48 38.9962 32.9159 6.0803
48.05 39.9369 32.9135 7.0234
48.1 36.8821 32.9111 3.971
48.15 38.5393 32.9078 5.6315
48.2 42.7613 32.9045 9.8568
48.25 30.7573 32.9004 -2.1431
48.3 35.0602 32.8963 2.1639
48.35 33.799 32.8919 0.9071
48.4 31.3787 32.8875 -1.5088
48.45 29.8062 32.8835 -3.0773
48.5 35.9543 32.8795 3.0748
48.55 30.3773 32.8764 -2.4991
48.6 35.3931 32.8732 2.5199
48.65 30.4082 32.8707 -2.4625
48.7 32.3725 32.8681 -0.4956
48.75 26.4477 32.8656 -6.4179
48.8 26.9503 32.863 -5.9127
48.85 24.3012 32.8597 -8.5585
48.9 33.9372 32.8565 1.0807
48.95 34.8373 32.8525 1.9848
49 31.2826 32.8485 -1.5659
49.05 35.5058 32.8443 2.6615
49.1 31.12 32.8401 -1.7201
49.15 35.6913 32.8366 2.8547
49.2 29.3027 32.8331 -3.5304
49.25 28.3981 32.8306 -4.4325
49.3 25.0442 32.8282 -7.784
49.35 35.4684 32.8263 2.6421
49.4 35.3563 32.8244 2.5319
49.45 33.0377 32.8221 0.2156
49.5 31.8068 32.8199 -1.0131
49.55 32.0996 32.8167 -0.7171
49.6 24.0452 32.8135 -8.7683
49.65 35.855 32.8095 3.0455
49.7 37.4795 32.8056 4.6739
49.75 40.8451 32.8016 8.0435
49.8 39.2289 32.7977 6.4312
49.85 25.0575 32.7945 -7.737
49.9 43.3595 32.7913 10.5682
49.95 39.0373 32.7887 6.2486
50 37.9769 32.7861 5.1908
50.05 43.4921 32.7834 10.7087
50.1 31.799 32.7807 -0.9817
50.15 31.5482 32.7772 -1.229
50.2 28.2066 32.7737 -4.5671
50.25 32.4019 32.7696 -0.3677
50.3 25.4904 32.7656 -7.2752
50.35 31.2777 32.7619 -1.4842
50.4 39.6394 32.7581 6.8813
50.45 34.3314 32.7554 1.576
50.5 31.1654 32.7527 -1.5873
50.55 33.4748 32.7507 0.7241
50.6 20.9375 32.7486 -11.8111
50.65 34.1893 32.7463 1.443
50.7 35.7658 32.744 3.0218
50.75 34.2404 32.7408 1.4996
50.8 19.3156 32.7375 -13.4219
50.85 40.098 32.7338 7.3642
50.9 39.9812 32.7301 7.2511
50.95 33.1682 32.7269 0.4413
51 41.9292 32.7236 9.2056
51.05 30.1187 32.7211 -2.6024
51.1 42.1705 32.7185 9.452
51.15 32.1408 32.7159 -0.5751
51.2 36.9905 32.7133 4.2772
51.25 42.3937 32.7099 9.6838
51.3 35.781 32.7065 3.0745
51.35 28.2812 32.7024 -4.4212
51.4 34.2193 32.6983 1.521
51.45 41.2838 32.6946 8.5892
51.5 28.0655 32.6909 -4.6254
51.55 40.0498 32.6881 7.3617
51.6 38.9556 32.6853 6.2703
51.65 36.3573 32.683 3.6743
51.7 30.9239 32.6806 -1.7567
51.75 22.9345 32.6776 -9.7431
51.8 40.1015 32.6746 7.4269
51.85 36.7824 32.6711 4.1113
51.9 26.6054 32.6675 -6.0621
51.95 42.2174 32.6644 9.553
52 35.9208 32.6612 3.2596
52.05 22.1967 32.6589 -10.4622
52.1 37.0891 32.6566 4.4325
52.15 24.439 32.6543 -8.2153
52.2 32.1237 32.652 -0.5283
52.25 38.2421 32.6489 5.5932
52.3 33.1047 32.6457 0.459
52.35 40.0426 32.642 7.4006
52.4 25.0494 32.6382 -7.5888
52.45 36.5992 32.6348 3.9644
52.5 28.2492 32.6315 -4.3823
52.55 36.8013 32.6288 4.1725
52.6 28.4712 32.6261 -4.1549
52.65 39.5762 32.6231 6.9531
52.7 33.8587 32.6202 1.2385
52.75 28.8091 32.6164 -3.8073
52.8 41.714 32.6127 9.1013
52.85 44.2668 32.609 11.6578
52.9 32.9794 32.6052 0.3742
52.95 37.5971 32.6024 4.9947
53 30.0739 32.5996 -2.5257
53.05 27.1933 32.5973 -5.404
53.1 30.7919 32.5949 -1.803
53.15 41.4752 32.5919 8.8833
53.2 27.5155 32.5889 -5.0734
53.25 21.1259 32.5855 -11.4596
53.3 27.2822 32.5821 -5.2999
53.35 31.0979 32.5793 -1.4814
53.4 32.6945 32.5765 0.118
53.45 33.2156 32.5742 0.6414
53.5 22.7821 32.572 -9.7899
53.55 44.8206 32.5691 12.2515
53.6 33.7495 32.5662 1.1833
53.65 23.1482 32.5626 -9.4144
53.7 26.872 32.559 -5.687
53.75 31.3692 32.5557 -1.1865
53.8 40.8326 32.5524 8.2802
53.85 29.6635 32.5496 -2.8861
53.9 31.3655 32.5469 -1.1814
53.95 32.7749 32.5437 0.2312
54 29.6892 32.5406 -2.8514
54.05 37.116 32.5368 4.5792
54.1 23.3529 32.533 -9.1801
54.15 38.2085 32.5296 5.6789
54.2 34.8188 32.5262 2.2926
54.25 25.0042 32.5236 -7.5194
54.3 33.2233 32.521 0.7023
54.35 21.1445 32.5181 -11.3736
54.4 34.4006 32.5153 1.8853
54.45 39.7575 32.5119 7.2456
54.5 28.3528 32.5085 -4.1557
54.55 18.6999 32.5056 -13.8057
54.6 38.7877 32.5027 6.285
54.65 33.1358 32.5004 0.6354
54.7 30.4837 32.4981 -2.0144
54.75 29.6267 32.4953 -2.8686
54.8 53.9054 32.4924 21.413
54.85 43.1645 32.4892 10.6753
54.9 37.4686 32.4857 4.9829
54.95 32.1344 32.4828 -0.3484
55 30.8344 32.4799 -1.6455
55.05 38.6458 32.4771 6.1687
55.1 29.634 32.4744 -2.8404
55.15 45.8298 32.471 13.3588
55.2 29.8256 32.4675 -2.6419
55.25 41.3581 32.4639 8.8942
55.3 32.9573 32.4602 0.4971
55.35 36.8349 32.4573 4.3776
55.4 32.6688 32.4543 0.2145
55.45 35.135 32.4512 2.6838
55.5 30.976 32.4482 -1.4722
55.55 46.0812 32.4447 13.6365
55.6 30.0751 32.4412 -2.3661
55.65 37.0817 32.4381 4.6436
55.7 23.2511 32.435 -9.1839
55.75 32.1214 32.4324 -0.311
55.8 35.375 32.4299 2.9451
55.85 26.3629 32.427 -6.0641
55.9 29.4932 32.424 -2.9308
55.95 31.2355 32.4209 -1.1854
56 34.4942 32.4178 2.0764
56.05 25.6651 32.4152 -6.7501
56.1 21.1381 32.4127 -11.2746
56.15 28.2225 32.41 -4.1875
56.2 31.1394 32.4073 -1.2679
56.25 26.82 32.404 -5.584
56.3 29.8372 32.4006 -2.5634
56.35 24.7881 32.3976 -7.6095
56.4 33.9741 32.3945 1.5796
56.45 33.6207 32.3916 1.2291
56.5 36.7681 32.3887 4.3794
56.55 37.3887 32.3852 5.0035
56.6 37.956 32.3817 5.5743
56.65 26.9033 32.3783 -5.475
56.7 36.4554 32.3748 4.0806
56.75 29.4872 32.3719 -2.8847
56.8 31.9572 32.3689 -0.4117
56.85 34.0673 32.3656 1.7017
56.9 28.3878 32.3623 -3.9745
56.95 30.7043 32.3591 -1.6548
57 31.584 32.3558 -0.7718
57.05 30.6917 32.353 -1.6613
57.1 39.5901 32.3503 7.2398
57.15 33.7894 32.3474 1.442
57.2 35.5981 32.3446 3.2535
57.25 28.0599 32.3416 -4.2817
57.3 28.7338 32.3385 -3.6047
57.35 26.527 32.3359 -5.8089
57.4 29.3217 32.3333 -3.0116
57.45 36.856 32.3305 4.5255
57.5 32.539 32.3278 0.2112
57.55 30.7117 32.3246 -1.6129
57.6 26.3878 32.3215 -5.9337
57.65 31.1328 32.3186 -1.1858
57.7 35.818 32.3156 3.5024
57.75 36.5329 32.3126 4.2203
57.8 36.4137 32.3095 4.1042
57.85 43.0494 32.3061 10.7433
57.9 25.2836 32.3027 -7.0191
57.95 28.9569 32.2995 -3.3426
58 34.963 32.2963 2.6667
58.05 26.8357 32.293 -5.4573
58.1 26.4052 32.2898 -5.8846
58.15 33.3595 32.2864 1.0731
58.2 29.1381 32.2831 -3.145
58.25 23.1663 32.28 -9.1137
58.3 38.9837 32.277 6.7067
58.35 33.2459 32.274 0.9719
58.4 33.8823 32.271 1.6113
58.45 28.9435 32.268 -3.3245
58.5 25.9701 32.265 -6.2949
58.55 29.7985 32.2623 -2.4638
58.6 30.9936 32.2595 -1.2659
58.65 23.5424 32.2568 -8.7144
58.7 25.558 32.254 -6.696
58.75 33.7057 32.2511 1.4546
58.8 35.4687 32.2483 3.2204
58.85 37.3662 32.2455 5.1207
58.9 24.6902 32.2428 -7.5526
58.95 36.3878 32.2398 4.148
59 22.9212 32.2368 -9.3156
59.05 26.2485 32.2337 -5.9852
59.1 27.0757 32.2306 -5.1549
59.15 40.1654 32.2275 7.9379
59.2 36.745 32.2244 4.5206
59.25 23.6502 32.2211 -8.5709
59.3 30.162 32.2178 -2.0558
59.35 23.7288 32.2145 -8.4857
59.4 25.8005 32.2113 -6.4108
59.45 39.4096 32.208 7.2016
59.5 33.384 32.2048 1.1792
59.55 33.6553 32.2016 1.4537
59.6 31.035 32.1985 -1.1635
59.65 36.6175 32.1956 4.4219
59.7 20.3557 32.1927 -11.837
59.75 24.4649 32.1897 -7.7248
59.8 30.0817 32.1867 -2.105
59.85 34.5278 32.1838 2.344
59.9 36.3516 32.1809 4.1707
59.95 32.489 32.178 0.311
60 35.9221 32.1752 3.7469
60.05 29.1406 32.1724 -3.0318
60.1 23.3775 32.1695 -8.792
60.15 28.2964 32.1667 -3.8703
60.2 44.063 32.1639 11.8991
60.25 31.5663 32.1611 -0.5948
60.3 30.2569 32.1583 -1.9014
60.35 21.1446 32.1554 -11.0108
60.4 31.6966 32.1526 -0.456
60.45 29.6281 32.1497 -2.5216
60.5 31.3874 32.1467 -0.7593
60.55 27.72 32.1438 -4.4238
60.6 33.9832 32.1408 1.8424
60.65 25.3607 32.1379 -6.7772
60.7 29.0095 32.1349 -3.1254
60.75 34.2648 32.1319 2.1329
60.8 28.4201 32.1289 -3.7088
60.85 25.661 32.1259 -6.4649
60.9 25.9915 32.123 -6.1315
60.95 49.2777 32.1201 17.1576
61 41.5223 32.1172 9.4051
61.05 34.6463 32.1144 2.5319
61.1 24.2049 32.1116 -7.9067
61.15 31.2234 32.1089 -0.8855
61.2 42.6454 32.1063 10.5391
61.25 32.5289 32.1037 0.4252
61.3 37.2495 32.1011 5.1484
61.35 34.2769 32.0987 2.1782
61.4 34.4268 32.0962 2.3306
61.45 31.6804 32.0939 -0.4135
61.5 35.1568 32.0915 3.0653
61.55 33.6684 32.0892 1.5792
61.6 29.3883 32.0869 -2.6986
61.65 24.2116 32.0847 -7.8731
61.7 25.9467 32.0825 -6.1358
61.75 24.9321 32.0803 -7.1482
61.8 35.129 32.0781 3.0509
61.85 32.9138 32.076 0.8378
61.9 41.8601 32.0739 9.7862
61.95 26.5733 32.0719 -5.4986
62 30.7829 32.0699 -1.287
62.05 30.0685 32.068 -1.9995
62.1 31.9571 32.0661 -0.109
62.15 30.2378 32.0644 -1.8266
62.2 32.9079 32.0628 0.8451
62.25 40.566 32.0614 8.5046
62.3 25.0511 32.06 -7.0089
62.35 28.9037 32.059 -3.1553
62.4 41.2277 32.058 9.1697
62.45 32.3375 32.0575 0.28
62.5 17.0702 32.057 -14.9868
62.55 35.7033 32.0572 3.6461
62.6 26.9699 32.0573 -5.0874
62.65 36.2402 32.0583 4.1819
62.7 32.4024 32.0592 0.3432
62.75 33.2288 32.0612 1.1676
62.8 43.0681 32.0631 11.005
62.85 31.2217 32.0664 -0.8447
62.9 27.1882 32.0696 -4.8814
62.95 33.1349 32.0745 1.0604
63 25.2544 32.0794 -6.825
63.05 30.2044 32.0866 -1.8822
63.1 31.4996 32.0938 -0.5942
63.15 36.6349 32.1043 4.5306
63.2 31.4633 32.1148 -0.6515
63.25 42.3265 32.1303 10.1962
63.3 33.0877 32.1459 0.9418
63.35 28.262 32.1708 -3.9088
63.4 35.3867 32.1958 3.1909
63.45 30.1809 32.2421 -2.0612
63.5 27.8584 32.2885 -4.4301
63.55 27.8038 32.3519 -4.5481
63.6 34.1359 32.4153 1.7206
63.65 36.3949 32.4875 3.9074
63.7 35.0784 32.5597 2.5187
63.75 28.6543 32.6589 -4.0046
63.8 33.4808 32.758 0.7228
63.85 35.8371 32.9047 2.9324
63.9 39.1336 33.0514 6.0822
63.95 24.439 33.2789 -8.8399
64 29.6568 33.5063 -3.8495
64.05 27.514 33.8778 -6.3638
64.1 32.1718 34.2493 -2.0775
64.15 36.1031 34.899 1.2041
64.2 39.4241 35.5488 3.8753
64.25 37.4359 36.8002 0.6357
64.3 30.7185 38.0516 -7.3331
64.35 33.9657 40.84 -6.8743
64.4 36.8985 43.6283 -6.7298
64.45 48.7269 49.2357 -0.5088
64.5 66.2035 59.0689 7.1346
64.55 68.3827 76.6976 -8.3149
64.6 94.0906 105.754 -11.6634
64.65 131.294 142.495 -11.201
64.7 151.889 167.54 -15.651
64.75 146.823 157.347 -10.524
64.8 87.8711 119.102 -31.2309
64.85 87.3451 83.5919 3.7532
64.9 49.5502 61.795 -12.2448
64.95 42.7131 50.3574 -7.6443
65 42.0787 44.0558 -1.9771
65.05 41.8782 41.0249 0.8533
65.1 36.0201 37.994 -1.9739
65.15 29.8985 36.6835 -6.785
65.2 29.1132 35.3731 -6.2599
65.25 33.4866 34.7105 -1.2239
65.3 35.238 34.048 1.19
65.35 28.4352 33.6758 -5.2406
65.4 21.9956 33.3036 -11.308
65.45 20.9737 33.0782 -12.1045
65.5 26.7257 32.8527 -6.127
65.55 31.6831 32.708 -1.0249
65.6 33.8961 32.5633 1.3328
65.65 30.6335 32.4658 -1.8323
65.7 33.2532 32.3682 0.885
65.75 32.7148 32.2986 0.4162
65.8 31.9106 32.2291 -0.3185
65.85 25.773 32.1734 -6.4004
65.9 31.1109 32.1176 -1.0067
65.95 30.5638 32.073 -1.5092
66 41.9554 32.0285 9.9269
66.05 31.8245 31.999 -0.1745
66.1 40.1952 31.9696 8.2256
66.15 28.7424 31.9482 -3.2058
66.2 32.6005 31.9268 0.6737
66.25 37.2686 31.9101 5.3585
66.3 35.2511 31.8933 3.3578
66.35 34.0269 31.8798 2.1471
66.4 37.7351 31.8662 5.8689
66.45 31.4247 31.8549 -0.4302
66.5 23.546 31.8435 -8.2975
66.55 29.8152 31.8339 -2.0187
66.6 26.8758 31.8242 -4.9484
66.65 26.1062 31.8158 -5.7096
66.7 39.6785 31.8074 7.8711
66.75 32.0723 31.8 0.2723
66.8 37.7342 31.7926 5.9416
66.85 41.8388 31.786 10.0528
66.9 24.5177 31.7794 -7.2617
66.95 36.7586 31.7734 4.9852
67 30.9275 31.7675 -0.84
67.05 35.4242 31.762 3.6622
67.1 29.9298 31.7565 -1.8267
67.15 32.6728 31.7514 0.9214
67.2 25.6482 31.7463 -6.0981
67.25 34.1947 31.7415 2.4532
67.3 29.2746 31.7367 -2.4621
67.35 38.3504 31.7321 6.6183
67.4 28.0163 31.7275 -3.7112
67.45 27.642 31.7231 -4.0811
67.5 28.7248 31.7187 -2.9939
67.55 29.571 31.7144 -2.1434
67.6 22.7345 31.7101 -8.9756
67.65 37.2505 31.7059 5.5446
67.7 38.3247 31.7017 6.623
67.75 24.3814 31.6976 -7.3162
67.8 31.1883 31.6935 -0.5052
67.85 27.9869 31.6894 -3.7025
67.9 31.9542 31.6854 0.2688
67.95 37.8434 31.6814 6.162
68 33.9616 31.6774 2.2842
68.05 25.0531 31.6735 -6.6204
68.1 33.2883 31.6696 1.6187
68.15 31.6618 31.6657 -0.0039
68.2 27.3823 31.6619 -4.2796
68.25 30.0377 31.6582 -1.6205
68.3 33.1886 31.6544 1.5342
68.35 32.9161 31.6508 1.2653
68.4 38.768 31.6471 7.1209
68.45 31.9083 31.6436 0.2647
68.5 20.6211 31.64 -11.0189
68.55 28.0991 31.6365 -3.5374
68.6 41.5197 31.633 9.8867
68.65 20.056 31.6295 -11.5735
68.7 27.1451 31.626 -4.4809
68.75 24.1738 31.6226 -7.4488
68.8 31.8238 31.6191 0.2047
68.85 34.6858 31.6157 3.0701
68.9 33.5526 31.6122 1.9404
68.95 24.1754 31.6088 -7.4334
69 34.3118 31.6053 2.7065
69.05 33.1277 31.6018 1.5259
69.1 34.0754 31.5983 2.4771
69.15 33.4477 31.5948 1.8529
69.2 22.2351 31.5913 -9.3562
69.25 27.0972 31.5878 -4.4906
69.3 23.0703 31.5843 -8.514
69.35 28.8426 31.5808 -2.7382
69.4 32.7545 31.5773 1.1772
69.45 31.9095 31.5737 0.3358
69.5 29.1266 31.5702 -2.4436
69.55 39.8914 31.5667 8.3247
69.6 36.2203 31.5632 4.6571
69.65 40.3997 31.5597 8.84
69.7 25.2154 31.5563 -6.3409
69.75 31.2072 31.5528 -0.3456
69.8 32.6048 31.5494 1.0554
69.85 27.1692 31.546 -4.3768
69.9 37.3003 31.5426 5.7577
69.95 30.8779 31.5392 -0.6613
70 32.7486 31.5359 1.2127
70.05 30.1122 31.5325 -1.4203
70.1 27.987 31.5292 -3.5422
70.15 31.303 31.5259 -0.2229
70.2 37.9627 31.5225 6.4402
70.25 27.685 31.5192 -3.8342
70.3 23.7356 31.5159 -7.7803
70.35 31.2004 31.5125 -0.3121
70.4 34.6825 31.5092 3.1733
70.45 33.9508 31.5058 2.445
70.5 24.362 31.5024 -7.1404
70.55 23.5212 31.499 -7.9778
70.6 32.8535 31.4956 1.3579
70.65 30.784 31.4922 -0.7082
70.7 46.2617 31.4887 14.773
70.75 31.3148 31.4853 -0.1705
70.8 32.3014 31.4818 0.8196
70.85 31.2103 31.4784 -0.2681
70.9 28.7272 31.4749 -2.7477
70.95 29.279 31.4715 -2.1925
71 27.5787 31.468 -3.8893
71.05 33.1788 31.4646 1.7142
71.1 24.1863 31.4611 -7.2748
71.15 34.0698 31.4577 2.6121
71.2 34.7332 31.4543 3.2789
71.25 25.5603 31.4509 -5.8906
71.3 23.4693 31.4475 -7.9782
71.35 33.9409 31.4441 2.4968
71.4 34.8891 31.4407 3.4484
71.45 24.8814 31.4373 -6.5559
71.5 37.2614 31.434 5.8274
71.55 27.859 31.4306 -3.5716
71.6 21.7905 31.4273 -9.6368
71.65 27.0768 31.4239 -4.3471
71.7 36.1935 31.4205 4.773
71.75 40.6803 31.4172 9.2631
71.8 32.7409 31.4138 1.3271
71.85 31.6564 31.4104 0.246
71.9 43.3901 31.4071 11.983
71.95 39.3856 31.4037 7.9819
72 28.2618 31.4003 -3.1385
72.05 32.4128 31.3969 1.0159
72.1 32.6352 31.3934 1.2418
72.15 26.913 31.39 -4.477
72.2 30.7031 31.3865 -0.6834
72.25 28.3626 31.3831 -3.0205
72.3 26.6574 31.3796 -4.7222
72.35 29.2417 31.3762 -2.1345
72.4 24.6718 31.3727 -6.7009
72.45 31.8536 31.3692 0.4844
72.5 34.645 31.3658 3.2792
72.55 33.9735 31.3623 2.6112
72.6 23.3181 31.3589 -8.0408
72.65 28.5851 31.3554 -2.7703
72.7 38.4036 31.352 7.0516
72.75 50.224 31.3485 18.8755
72.8 35.0734 31.3451 3.7283
72.85 22.6605 31.3417 -8.6812
72.9 34.1533 31.3383 2.815
72.95 30.5629 31.3349 -0.772
73 28.9237 31.3314 -2.4077
73.05 27.0586 31.328 -4.2694
73.1 39.9048 31.3246 8.5802
73.15 27.8718 31.3212 -3.4494
73.2 40.4374 31.3178 9.1196
73.25 41.6491 31.3144 10.3347
73.3 27.9883 31.311 -3.3227
73.35 32.4723 31.3076 1.1647
73.4 28.396 31.3042 -2.9082
73.45 18.8292 31.3007 -12.4715
73.5 34.2871 31.2972 2.9899
73.55 36.608 31.2937 5.3143
73.6 30.2422 31.2902 -1.048
73.65 27.0395 31.2866 -4.2471
73.7 30.3881 31.2831 -0.895
73.75 31.04 31.2794 -0.2394
73.8 33.3802 31.2758 2.1044
73.85 38.9816 31.2721 7.7095
73.9 33.2182 31.2685 1.9497
73.95 34.2167 31.2647 2.952
74 18.5273 31.261 -12.7337
74.05 30.7263 31.2572 -0.5309
74.1 23.3902 31.2535 -7.8633
74.15 28.3616 31.2497 -2.8881
74.2 31.1345 31.2459 -0.1114
74.25 46.4665 31.2421 15.2244
74.3 30.6122 31.2382 -0.626
74.35 27.7451 31.2344 -3.4893
74.4 28.5679 31.2305 -2.6626
74.45 34.315 31.2266 3.0884
74.5 28.301 31.2227 -2.9217
74.55 27.7949 31.2188 -3.4239
74.6 37.9528 31.2149 6.7379
74.65 36.8016 31.2109 5.5907
74.7 33.8489 31.2069 2.642
74.75 32.0652 31.2029 0.8623
74.8 27.1654 31.1989 -4.0335
74.85 26.5279 31.1948 -4.6669
74.9 31.2568 31.1908 0.066
74.95 30.8954 31.1867 -0.2913
75 41.2187 31.1826 10.0361
75.05 34.1135 31.1784 2.9351
75.1 30.3797 31.1743 -0.7946
75.15 37.9081 31.1701 6.738
75.2 25.1473 31.1659 -6.0186
75.25 23.2678 31.1616 -7.8938
75.3 26.4448 31.1574 -4.7126
75.35 45.6279 31.1531 14.4748
75.4 44.8077 31.1489 13.6588
75.45 36.3593 31.1446 5.2147
75.5 30.3299 31.1403 -0.8104
75.55 21.8562 31.1359 -9.2797
75.6 29.8953 31.1316 -1.2363
75.65 27.8476 31.1273 -3.2797
75.7 33.5758 31.1229 2.4529
75.75 42.6948 31.1185 11.5763
75.8 30.8995 31.1142 -0.2147
75.85 26.0188 31.1098 -5.091
75.9 30.2793 31.1054 -0.8261
75.95 34.2476 31.1009 3.1467
76 37.9842 31.0965 6.8877
76.05 40.8676 31.0921 9.7755
76.1 34.4817 31.0876 3.3941
76.15 31.6244 31.0831 0.5413
76.2 36.5419 31.0786 5.4633
76.25 34.9835 31.0741 3.9094
76.3 27.691 31.0696 -3.3786
76.35 32.2085 31.0651 1.1434
76.4 27.6207 31.0606 -3.4399
76.45 34.684 31.056 3.628
76.5 31.9848 31.0514 0.9334
76.55 27.4257 31.0468 -3.6211
76.6 24.7625 31.0422 -6.2797
76.65 34.1717 31.0376 3.1341
76.7 33.2828 31.033 2.2498
76.75 28.194 31.0284 -2.8344
76.8 24.0494 31.0238 -6.9744
76.85 38.7416 31.0191 7.7225
76.9 31.1695 31.0145 0.155
76.95 31.0282 31.0098 0.0184
77 32.2342 31.0052 1.229
77.05 27.5689 31.0005 -3.4316
77.1 35.1268 30.9958 4.131
77.15 32.1079 30.9911 1.1168
77.2 39.3439 30.9865 8.3574
77.25 27.0652 30.9818 -3.9166
77.3 29.4572 30.9771 -1.5199
77.35 30.8011 30.9724 -0.1713
77.4 29.0532 30.9677 -1.9145
77.45 30.6724 30.9629 -0.2905
77.5 33.5901 30.9582 2.6319
77.55 24.9798 30.9535 -5.9737
77.6 33.8325 30.9488 2.8837
77.65 25.847 30.944 -5.097
77.7 30.2999 30.9393 -0.6394
77.75 26.3283 30.9345 -4.6062
77.8 25.7821 30.9298 -5.1477
77.85 33.3968 30.9251 2.4717
77.9 33.6489 30.9203 2.7286
77.95 27.763 30.9156 -3.1526
78 37.0801 30.9108 6.1693
78.05 35.2656 30.9061 4.3595
78.1 30.8481 30.9013 -0.0532
78.15 31.8142 30.8966 0.9176
78.2 32.417 30.8919 1.5251
78.25 42.0233 30.8872 11.1361
78.3 30.756 30.8825 -0.1265
78.35 40.928 30.8778 10.0502
78.4 33.9353 30.8731 3.0622
78.45 22.3819 30.8685 -8.4866
78.5 37.278 30.8638 6.4142
78.55 28.4994 30.8592 -2.3598
78.6 31.4594 30.8546 0.6048
78.65 31.4254 30.85 0.5754
78.7 23.9237 30.8455 -6.9218
78.75 23.9904 30.8409 -6.8505
78.8 28.9175 30.8364 -1.9189
78.85 32.1548 30.8319 1.3229
78.9 27.3315 30.8274 -3.4959
78.95 34.0952 30.823 3.2722
79 37.8595 30.8185 7.041
79.05 33.2346 30.8142 2.4204
79.1 35.6118 30.8098 4.802
79.15 35.7408 30.8055 4.9353
79.2 32.6326 30.8012 1.8314
79.25 28.3955 30.7971 -2.4016
79.3 37.1562 30.7929 6.3633
79.35 35.8628 30.7888 5.074
79.4 36.3387 30.7847 5.554
79.45 31.7342 30.7809 0.9533
79.5 36.5629 30.777 5.7859
79.55 28.2174 30.7734 -2.556
79.6 35.6178 30.7698 4.848
79.65 31.7728 30.7664 1.0064
79.7 23.1175 30.7631 -7.6456
79.75 30.8574 30.76 0.0974
79.8 36.2196 30.757 5.4626
79.85 37.7113 30.7544 6.9569
79.9 26.95 30.7519 -3.8019
79.95 34.6753 30.7498 3.9255
80 29.541 30.7478 -1.2068
80.05 25.4174 30.7464 -5.329
80.1 36.4672 30.7451 5.7221
80.15 27.244 30.7446 -3.5006
80.2 36.1623 30.7441 5.4182
80.25 19.1549 30.7449 -11.59
80.3 25.928 30.7457 -4.8177
80.35 29.7678 30.7481 -0.9803
80.4 38.9481 30.7505 8.1976
80.45 23.1145 30.7552 -7.6407
80.5 20.5103 30.76 -10.2497
80.55 40.0407 30.7684 9.2723
80.6 30.2381 30.7767 -0.5386
80.65 49.3688 30.7919 18.5769
80.7 25.6777 30.8071 -5.1294
80.75 38.3771 30.853 7.5241
80.8 34.8499 30.8989 3.951
80.85 26.7928 30.985 -4.1922
80.9 37.3889 31.0711 6.3178
80.95 31.7471 31.1326 0.6145
81 36.082 31.194 4.888
81.05 18.5954 31.2771 -12.6817
81.1 30.4164 31.3603 -0.9439
81.15 37.4814 31.4835 5.9979
81.2 26.5132 31.6067 -5.0935
81.25 27.5229 31.7982 -4.2753
81.3 29.826 31.9896 -2.1636
81.35 35.7708 32.3043 3.4665
81.4 46.3944 32.6189 13.7755
81.45 29.3394 33.1765 -3.8371
81.5 26.1576 33.7341 -7.5765
81.55 34.5051 34.8405 -0.3354
81.6 50.3464 35.9469 14.3995
81.65 46.5177 37.9559 8.5618
81.7 44.1063 41.2616 2.8447
81.75 56.6631 47.7246 8.9385
81.8 79.8148 60.7812 19.0336
81.85 131.49 95.7572 35.7328
81.9 221.054 177.513 43.541
81.95 310.083 298.598 11.485
82 255.266 349.493 -94.227
82.05 221.063 245.01 -23.947
82.1 122.475 121.729 0.746
82.15 81.7051 67.7623 13.9428
82.2 61.9412 49.3988 12.5424
82.25 43.5143 41.8424 1.6719
82.3 44.7929 37.9973 6.7956
82.35 33.7114 36.1827 -2.4713
82.4 30.8957 34.368 -3.4723
82.45 29.0649 33.5728 -4.5079
82.5 29.9285 32.7776 -2.8491
82.55 45.4235 32.3651 13.0584
82.6 32.5712 31.9527 0.6185
82.65 19.6965 31.7144 -12.0179
82.7 37.0215 31.4761 5.5454
82.75 27.5751 31.3276 -3.7525
82.8 35.6102 31.179 4.4312
82.85 30.9305 31.0807 -0.1502
82.9 27.4819 30.9824 -3.5005
82.95 32.5655 30.9138 1.6517
83 34.139 30.8452 3.2938
83.05 37.4531 30.7929 6.6602
83.1 34.9748 30.7406 4.2342
83.15 32.3244 30.6765 1.6479
83.2 31.5492 30.6124 0.9368
83.25 32.3851 30.5775 1.8076
83.3 25.7667 30.5425 -4.7758
83.35 36.6936 30.5217 6.1719
83.4 24.3075 30.5008 -6.1933
83.45 27.1141 30.4847 -3.3706
83.5 33.2558 30.4686 2.7872
83.55 16.2924 30.4554 -14.163
83.6 30.799 30.4422 0.3568
83.65 28.8261 30.431 -1.6049
83.7 38.9351 30.4198 8.5153
83.75 31.4884 30.4101 1.0783
83.8 25.0769 30.4003 -5.3234
83.85 34.6483 30.3917 4.2566
83.9 24.8229 30.383 -5.5601
83.95 31.3799 30.3752 1.0047
84 26.5747 30.3674 -3.7927
84.05 33.1121 30.3603 2.7518
84.1 29.4369 30.3532 -0.9163
84.15 25.919 30.3466 -4.4276
84.2 23.5956 30.3401 -6.7445
84.25 20.3685 30.334 -9.9655
84.3 22.4635 30.3279 -7.8644
84.35 42.7407 30.3221 12.4186
84.4 33.7164 30.3164 3.4
84.45 40.3982 30.311 10.0872
84.5 30.6839 30.3056 0.3783
84.55 28.1408 30.3005 -2.1597
84.6 22.4444 30.2953 -7.8509
84.65 30.1321 30.2904 -0.1583
84.7 29.5108 30.2855 -0.7747
84.75 38.4198 30.2808 8.139
84.8 32.496 30.2761 2.2199
84.85 25.1537 30.2715 -5.1178
84.9 23.137 30.2669 -7.1299
84.95 34.3376 30.2625 4.0751
85 25.0077 30.258 -5.2503
85.05 35.9024 30.2536 5.6488
85.1 28.9599 30.2493 -1.2894
85.15 27.1188 30.245 -3.1262
85.2 27.221 30.2407 -3.0197
85.25 23.4535 30.2365 -6.783
85.3 36.3098 30.2323 6.0775
85.35 28.3356 30.2282 -1.8926
85.4 25.9875 30.224 -4.2365
85.45 37.806 30.22 7.586
85.5 28.4772 30.2159 -1.7387
85.55 25.2021 30.2119 -5.0098
85.6 35.9573 30.2079 5.7494
85.65 33.0387 30.204 2.8347
85.7 27.2001 30.2002 -3.0001
85.75 39.2427 30.1963 9.0464
85.8 22.7765 30.1925 -7.416
85.85 27.9865 30.1888 -2.2023
85.9 26.2444 30.1851 -3.9407
85.95 26.4549 30.1815 -3.7266
86 35.9011 30.1779 5.7232
86.05 29.2096 30.1744 -0.9648
86.1 29.9845 30.1709 -0.1864
86.15 32.7848 30.1675 2.6173
86.2 30.1622 30.1641 -0.0019
86.25 25.7186 30.1608 -4.4422
86.3 21.2495 30.1575 -8.908
86.35 38.7533 30.1542 8.5991
86.4 30.6176 30.151 0.4666
86.45 24.9823 30.1478 -5.1655
86.5 31.3293 30.1446 1.1847
86.55 20.1407 30.1415 -10.0008
86.6 27.2517 30.1384 -2.8867
86.65 35.7716 30.1353 5.6363
86.7 28.8515 30.1322 -1.2807
86.75 35.0558 30.1292 4.9266
86.8 35.9016 30.1262 5.7754
86.85 31.5203 30.1232 1.3971
86.9 27.7743 30.1202 -2.3459
86.95 30.832 30.1172 0.7148
87 26.044 30.1142 -4.0702
87.05 19.9426 30.1113 -10.1687
87.1 30.2721 30.1084 0.1637
87.15 33.2564 30.1056 3.1508
87.2 22.9108 30.1027 -7.1919
87.25 30.9396 30.1 0.8396
87.3 37.814 30.0972 7.7168
87.35 35.6591 30.0945 5.5646
87.4 20.9947 30.0918 -9.0971
87.45 21.9424 30.0892 -8.1468
87.5 31.6631 30.0865 1.5766
87.55 17.2216 30.084 -12.8624
87.6 37.0484 30.0815 6.9669
87.65 39.4857 30.0791 9.4066
87.7 33.8275 30.0766 3.7509
87.75 31.9918 30.0743 1.9175
87.8 36.6673 30.072 6.5953
87.85 34.0085 30.0697 3.9388
87.9 24.005 30.0675 -6.0625
87.95 28.6043 30.0653 -1.461
88 27.2013 30.0631 -2.8618
88.05 23.0065 30.061 -7.0545
88.1 30.4324 30.0589 0.3735
88.15 30.1478 30.0569 0.0909
88.2 31.7028 30.0549 1.6479
88.25 30.9458 30.0529 0.8929
88.3 28.8007 30.0509 -1.2502
88.35 26.8108 30.049 -3.2382
88.4 27.3246 30.047 -2.7224
88.45 23.2228 30.0452 -6.8224
88.5 32.5585 30.0433 2.5152
88.55 31.5507 30.0415 1.5092
88.6 32.9889 30.0397 2.9492
88.65 21.1031 30.0379 -8.9348
88.7 36.031 30.0361 5.9949
88.75 27.92 30.0344 -2.1144
88.8 22.3814 30.0327 -7.6513
88.85 32.4372 30.0311 2.4061
88.9 30.1938 30.0295 0.1643
88.95 26.6673 30.0279 -3.3606
89 26.9106 30.0264 -3.1158
89.05 31.5956 30.025 1.5706
89.1 26.9276 30.0235 -3.0959
89.15 23.6865 30.0222 -6.3357
89.2 34.5161 30.0208 4.4953
89.25 27.4408 30.0196 -2.5788
89.3 30.1104 30.0183 0.0921
89.35 33.8 30.0172 3.7828
89.4 37.1827 30.016 7.1667
89.45 35.6649 30.015 5.6499
89.5 29.759 30.0139 -0.2549
89.55 35.7174 30.013 5.7044
89.6 28.7553 30.012 -1.2567
89.65 37.9853 30.0112 7.9741
89.7 28.0343 30.0103 -1.976
89.75 39.0407 30.0095 9.0312
89.8 24.2576 30.0087 -5.7511
89.85 40.6936 30.008 10.6856
89.9 38.241 30.0073 8.2337
89.95 38.8308 30.0066 8.8242
90 29.1586 30.006 -0.8474
90.05 34.565 30.0054 4.5596
90.1 28.9858 30.0048 -1.019
90.15 37.6121 30.0043 7.6078
90.2 34.6125 30.0038 4.6087
90.25 26.7024 30.0033 -3.3009
90.3 28.6345 30.0029 -1.3684
90.35 28.8134 30.0025 -1.1891
90.4 27.6588 30.0021 -2.3433
90.45 30.5438 30.0019 0.5419
90.5 31.5567 30.0016 1.5551
90.55 22.5297 30.0014 -7.4717
90.6 26.772 30.0012 -3.2292
90.65 36.7415 30.0011 6.7404
90.7 29.3818 30.001 -0.6192
90.75 30.3127 30.001 0.3117
90.8 29.8515 30.001 -0.1495
90.85 33.0936 30.0012 3.0924
90.9 30.7551 30.0013 0.7538
90.95 26.143 30.0016 -3.8586
91 26.1332 30.0019 -3.8687
91.05 24.8781 30.0022 -5.1241
91.1 24.2474 30.0026 -5.7552
91.15 21.6263 30.0031 -8.3768
91.2 36.8811 30.0036 6.8775
91.25 23.2376 30.0042 -6.7666
91.3 28.3468 30.0048 -1.658
91.35 24.8664 30.0055 -5.1391
91.4 35.1717 30.0062 5.1655
91.45 36.0215 30.007 6.0145
91.5 26.7557 30.0078 -3.2521
91.55 28.6312 30.0086 -1.3774
91.6 30.447 30.0095 0.4375
91.65 28.5262 30.0104 -1.4842
91.7 32.3954 30.0114 2.384
91.75 29.2013 30.0124 -0.8111
91.8 29.1299 30.0134 -0.8835
91.85 31.4207 30.0145 1.4062
91.9 33.1754 30.0156 3.1598
91.95 35.9654 30.0168 5.9486
92 33.0674 30.0179 3.0495
92.05 25.7007 30.0192 -4.3185
92.1 38.8136 30.0204 8.7932
92.15 33.7589 30.0218 3.7371
92.2 37.4884 30.0231 7.4653
92.25 36.8459 30.0245 6.8214
92.3 28.7597 30.026 -1.2663
92.35 30.1467 30.0275 0.1192
92.4 38.8622 30.029 8.8332
92.45 28.2999 30.0307 -1.7308
92.5 30.0375 30.0323 0.0052
92.55 26.3691 30.0341 -3.665
92.6 37.8535 30.0358 7.8177
92.65 28.143 30.0376 -1.8946
92.7 31.5376 30.0395 1.4981
92.75 26.332 30.0414 -3.7094
92.8 26.0465 30.0434 -3.9969
92.85 25.174 30.0454 -4.8714
92.9 30.7374 30.0475 0.6899
92.95 23.1567 30.0496 -6.8929
93 17.6644 30.0517 -12.3873
93.05 21.2554 30.0539 -8.7985
93.1 29.8269 30.0562 -0.2293
93.15 26.8671 30.0584 -3.1913
93.2 27.3278 30.0607 -2.7329
93.25 36.6923 30.0631 6.6292
93.3 34.7076 30.0654 4.6422
93.35 27.9217 30.0678 -2.1461
93.4 29.9678 30.0702 -0.1024
93.45 23.5741 30.0726 -6.4985
93.5 36.6359 30.075 6.5609
93.55 26.0465 30.0776 -4.0311
93.6 30.1724 30.0802 0.0922
93.65 28.2541 30.0828 -1.8287
93.7 28.5781 30.0855 -1.5074
93.75 24.4553 30.0882 -5.6329
93.8 31.0314 30.091 0.9404
93.85 42.1737 30.0938 12.0799
93.9 23.0051 30.0967 -7.0916
93.95 29.0472 30.0996 -1.0524
94 25.3655 30.1025 -4.737
94.05 29.3285 30.1055 -0.777
94.1 26.8098 30.1085 -3.2987
94.15 32.3446 30.1115 2.2331
94.2 33.3098 30.1146 3.1952
94.25 25.9572 30.1177 -4.1605
94.3 30.8598 30.1209 0.7389
94.35 24.9628 30.1241 -5.1613
94.4 33.7319 30.1273 3.6046
94.45 27.2931 30.1305 -2.8374
94.5 26.9943 30.1338 -3.1395
94.55 44.23 30.1371 14.0929
94.6 25.5349 30.1405 -4.6056
94.65 23.2176 30.1439 -6.9263
94.7 25.8229 30.1473 -4.3244
94.75 31.4882 30.1508 1.3374
94.8 26.0633 30.1543 -4.091
94.85 28.7292 30.1579 -1.4287
94.9 31.8774 30.1615 1.7159
94.95 34.3611 30.1651 4.196
95 26.236 30.1688 -3.9328
95.05 28.347 30.1726 -1.8256
95.1 38.6055 30.1763 8.4292
95.15 24.936 30.1802 -5.2442
95.2 31.371 30.1841 1.1869
95.25 33.2018 30.1881 3.0137
95.3 28.3039 30.1921 -1.8882
95.35 35.1319 30.1962 4.9357
95.4 29.3675 30.2003 -0.8328
95.45 34.5646 30.2046 4.36
95.5 34.0903 30.2088 3.8815
95.55 31.0517 30.2132 0.8385
95.6 24.2469 30.2176 -5.9707
95.65 38.1992 30.2222 7.977
95.7 31.4595 30.2267 1.2328
95.75 36.4673 30.2314 6.2359
95.8 24.4644 30.2361 -5.7717
95.85 18.6621 30.241 -11.5789
95.9 34.0826 30.2459 3.8367
95.95 34.6744 30.251 4.4234
96 24.4358 30.2561 -5.8203
96.05 33.2158 30.2614 2.9544
96.1 23.9111 30.2667 -6.3556
96.15 25.1102 30.2723 -5.1621
96.2 20.5252 30.2779 -9.7527
96.25 26.7999 30.2839 -3.484
96.3 37.039 30.2898 6.7492
96.35 25.6341 30.2962 -4.6621
96.4 22.26 30.3026 -8.0426
96.45 29.6223 30.3094 -0.6871
96.5 32.2977 30.3163 1.9814
96.55 30.3435 30.3239 0.0196
96.6 40.7516 30.3314 10.4202
96.65 41.4437 30.3397 11.104
96.7 32.5396 30.3481 2.1915
96.75 38.1167 30.3575 7.7592
96.8 30.1782 30.367 -0.1888
96.85 32.28 30.3778 1.9022
96.9 39.5038 30.3887 9.1151
96.95 31.9514 30.4015 1.5499
97 37.1741 30.4142 6.7599
97.05 31.2335 30.4297 0.8038
97.1 32.976 30.4452 2.5308
97.15 25.8214 30.4647 -4.6433
97.2 27.8998 30.4842 -2.5844
97.25 29.3423 30.5116 -1.1693
97.3 36.2371 30.539 5.6981
97.35 31.3338 30.5889 0.7449
97.4 26.5807 30.6387 -4.058
97.45 31.0708 30.6926 0.3782
97.5 32.5829 30.7465 1.8364
97.55 30.8944 30.8098 0.0846
97.6 31.6593 30.873 0.7863
97.65 30.4614 30.9602 -0.4988
97.7 32.2741 31.0473 1.2268
97.75 32.395 31.1746 1.2204
97.8 26.3563 31.3019 -4.9456
97.85 31.7281 31.4984 0.2297
97.9 27.669 31.695 -4.026
97.95 32.8093 32.0199 0.7894
98 29.3902 32.3448 -2.9546
98.05 40.9557 32.9339 8.0218
98.1 34.0194 33.5229 0.4965
98.15 30.7108 34.7482 -4.0374
98.2 29.0278 35.9735 -6.9457
98.25 42.3133 38.3259 3.9874
98.3 49.2349 42.4357 6.7992
98.35 65.6647 50.5047 15.16
98.4 77.2636 67.8446 9.419
98.45 107.625 102.532 5.093
98.5 158.086 151.777 6.309
98.55 164.085 182.404 -18.319
98.6 121.742 160.417 -38.675
98.65 93.9584 110.108 -16.1496
98.7 66.7557 72.7955 -6.0398
98.75 54.6896 54.5551 0.1345
98.8 46.7055 45.0458 1.6597
98.85 46.4848 40.2753 6.2095
98.9 38.6701 37.4641 1.206
98.95 40.3194 35.9699 4.3495
99 39.3977 34.4756 4.9221
99.05 39.3143 33.7498 5.5645
99.1 41.2685 33.024 8.2445
99.15 26.2152 32.6243 -6.4091
99.2 29.2371 32.2246 -2.9875
99.25 32.3366 31.9851 0.3515
99.3 30.7442 31.7456 -1.0014
99.35 36.226 31.5931 4.6329
99.4 27.7866 31.4406 -3.654
99.45 25.6293 31.3385 -5.7092
99.5 34.1215 31.2365 2.885
99.55 33.1587 31.1639 1.9948
99.6 28.1522 31.0914 -2.9392
99.65 28.8748 31.0272 -2.1524
99.7 32.2921 30.963 1.3291
99.75 31.0141 30.8916 0.1225
99.8 30.1411 30.8203 -0.6792
99.85 25.8175 30.7925 -4.975
99.9 14.7164 30.7646 -16.0482
99.95 25.5423 30.751 -5.2087
100 25.6895 30.7374 -5.0479
100.05 26.4604 30.7294 -4.269
100.1 28.2009 30.7215 -2.5206
100.15 40.6651 30.7169 9.9482
100.2 28.208 30.7123 -2.5043
100.25 31.3973 30.7099 0.6874
100.3 31.5272 30.7075 0.8197
100.35 18.0209 30.7067 -12.6858
100.4 22.7795 30.706 -7.9265
100.45 38.5646 30.7064 7.8582
100.5 28.8079 30.7068 -1.8989
100.55 37.3617 30.7081 6.6536
100.6 43.888 30.7094 13.1786
100.65 32.0846 30.7114 1.3732
100.7 22.3617 30.7134 -8.3517
100.75 25.7262 30.7159 -4.9897
100.8 34.7152 30.7185 3.9967
100.85 24.8457 30.7214 -5.8757
100.9 24.9265 30.7244 -5.7979
100.95 31.967 30.7276 1.2394
101 29.8097 30.7309 -0.9212
101.05 21.4698 30.7345 -9.2647
101.1 29.7765 30.738 -0.9615
101.15 30.2998 30.7418 -0.442
101.2 24.8191 30.7455 -5.9264
101.25 29.8173 30.7495 -0.9322
101.3 36.662 30.7534 5.9086
101.35 40.8045 30.7574 10.0471
101.4 30.3958 30.7615 -0.3657
101.45 31.5958 30.7656 0.8302
101.5 28.9453 30.7698 -1.8245
101.55 29.6314 30.774 -1.1426
101.6 34.6348 30.7783 3.8565
101.65 33.2215 30.7826 2.4389
101.7 22.3913 30.7869 -8.3956
101.75 30.5829 30.7913 -0.2084
101.8 33.2032 30.7958 2.4074
101.85 27.3414 30.8002 -3.4588
101.9 33.5473 30.8046 2.7427
101.95 28.7832 30.809 -2.0258
102 37.4577 30.8135 6.6442
102.05 24.3556 30.8179 -6.4623
102.1 38.0925 30.8224 7.2701
102.15 31.3689 30.8269 0.542
102.2 28.7415 30.8314 -2.0899
102.25 30.0231 30.8359 -0.8128
102.3 27.9953 30.8405 -2.8452
102.35 32.2376 30.845 1.3926
102.4 37.3748 30.8496 6.5252
102.45 32.8213 30.8542 1.9671
102.5 31.8806 30.8587 1.0219
102.55 23.4348 30.8633 -7.4285
102.6 36.3112 30.8679 5.4433
102.65 31.5849 30.8725 0.7124
102.7 36.4369 30.8772 5.5597
102.75 23.3518 30.8818 -7.53
102.8 36.1508 30.8864 5.2644
102.85 32.5992 30.891 1.7082
102.9 30.3152 30.8956 -0.5804
102.95 23.7787 30.9003 -7.1216
103 30.2863 30.9049 -0.6186
103.05 23.8168 30.9095 -7.0927
103.1 26.7309 30.9141 -4.1832
103.15 29.2947 30.9186 -1.6239
103.2 21.6642 30.9232 -9.259
103.25 34.3208 30.9278 3.393
103.3 32.5145 30.9323 1.5822
103.35 31.27 30.9368 0.3332
103.4 27.5009 30.9413 -3.4404
103.45 33.4463 30.9458 2.5005
103.5 28.8411 30.9502 -2.1091
103.55 37.3704 30.9547 6.4157
103.6 37.3112 30.9591 6.3521
103.65 19.6636 30.9635 -11.2999
103.7 31.3511 30.9679 0.3832
103.75 29.7747 30.9722 -1.1975
103.8 40.1446 30.9765 9.1681
103.85 33.5878 30.9809 2.6069
103.9 30.6302 30.9852 -0.355
103.95 25.0871 30.9895 -5.9024
104 29.1095 30.9937 -1.8842
104.05 32.5763 30.998 1.5783
104.1 28.4754 31.0023 -2.5269
104.15 32.314 31.0065 1.3075
104.2 24.0603 31.0107 -6.9504
104.25 24.5976 31.015 -6.4174
104.3 24.0466 31.0192 -6.9726
104.35 30.4942 31.0234 -0.5292
104.4 33.1113 31.0276 2.0837
104.45 31.1413 31.0318 0.1095
104.5 29.4827 31.036 -1.5533
104.55 27.841 31.0401 -3.1991
104.6 27.5554 31.0443 -3.4889
104.65 33.4087 31.0485 2.3602
104.7 28.0592 31.0526 -2.9934
104.75 39.7135 31.0567 8.6568
104.8 30.157 31.0608 -0.9038
104.85 28.3307 31.0649 -2.7342
104.9 31.9626 31.069 0.8936
104.95 32.2332 31.073 1.1602
105 36.179 31.0771 5.1019
105.05 33.8403 31.081 2.7593
105.1 20.5028 31.085 -10.5822
105.15 23.659 31.0889 -7.4299
105.2 25.4177 31.0928 -5.6751
105.25 24.5768 31.0967 -6.5199
105.3 47.8034 31.1005 16.7029
105.35 31.8968 31.1043 0.7925
105.4 30.2682 31.1081 -0.8399
105.45 22.1823 31.1118 -8.9295
105.5 32.2846 31.1155 1.1691
105.55 34.2099 31.1191 3.0908
105.6 29.1323 31.1228 -1.9905
105.65 36.6489 31.1263 5.5226
105.7 24.6602 31.1299 -6.4697
105.75 30.2392 31.1334 -0.8942
105.8 41.0399 31.1369 9.903
105.85 33.2075 31.1404 2.0671
105.9 31.1884 31.1439 0.0445
105.95 29.2881 31.1473 -1.8592
106 30.0526 31.1507 -1.0981
106.05 28.9448 31.1541 -2.2093
106.1 32.592 31.1574 1.4346
106.15 39.2577 31.1608 8.0969
106.2 30.4587 31.1641 -0.7054
106.25 22.9159 31.1674 -8.2515
106.3 25.4471 31.1707 -5.7236
106.35 30.1759 31.1739 -0.998
106.4 25.3586 31.1772 -5.8186
106.45 37.0269 31.1804 5.8465
106.5 29.5677 31.1837 -1.616
106.55 24.0986 31.1869 -7.0883
106.6 27.1094 31.19 -4.0806
106.65 33.065 31.1932 1.8718
106.7 22.7337 31.1963 -8.4626
106.75 25.0386 31.1994 -6.1608
106.8 32.5213 31.2025 1.3188
106.85 42.4148 31.2055 11.2093
106.9 33.0406 31.2086 1.832
106.95 19.9612 31.2115 -11.2503
107 30.1869 31.2145 -1.0276
107.05 26.883 31.2174 -4.3344
107.1 32.3372 31.2202 1.117
107.15 30.3917 31.223 -0.8313
107.2 33.2543 31.2258 2.0285
107.25 26.2107 31.2285 -5.0178
107.3 27.8379 31.2312 -3.3933
107.35 39.5417 31.2338 8.3079
107.4 30.3203 31.2364 -0.9161
107.45 23.7611 31.2389 -7.4778
107.5 29.4208 31.2415 -1.8207
107.55 43.2115 31.2439 11.9676
107.6 35.4331 31.2463 4.1868
107.65 30.8483 31.2486 -0.4003
107.7 31.0412 31.251 -0.2098
107.75 26.6225 31.2532 -4.6307
107.8 34.8284 31.2555 3.5729
107.85 21.9938 31.2577 -9.2639
107.9 29.4716 31.2598 -1.7882
107.95 34.1374 31.262 2.8754
108 24.747 31.2641 -6.5171
108.05 25.4663 31.2661 -5.7998
108.1 33.1906 31.2682 1.9224
108.15 28.739 31.2702 -2.5312
108.2 30.4793 31.2722 -0.7929
108.25 36.4603 31.2742 5.1861
108.3 25.5883 31.2761 -5.6878
108.35 36.0859 31.2781 4.8078
108.4 28.1225 31.28 -3.1575
108.45 27.3882 31.2818 -3.8936
108.5 36.2926 31.2837 5.0089
108.55 34.5161 31.2855 3.2306
108.6 28.9504 31.2873 -2.3369
108.65 28.7996 31.2891 -2.4895
108.7 28.5942 31.2908 -2.6966
108.75 22.3512 31.2925 -8.9413
108.8 31.4623 31.2942 0.1681
108.85 18.2313 31.2959 -13.0646
108.9 32.4101 31.2975 1.1126
108.95 27.4914 31.299 -3.8076
109 36.4583 31.3005 5.1578
109.05 29.3179 31.302 -1.9841
109.1 33.447 31.3034 2.1436
109.15 31.5662 31.3048 0.2614
109.2 25.1733 31.3061 -6.1328
109.25 27.6689 31.3073 -3.6384
109.3 31.5854 31.3086 0.2768
109.35 24.4339 31.3097 -6.8758
109.4 45.9657 31.3108 14.6549
109.45 26.9969 31.3119 -4.315
109.5 24.9872 31.3129 -6.3257
109.55 30.4186 31.3139 -0.8953
109.6 35.1777 31.3149 3.8628
109.65 37.8526 31.3157 6.5369
109.7 35.3243 31.3166 4.0077
109.75 24.5506 31.3175 -6.7669
109.8 30.2873 31.3183 -1.031
109.85 37.6269 31.3191 6.3078
109.9 31.8161 31.3199 0.4962
109.95 40.1869 31.3206 8.8663
110 26.8589 31.3213 -4.4624
110.05 24.5953 31.322 -6.7267
110.1 37.4929 31.3227 6.1702
110.15 28.548 31.3234 -2.7754
110.2 39.5942 31.3241 8.2701
110.25 31.6544 31.3248 0.3296
110.3 32.7278 31.3255 1.4023
110.35 36.5711 31.3262 5.2449
110.4 25.5446 31.3269 -5.7823
110.45 28.0415 31.3276 -3.2861
110.5 17.8738 31.3283 -13.4545
110.55 32.5676 31.329 1.2386
110.6 32.2694 31.3297 0.9397
110.65 31.0568 31.3304 -0.2736
110.7 34.0822 31.3311 2.7511
110.75 29.6649 31.3318 -1.6669
110.8 28.784 31.3325 -2.5485
110.85 26.51 31.3332 -4.8232
110.9 28.1733 31.3339 -3.1606
110.95 29.8926 31.3347 -1.4421
111 26.3761 31.3354 -4.9593
111.05 22.5969 31.3361 -8.7392
111.1 43.6945 31.3368 12.3577
111.15 32.8355 31.3375 1.498
111.2 25.7457 31.3382 -5.5925
111.25 22.2707 31.339 -9.0683
111.3 29.7773 31.3397 -1.5624
111.35 29.754 31.3404 -1.5864
111.4 31.5542 31.3411 0.2131
111.45 31.502 31.3418 0.1602
111.5 35.2784 31.3425 3.9359
111.55 42.8003 31.3432 11.4571
111.6 33.5212 31.344 2.1772
111.65 31.9155 31.3447 0.5708
111.7 32.0134 31.3455 0.6679
111.75 38.7742 31.3463 7.4279
111.8 43.4378 31.3471 12.0907
111.85 27.9115 31.348 -3.4365
111.9 34.7915 31.3489 3.4426
111.95 28.7169 31.3499 -2.633
112 25.6224 31.3509 -5.7285
112.05 21.2665 31.3521 -10.0856
112.1 32.1454 31.3533 0.7921
112.15 26.1801 31.3546 -5.1745
112.2 26.9238 31.3559 -4.4321
112.25 20.0866 31.3575 -11.2709
112.3 26.4171 31.3591 -4.942
112.35 26.5352 31.3609 -4.8257
112.4 29.5635 31.3628 -1.7993
112.45 33.2016 31.365 1.8366
112.5 23.8618 31.3672 -7.5054
112.55 27.6195 31.3698 -3.7503
112.6 22.603 31.3723 -8.7693
112.65 46.0276 31.3754 14.6522
112.7 32.8583 31.3784 1.4799
112.75 39.8393 31.3821 8.4572
112.8 34.6707 31.3857 3.285
112.85 33.5521 31.3899 2.1622
112.9 32.8823 31.3942 1.4881
112.95 36.1931 31.3992 4.7939
113 34.697 31.4042 3.2928
113.05 40.8182 31.4101 9.4081
113.1 42.1753 31.416 10.7593
113.15 28.9085 31.423 -2.5145
113.2 27.7728 31.43 -3.6572
113.25 32.4429 31.4384 1.0045
113.3 22.3444 31.4467 -9.1023
113.35 23.6251 31.4566 -7.8315
113.4 33.2653 31.4665 1.7988
113.45 15.7559 31.4783 -15.7224
113.5 33.6749 31.4902 2.1847
113.55 38.1278 31.5044 6.6234
113.6 41.5857 31.5186 10.0671
113.65 37.0265 31.5358 5.4907
113.7 31.7329 31.553 0.1799
113.75 38.6568 31.574 7.0828
113.8 35.0842 31.5949 3.4893
113.85 39.5486 31.6206 7.928
113.9 31.18 31.6462 -0.4662
113.95 31.8867 31.6778 0.2089
114 24.3598 31.7094 -7.3496
114.05 32.7674 31.7488 1.0186
114.1 34.8053 31.7881 3.0172
114.15 37.4061 31.8374 5.5687
114.2 20.6629 31.8868 -11.2239
114.25 27.4558 31.9493 -4.4935
114.3 26.0644 32.0119 -5.9475
114.35 31.0237 32.0921 -1.0684
114.4 32.4723 32.1723 0.3
114.45 23.1793 32.2767 -9.0974
114.5 33.1923 32.381 0.8113
114.55 31.9218 32.5186 -0.5968
114.6 40.1448 32.6563 7.4885
114.65 32.8922 32.8393 0.0529
114.7 26.337 33.0224 -6.6854
114.75 31.5457 33.2656 -1.7199
114.8 28.2188 33.5087 -5.2899
114.85 34.2958 33.8333 0.4625
114.9 27.9473 34.1578 -6.2105
114.95 39.3135 34.601 4.7125
115 34.4818 35.0441 -0.5623
115.05 24.9733 35.6677 -10.6944
115.1 33.9105 36.2913 -2.3808
115.15 36.0263 37.1969 -1.1706
115.2 31.5809 38.1024 -6.5215
115.25 23.1328 39.4625 -16.3297
115.3 36.9292 40.8225 -3.8933
115.35 30.6335 42.9397 -12.3062
115.4 30.7733 45.0569 -14.2836
115.45 31.4679 48.4667 -16.9988
115.5 43.9295 51.8766 -7.9471
115.55 44.0997 56.7796 -12.6799
115.6 48.6959 63.0423 -14.3464
115.65 50.9215 71.0192 -20.0977
115.7 68.4009 80.5067 -12.1058
115.75 80.0457 91.448 -11.4023
115.8 87.4154 102.621 -15.2056
115.85 108.34 112.05 -3.71
115.9 114.964 117.54 -2.576
115.95 111.781 117.367 -5.586
116 110.061 111.637 -1.576
116.05 74.3215 102.034 -27.7125
116.1 83.3512 90.8733 -7.5221
116.15 52.3882 80.1344 -27.7462
116.2 53.7732 70.6168 -16.8436
116.25 59.2505 62.9574 -3.7069
116.3 48.9904 56.7072 -7.7168
116.35 37.7604 51.8739 -14.1135
116.4 44.7448 48.0924 -3.3476
116.45 44.5544 45.1233 -0.5689
116.5 41.3989 42.7758 -1.3769
116.55 38.7895 41.0869 -2.2974
116.6 39.4379 39.3981 0.0398
116.65 41.0524 38.2856 2.7668
116.7 35.6447 37.1732 -1.5285
116.75 34.0139 36.414 -2.4001
116.8 34.625 35.6549 -1.0299
116.85 28.1266 35.1192 -6.9926
116.9 36.8206 34.5836 2.237
116.95 38.2873 34.1935 4.0938
117 32.3403 33.8033 -1.463
117.05 32.6283 33.5113 -0.883
117.1 25.1036 33.2192 -8.1156
117.15 36.743 32.9978 3.7452
117.2 37.042 32.7764 4.2656
117.25 40.1036 32.6086 7.495
117.3 35.856 32.4407 3.4153
117.35 23.5379 32.3126 -8.7747
117.4 26.6804 32.1844 -5.504
117.45 37.9505 32.0851 5.8654
117.5 30.7395 31.9857 -1.2462
117.55 35.0938 31.9074 3.1864
117.6 27.8784 31.8291 -3.9507
117.65 21.865 31.7663 -9.9013
117.7 27.1333 31.7036 -4.5703
117.75 29.7791 31.6527 -1.8736
117.8 26.9631 31.6018 -4.6387
117.85 37.1777 31.5599 5.6178
117.9 33.9041 31.5181 2.386
117.95 24.077 31.4832 -7.4062
118 34.3687 31.4484 2.9203
118.05 33.6657 31.4191 2.2466
118.1 29.6958 31.3898 -1.694
118.15 36.0538 31.3648 4.689
118.2 31.4648 31.3399 0.1249
118.25 24.6331 31.3184 -6.6853
118.3 32.9109 31.297 1.6139
118.35 35.8107 31.2783 4.5324
118.4 36.4233 31.2597 5.1636
118.45 33.5419 31.2433 2.2986
118.5 22.7065 31.227 -8.5205
118.55 27.8921 31.2125 -3.3204
118.6 24.1224 31.198 -7.0756
118.65 24.8033 31.185 -6.3817
118.7 38.614 31.1721 7.4419
118.75 30.7473 31.1604 -0.4131
118.8 21.9899 31.1487 -9.1588
118.85 35.4974 31.1381 4.3593
118.9 42.3674 31.1275 11.2399
118.95 33.0889 31.1177 1.9712
119 31.9512 31.108 0.8432
119.05 28.3764 31.0991 -2.7227
119.1 26.8362 31.0901 -4.2539
119.15 30.4222 31.0818 -0.6596
119.2 30.5164 31.0735 -0.5571
119.25 26.7586 31.0658 -4.3072
119.3 23.0958 31.058 -7.9622
119.35 38.609 31.0508 7.5582
119.4 24.915 31.0435 -6.1285
119.45 29.4472 31.0367 -1.5895
119.5 36.0986 31.0299 5.0687
119.55 24.9215 31.0234 -6.1019
119.6 28.9165 31.017 -2.1005
119.65 34.2062 31.0108 3.1954
119.7 29.0564 31.0047 -1.9483
119.75 36.7448 30.9988 5.746
119.8 28.1931 30.993 -2.7999
119.85 37.5816 30.9874 6.5942
119.9 43.7739 30.9818 12.7921
119.95 33.177 30.9764 2.2006
120 26.3266 30.9709 -4.6443
120.05 29.3829 30.9657 -1.5828
120.1 36.9532 30.9605 5.9927
120.15 31.245 30.9554 0.2896
120.2 26.8142 30.9503 -4.1361
120.25 28.3821 30.9453 -2.5632
120.3 44.2413 30.9404 13.3009
120.35 33.5009 30.9355 2.5654
120.4 33.0259 30.9306 2.0953
120.45 33.8414 30.9258 2.9156
120.5 37.6885 30.921 6.7675
120.55 38.5202 30.9163 7.6039
120.6 35.9567 30.9116 5.0451
120.65 33.2007 30.9069 2.2938
120.7 27.9921 30.9022 -2.9101
120.75 35.2931 30.8975 4.3956
120.8 27.6556 30.8929 -3.2373
120.85 25.4616 30.8882 -5.4266
120.9 33.5348 30.8836 2.6512
120.95 31.4086 30.879 0.5296
121 31.5002 30.8744 0.6258
121.05 30.4466 30.8698 -0.4232
121.1 37.9321 30.8652 7.0669
121.15 39.2278 30.8607 8.3671
121.2 35.0821 30.8561 4.226
121.25 29.4356 30.8516 -1.416
121.3 23.0441 30.847 -7.8029
121.35 28.7597 30.8425 -2.0828
121.4 19.8492 30.838 -10.9888
121.45 31.5735 30.8336 0.7399
121.5 35.0162 30.8291 4.1871
121.55 29.2013 30.8246 -1.6233
121.6 25.2284 30.8202 -5.5918
121.65 23.2508 30.8158 -7.565
121.7 29.7184 30.8114 -1.093
121.75 27.2303 30.807 -3.5767
121.8 36.957 30.8027 6.1543
121.85 35.3207 30.7984 4.5223
121.9 32.9284 30.794 2.1344
121.95 35.8497 30.7898 5.0599
122 31.416 30.7855 0.6305
122.05 22.422 30.7813 -8.3593
122.1 37.4013 30.777 6.6243
122.15 25.6905 30.7728 -5.0823
122.2 32.779 30.7686 2.0104
122.25 31.8354 30.7645 1.0709
122.3 27.2452 30.7603 -3.5151
122.35 22.6426 30.7562 -8.1136
122.4 26.5401 30.7521 -4.212
122.45 28.055 30.748 -2.693
122.5 27.5229 30.7439 -3.221
122.55 24.7023 30.7398 -6.0375
122.6 31.534 30.7357 0.7983
122.65 33.6627 30.7316 2.9311
122.7 31.3315 30.7275 0.604
122.75 41.8037 30.7235 11.0802
122.8 25.4925 30.7194 -5.2269
122.85 26.1792 30.7153 -4.5361
122.9 28.6337 30.7112 -2.0775
122.95 39.8707 30.7071 9.1636
123 30.3803 30.703 -0.3227
123.05 34.1255 30.6989 3.4266
123.1 33.1897 30.6948 2.4949
123.15 21.7719 30.6906 -8.9187
123.2 29.6942 30.6865 -0.9923
123.25 37.4173 30.6823 6.735
123.3 31.9857 30.6781 1.3076
123.35 24.7408 30.6739 -5.9331
123.4 36.3778 30.6697 5.7081
123.45 30.9067 30.6655 0.2412
123.5 26.6463 30.6613 -4.015
123.55 22.6434 30.6571 -8.0137
123.6 33.639 30.6529 2.9861
123.65 34.1829 30.6487 3.5342
123.7 25.0275 30.6444 -5.6169
123.75 29.2178 30.6402 -1.4224
123.8 22.8117 30.636 -7.8243
123.85 38.6781 30.6317 8.0464
123.9 36.4845 30.6275 5.857
123.95 24.0304 30.6233 -6.5929
124 27.3428 30.6191 -3.2763
124.05 35.7968 30.6149 5.1819
124.1 44.5659 30.6107 13.9552
124.15 30.2862 30.6065 -0.3203
124.2 33.8518 30.6023 3.2495
124.25 17.3167 30.5982 -13.2815
124.3 30.8406 30.594 0.2466
124.35 24.9621 30.5899 -5.6278
124.4 25.1455 30.5858 -5.4403
124.45 20.6193 30.5817 -9.9624
124.5 35.227 30.5776 4.6494
124.55 29.8687 30.5736 -0.7049
124.6 29.3794 30.5695 -1.1901
124.65 29.4785 30.5655 -1.087
124.7 32.1964 30.5614 1.635
124.75 30.1785 30.5574 -0.3789
124.8 23.7131 30.5534 -6.8403
124.85 29.0264 30.5494 -1.523
124.9 32.826 30.5455 2.2805
124.95 30.9612 30.5415 0.4197
125 31.8072 30.5375 1.2697
125.05 28.5798 30.5336 -1.9538
125.1 30.0773 30.5296 -0.4523
125.15 30.2488 30.5257 -0.2769
125.2 34.0662 30.5217 3.5445
125.25 21.699 30.5178 -8.8188
125.3 28.5267 30.5138 -1.9871
125.35 30.4546 30.5099 -0.0553
125.4 32.5739 30.5059 2.068
125.45 32.9924 30.5019 2.4905
125.5 41.6797 30.498 11.1817
125.55 23.6287 30.494 -6.8653
125.6 25.6995 30.49 -4.7905
125.65 20.2524 30.4861 -10.2337
125.7 29.4351 30.4821 -1.047
125.75 28.1907 30.4781 -2.2874
125.8 30.4944 30.4741 0.0203
125.85 27.5518 30.4701 -2.9183
125.9 22.1127 30.4661 -8.3534
125.95 20.333 30.462 -10.129
126 37.6771 30.458 7.2191
126.05 32.8972 30.454 2.4432
126.1 25.606 30.45 -4.844
126.15 21.7135 30.4459 -8.7324
126.2 30.1835 30.4419 -0.2584
126.25 34.1182 30.4379 3.6803
126.3 36.8337 30.4339 6.3998
126.35 34.4554 30.4298 4.0256
126.4 21.7164 30.4258 -8.7094
126.45 33.1319 30.4218 2.7101
126.5 27.8678 30.4178 -2.55
126.55 29.9054 30.4138 -0.5084
126.6 29.9069 30.4098 -0.5029
126.65 33.4483 30.4058 3.0425
126.7 30.8655 30.4019 0.4636
126.75 40.6392 30.3979 10.2413
126.8 22.3186 30.394 -8.0754
126.85 25.554 30.3901 -4.8361
126.9 26.3833 30.3861 -4.0028
126.95 21.2039 30.3823 -9.1784
127 24.351 30.3784 -6.0274
127.05 27.2139 30.3745 -3.1606
127.1 24.0591 30.3707 -6.3116
127.15 30.0862 30.3669 -0.2807
127.2 24.6364 30.3631 -5.7267
127.25 30.4829 30.3593 0.1236
127.3 30.0822 30.3555 -0.2733
127.35 23.4667 30.3517 -6.885
127.4 36.4908 30.348 6.1428
127.45 23.8501 30.3443 -6.4942
127.5 40.2129 30.3406 9.8723
127.55 39.6479 30.3369 9.311
127.6 21.3204 30.3332 -9.0128
127.65 34.0361 30.3295 3.7066
127.7 23.4746 30.3258 -6.8512
127.75 34.9262 30.3222 4.604
127.8 19.9038 30.3185 -10.4147
127.85 16.033 30.3149 -14.2819
127.9 24.8987 30.3112 -5.4125
127.95 30.3202 30.3076 0.0126
128 38.8016 30.304 8.4976
128.05 47.3451 30.3004 17.0447
128.1 43.3068 30.2967 13.0101
128.15 37.2383 30.2931 6.9452
128.2 32.7545 30.2895 2.465
128.25 33.9538 30.2859 3.6679
128.3 36.1826 30.2823 5.9003
128.35 39.1068 30.2787 8.8281
128.4 33.7037 30.275 3.4287
128.45 24.7895 30.2714 -5.4819
128.5 39.4812 30.2678 9.2134
128.55 34.7766 30.2642 4.5124
128.6 41.8434 30.2606 11.5828
128.65 35.1221 30.257 4.8651
128.7 24.2698 30.2534 -5.9836
128.75 32.0283 30.2498 1.7785
128.8 27.5839 30.2462 -2.6623
128.85 36.7251 30.2426 6.4825
128.9 37.6768 30.239 7.4378
128.95 38.5532 30.2354 8.3178
129 31.3017 30.2319 1.0698
129.05 33.9382 30.2283 3.7099
129.1 29.6785 30.2247 -0.5462
129.15 39.6996 30.2212 9.4784
129.2 38.8396 30.2177 8.6219
129.25 38.4933 30.2142 8.2791
129.3 28.42 30.2107 -1.7907
129.35 24.1934 30.2072 -6.0138
129.4 33.826 30.2037 3.6223
129.45 37.5665 30.2003 7.3662
129.5 27.4172 30.1968 -2.7796
129.55 19.4975 30.1934 -10.6959
129.6 32.6358 30.19 2.4458
129.65 30.1455 30.1867 -0.0412
129.7 41.2981 30.1833 11.1148
129.75 31.8841 30.18 1.7041
129.8 24.8126 30.1767 -5.3641
129.85 21.3387 30.1734 -8.8347
129.9 32.0718 30.1701 1.9017
129.95 26.5806 30.1817 -3.6011
130 9.3164 30.1933 -20.8769
