
#Surface 0 of 1 surfaces

#IsoCurve 0, 1801 points
#x y z type
 40  25.2957  31.1872 i
 40.05  37.9833  31.1859 i
 40.1  35.5871  31.1847 i
 40.15  37.3764  31.1835 i
 40.2  24.3782  31.1824 i
 40.25  41.7844  31.1813 i
 40.3  40.7495  31.1803 i
 40.35  53.8708  31.1793 i
 40.4  42.2324  31.1784 i
 40.45  37.7315  31.1775 i
 40.5  35.7025  31.1767 i
 40.55  39.7795  31.176 i
 40.6  48.5985  31.1753 i
 40.65  34.9289  31.1748 i
 40.7  37.3601  31.1743 i
 40.75  37.0629  31.1741 i
 40.8  36.795  31.1738 i
 40.85  26.8824  31.1739 i
 40.9  36.4758  31.1739 i
 40.95  49.8512  31.1742 i
 41  40.1224  31.1746 i
 41.05  51.2621  31.1753 i
 41.1  30.076  31.1763 i
 41.15  48.2889  31.1776 i
 41.2  41.0521  31.1789 i
 41.25  44.8834  31.1808 i
 41.3  32.733  31.1827 i
 41.35  48.192  31.1851 i
 41.4  55.3922  31.1879 i
 41.45  39.9454  31.191 i
 41.5  40.0106  31.1946 i
 41.55  42.8857  31.1988 i
 41.6  41.4091  31.2031 i
 41.65  32.8836  31.2083 i
 41.7  37.1235  31.2136 i
 41.75  47.0807  31.22 i
 41.8  30.3644  31.2265 i
 41.85  28.2611  31.2342 i
 41.9  34.0152  31.242 i
 41.95  49.9192  31.2509 i
 42  42.9154  31.2607 i
 42.05  48.6284  31.2714 i
 42.1  37.0607  31.2832 i
 42.15  30.7486  31.2966 i
 42.2  50.2337  31.3101 i
 42.25  31.2721  31.3263 i
 42.3  31.0027  31.3426 i
 42.35  26.9322  31.3622 i
 42.4  39.9449  31.3818 i
 42.45  48.2925  31.4045 i
 42.5  38.872  31.4295 i
 42.55  40.7742  31.4587 i
 42.6  46.6312  31.488 i
 42.65  30.5005  31.5241 i
 42.7  43.0374  31.5602 i
 42.75  31.3911  31.6053 i
 42.8  31.2382  31.6504 i
 42.85  37.2316  31.7076 i
 42.9  42.0958  31.7647 i
 42.95  41.267  31.8386 i
 43  33.7665  31.9125 i
 43.05  38.1774  32.0128 i
 43.1  40.3369  32.1131 i
 43.15  42.4581  32.3245 i
 43.2  42.5018  32.5358 i
 43.25  34.003  32.9303 i
 43.3  37.4905  33.3248 i
 43.35  49.7251  33.6053 i
 43.4  36.1402  33.9221 i
 43.45  40.8593  34.3245 i
 43.5  32.9778  34.7269 i
 43.55  56.2121  35.248 i
 43.6  31.8406  35.8782 i
 43.65  50.2046  36.6497 i
 43.7  41.1164  37.6074 i
 43.75  40.0491  38.9877 i
 43.8  41.6839  40.368 i
 43.85  33.7421  42.7661 i
 43.9  45.0002  45.1642 i
 43.95  58.251  49.1141 i
 44  71.0404  54.6592 i
 44.05  66.163  63.5084 i
 44.1  85.9424  79.1911 i
 44.15  96.8245  114.449 i
 44.2  151.518  211.087 i
 44.25  394.813  488.903 i
 44.3  1254.88  1111.2 i
 44.35  2097.42  2004.55 i
 44.4  2351.34  2517.87 i
 44.45  1429.92  1545.1 i
 44.5  487.381  423.174 i
 44.55  205.611  162.98 i
 44.6  97.489  98.8637 i
 44.65  65.1813  72.7385 i
 44.7  69.7432  59.2351 i
 44.75  52.662  51.3072 i
 44.8  33.0692  46.2494 i
 44.85  49.7394  42.826 i
 44.9  41.9836  40.4029 i
 44.95  50.8668  38.6268 i
 45  41.2694  37.2877 i
 45.05  39.332  36.2542 i
 45.1  53.9819  35.4408 i
 45.15  26.8388  34.8511 i
 45.2  44.8243  34.2613 i
 45.25  33.4605  33.8633 i
 45.3  34.6026  33.4652 i
 45.35  37.9299  33.1846 i
 45.4  44.1911  32.9039 i
 45.45  32.7102  32.6981 i
 45.5  36.4211  32.4922 i
 45.55  29.4217  32.3153 i
 45.6  33.5469  32.1384 i
 45.65  30.8203  31.9765 i
 45.7  42.1216  31.8146 i
 45.75  39.503  31.7165 i
 45.8  51.1851  31.6311 i
 45.85  34.7235  31.5594 i
 45.9  30.5375  31.4877 i
 45.95  48.3024  31.4297 i
 46  31.7939  31.3718 i
 46.05  28.0065  31.324 i
 46.1  29.2908  31.2762 i
 46.15  30.6729  31.2363 i
 46.2  37.1713  31.1963 i
 46.25  39.4329  31.1624 i
 46.3  37.3077  31.1285 i
 46.35  45.4028  31.0993 i
 46.4  32.7209  31.0702 i
 46.45  35.7602  31.0448 i
 46.5  35.6727  31.0195 i
 46.55  48.0373  30.9972 i
 46.6  30.9848  30.9749 i
 46.65  36.985  30.9551 i
 46.7  25.6139  30.9353 i
 46.75  21.4292  30.9176 i
 46.8  37.9971  30.8998 i
 46.85  35.2434  30.8838 i
 46.9  36.5146  30.8678 i
 46.95  28.242  30.8533 i
 47  21.9178  30.8388 i
 47.05  38.3327  30.8255 i
 47.1  34.9492  30.8122 i
 47.15  39.2454  30.8 i
 47.2  41.171  30.7879 i
 47.25  32.5525  30.7766 i
 47.3  39.7725  30.7654 i
 47.35  29.5121  30.755 i
 47.4  33.0508  30.7446 i
 47.45  32.7842  30.735 i
 47.5  33.6075  30.7253 i
 47.55  38.0381  30.7163 i
 47.6  27.0241  30.7073 i
 47.65  37.6986  30.6989 i
 47.7  32.7871  30.6904 i
 47.75  23.378  30.6824 i
 47.8  43.3699  30.6745 i
 47.85  35.4363  30.6669 i
 47.9  39.6134  30.6594 i
 47.95  38.1257  30.6521 i
 48  27.8948  30.6449 i
 48.05  33.4101  30.638 i
 48.1  33.8571  30.6311 i
 48.15  36.6781  30.6244 i
 48.2  31.5103  30.6176 i
 48.25  36.1506  30.6111 i
 48.3  39.034  30.6046 i
 48.35  29.2118  30.5982 i
 48.4  29.825  30.5919 i
 48.45  39.9216  30.5856 i
 48.5  31.6189  30.5794 i
 48.55  32.616  30.5732 i
 48.6  36.6645  30.5671 i
 48.65  38.6251  30.561 i
 48.7  38.8404  30.555 i
 48.75  28.7023  30.549 i
 48.8  24.4141  30.5431 i
 48.85  27.0908  30.5372 i
 48.9  39.0582  30.5314 i
 48.95  41.0709  30.5256 i
 49  42.2778  30.5199 i
 49.05  37.3791  30.5148 i
 49.1  29.8777  30.5097 i
 49.15  27.5661  30.5042 i
 49.2  41.923  30.4987 i
 49.25  39.4275  30.4934 i
 49.3  32.8727  30.4881 i
 49.35  30.6095  30.483 i
 49.4  31.4959  30.4778 i
 49.45  24.2811  30.4728 i
 49.5  38.2006  30.4678 i
 49.55  37.339  30.4629 i
 49.6  37.5117  30.458 i
 49.65  27.258  30.4533 i
 49.7  38.117  30.4485 i
 49.75  40.0301  30.4438 i
 49.8  34.6009  30.4392 i
 49.85  30.7744  30.4346 i
 49.9  28.1844  30.43 i
 49.95  41.0739  30.4254 i
 50  31.0408  30.4209 i
 50.05  30.3584  30.4163 i
 50.1  30.1229  30.4118 i
 50.15  30.5995  30.4073 i
 50.2  19.3862  30.4027 i
 50.25  34.9985  30.3982 i
 50.3  35.8106  30.3936 i
 50.35  37.7353  30.389 i
 50.4  34.107  30.3844 i
 50.45  42.9134  30.3797 i
 50.5  23.3577  30.3751 i
 50.55  30.3017  30.3704 i
 50.6  27.5116  30.3658 i
 50.65  33.3188  30.3611 i
 50.7  33.153  30.3564 i
 50.75  31.9029  30.3517 i
 50.8  33.4812  30.347 i
 50.85  31.2137  30.3423 i
 50.9  43.458  30.3376 i
 50.95  36.2812  30.3329 i
 51  33.2304  30.3282 i
 51.05  26.438  30.3236 i
 51.1  29.2601  30.319 i
 51.15  33.289  30.3145 i
 51.2  37.0046  30.3099 i
 51.25  30.5132  30.3054 i
 51.3  27.743  30.301 i
 51.35  35.6787  30.2966 i
 51.4  35.4384  30.2922 i
 51.45  31.7622  30.2879 i
 51.5  40.1175  30.2836 i
 51.55  18.4124  30.2794 i
 51.6  37.0564  30.2752 i
 51.65  30.269  30.271 i
 51.7  30.8702  30.2668 i
 51.75  40.4713  30.2627 i
 51.8  38.7465  30.2586 i
 51.85  47.6878  30.2546 i
 51.9  46.1499  30.2505 i
 51.95  36.6497  30.2464 i
 52  25.5852  30.2424 i
 52.05  25.7452  30.2383 i
 52.1  40.548  30.2342 i
 52.15  39.4982  30.2301 i
 52.2  34.8044  30.226 i
 52.25  32.2418  30.2219 i
 52.3  33.6291  30.2177 i
 52.35  23.3455  30.2135 i
 52.4  37.2457  30.2093 i
 52.45  30.0288  30.2051 i
 52.5  36.588  30.2008 i
 52.55  38.2141  30.1965 i
 52.6  33.6023  30.1922 i
 52.65  30.183  30.1879 i
 52.7  38.8026  30.1836 i
 52.75  42.8912  30.1792 i
 52.8  35.0249  30.1748 i
 52.85  28.0011  30.1704 i
 52.9  32.744  30.1661 i
 52.95  27.9863  30.1617 i
 53  35.5536  30.1573 i
 53.05  31.2709  30.153 i
 53.1  35.0923  30.1486 i
 53.15  38.6243  30.1443 i
 53.2  27.5909  30.14 i
 53.25  43.8489  30.1358 i
 53.3  30.8846  30.1316 i
 53.35  23.6557  30.1274 i
 53.4  37.7533  30.1232 i
 53.45  35.6583  30.1191 i
 53.5  31.5859  30.115 i
 53.55  42.6858  30.111 i
 53.6  40.3908  30.107 i
 53.65  30.2502  30.103 i
 53.7  32.9216  30.099 i
 53.75  30.0937  30.0951 i
 53.8  38.7999  30.0912 i
 53.85  31.9248  30.0872 i
 53.9  34.0064  30.0833 i
 53.95  46.6138  30.0794 i
 54  32.7247  30.0756 i
 54.05  31.9035  30.0716 i
 54.1  20.6441  30.0677 i
 54.15  40.304  30.0638 i
 54.2  29.554  30.0599 i
 54.25  29.887  30.0559 i
 54.3  28.1495  30.0519 i
 54.35  28.9472  30.0479 i
 54.4  32.5731  30.0438 i
 54.45  25.8593  30.0398 i
 54.5  36.1781  30.0357 i
 54.55  28.0082  30.0315 i
 54.6  35.099  30.0274 i
 54.65  26.3864  30.0232 i
 54.7  37.2509  30.019 i
 54.75  27.2133  30.0148 i
 54.8  32.1582  30.0106 i
 54.85  41.1576  30.0064 i
 54.9  28.2886  30.0021 i
 54.95  28.0051  29.9979 i
 55  36.6458  29.9937 i
 55.05  37.9868  29.9895 i
 55.1  31.0377  29.9852 i
 55.15  30.3573  29.9811 i
 55.2  23.0939  29.9769 i
 55.25  29.7657  29.9728 i
 55.3  45.0679  29.9686 i
 55.35  44.9336  29.9646 i
 55.4  29.6534  29.9605 i
 55.45  42.0614  29.9565 i
 55.5  31.3447  29.9525 i
 55.55  32.0962  29.9486 i
 55.6  39.6761  29.9446 i
 55.65  33.3658  29.9407 i
 55.7  31.1718  29.9369 i
 55.75  33.41  29.933 i
 55.8  25.8629  29.9292 i
 55.85  26.167  29.9254 i
 55.9  26.0003  29.9216 i
 55.95  36.0636  29.9178 i
 56  39.5969  29.914 i
 56.05  33.9208  29.9102 i
 56.1  31.5561  29.9064 i
 56.15  33.3144  29.9026 i
 56.2  27.4786  29.8988 i
 56.25  32.9859  29.8949 i
 56.3  35.4079  29.8911 i
 56.35  35.9707  29.8872 i
 56.4  26.4024  29.8833 i
 56.45  29.4037  29.8793 i
 56.5  33.8859  29.8754 i
 56.55  27.0052  29.8714 i
 56.6  28.0881  29.8674 i
 56.65  25.6225  29.8633 i
 56.7  28.8671  29.8593 i
 56.75  24.3186  29.8552 i
 56.8  30.6301  29.8511 i
 56.85  36.6446  29.847 i
 56.9  28.5768  29.8429 i
 56.95  36.6089  29.8388 i
 57  24.9373  29.8346 i
 57.05  32.6692  29.8305 i
 57.1  29.7761  29.8264 i
 57.15  39.4265  29.8224 i
 57.2  39.801  29.8183 i
 57.25  31.5713  29.8142 i
 57.3  25.2403  29.8102 i
 57.35  33.8911  29.8062 i
 57.4  33.0955  29.8023 i
 57.45  31.7777  29.7984 i
 57.5  32.0968  29.7944 i
 57.55  29.8088  29.7906 i
 57.6  28.0768  29.7867 i
 57.65  20.8006  29.783 i
 57.7  30.5374  29.7792 i
 57.75  28.331  29.7754 i
 57.8  31.2802  29.7717 i
 57.85  29.222  29.768 i
 57.9  31.7454  29.7643 i
 57.95  37.8673  29.7607 i
 58  38.4353  29.757 i
 58.05  36.9994  29.7533 i
 58.1  28.542  29.7497 i
 58.15  29.5456  29.746 i
 58.2  26.7874  29.7424 i
 58.25  28.6004  29.7387 i
 58.3  34.1137  29.735 i
 58.35  29.3538  29.7312 i
 58.4  30.6732  29.7275 i
 58.45  34.4773  29.7238 i
 58.5  41.2735  29.72 i
 58.55  37.515  29.7162 i
 58.6  29.5929  29.7123 i
 58.65  32.0379  29.7085 i
 58.7  30.8602  29.7046 i
 58.75  26.6054  29.7007 i
 58.8  37.8946  29.6968 i
 58.85  41.0238  29.6929 i
 58.9  37.8074  29.689 i
 58.95  32.6229  29.685 i
 59  28.953  29.6811 i
 59.05  36.533  29.6771 i
 59.1  35.0634  29.6732 i
 59.15  22.5247  29.6693 i
 59.2  26.4412  29.6654 i
 59.25  31.3608  29.6615 i
 59.3  32.2877  29.6576 i
 59.35  37.2207  29.6538 i
 59.4  30.0044  29.65 i
 59.45  32.8724  29.6463 i
 59.5  26.5095  29.6425 i
 59.55  27.1033  29.6388 i
 59.6  29.7646  29.6352 i
 59.65  25.9979  29.6248 i
 59.7  31.6936  29.6144 i
 59.75  30.5299  29.6108 i
 59.8  29.8394  29.6073 i
 59.85  34.9129  29.6037 i
 59.9  35.2179  29.6002 i
 59.95  26.6443  29.5966 i
 60  25.102  29.5931 i
 60.05  31.5063  29.5896 i
 60.1  27.3424  29.5861 i
 60.15  36.693  29.5825 i
 60.2  28.2459  29.579 i
 60.25  38.2806  29.5755 i
 60.3  32.6884  29.572 i
 60.35  31.764  29.5685 i
 60.4  29.2293  29.565 i
 60.45  27.4055  29.5616 i
 60.5  27.3633  29.5581 i
 60.55  25.2276  29.5546 i
 60.6  25.7199  29.5511 i
 60.65  31.6502  29.5477 i
 60.7  23.0907  29.5443 i
 60.75  32.0236  29.5409 i
 60.8  32.5693  29.5374 i
 60.85  38.4637  29.5341 i
 60.9  38.5279  29.5307 i
 60.95  26.9084  29.5274 i
 61  33.7994  29.5241 i
 61.05  31.1861  29.5208 i
 61.1  30.665  29.5176 i
 61.15  35.894  29.5144 i
 61.2  27.3674  29.5112 i
 61.25  31.0319  29.5081 i
 61.3  30.0985  29.505 i
 61.35  33.3825  29.5021 i
 61.4  28.6355  29.4991 i
 61.45  31.9227  29.4962 i
 61.5  35.2559  29.4934 i
 61.55  27.4513  29.4906 i
 61.6  38.8747  29.4879 i
 61.65  26.5758  29.4853 i
 61.7  45.2813  29.4827 i
 61.75  36.4966  29.4803 i
 61.8  34.3542  29.4779 i
 61.85  29.1312  29.4756 i
 61.9  36.4196  29.4734 i
 61.95  34.7096  29.4714 i
 62  33.2204  29.4693 i
 62.05  27.4957  29.4675 i
 62.1  30.0006  29.4658 i
 62.15  33.0913  29.4643 i
 62.2  29.8318  29.4628 i
 62.25  34.0003  29.4616 i
 62.3  26.6878  29.4604 i
 62.35  28.6934  29.4597 i
 62.4  31.534  29.459 i
 62.45  31.0214  29.4587 i
 62.5  33.8128  29.4585 i
 62.55  24.4547  29.4589 i
 62.6  34.5626  29.4592 i
 62.65  27.8017  29.4604 i
 62.7  34.0073  29.4616 i
 62.75  40.0256  29.4638 i
 62.8  48.3044  29.4659 i
 62.85  33.5546  29.4694 i
 62.9  35.5846  29.4728 i
 62.95  28.8211  29.478 i
 63  33.0406  29.4831 i
 63.05  34.425  29.4905 i
 63.1  34.2123  29.4979 i
 63.15  30.9036  29.5083 i
 63.2  24.5412  29.5188 i
 63.25  37.864  29.5339 i
 63.3  28.3638  29.5489 i
 63.35  31.1109  29.5723 i
 63.4  35.2697  29.5956 i
 63.45  29.2208  29.6416 i
 63.5  38.4274  29.6876 i
 63.55  36.4233  29.7461 i
 63.6  37.5029  29.8046 i
 63.65  23.1356  29.8678 i
 63.7  24.9391  29.9311 i
 63.75  24.2739  30.0167 i
 63.8  26.8803  30.1024 i
 63.85  24.7827  30.2259 i
 63.9  30.0638  30.3494 i
 63.95  26.7157  30.5359 i
 64  33.0798  30.7224 i
 64.05  38.829  31.0195 i
 64.1  29.9635  31.3167 i
 64.15  44.1214  31.8259 i
 64.2  29.2812  32.3351 i
 64.25  35.7478  33.3045 i
 64.3  26.8294  34.2738 i
 64.35  34.362  36.4586 i
 64.4  39.4308  38.6434 i
 64.45  40.8924  43.2318 i
 64.5  48.1777  51.9021 i
 64.55  70.3631  69.5281 i
 64.6  113.605  100.92 i
 64.65  139.529  143.25 i
 64.7  161.33  169.487 i
 64.75  151.339  149.357 i
 64.8  94.7833  101.509 i
 64.85  69.9994  66.68 i
 64.9  62.4341  49.836 i
 64.95  42.4541  41.8871 i
 65  34.7454  37.6943 i
 65.05  31.6886  35.6895 i
 65.1  26.2669  33.6847 i
 65.15  31.5482  32.7982 i
 65.2  33.5363  31.9116 i
 65.25  34.5155  31.4475 i
 65.3  40.5033  30.9835 i
 65.35  22.2407  30.7126 i
 65.4  31.6904  30.4416 i
 65.45  30.7366  30.2707 i
 65.5  38.2176  30.0997 i
 65.55  38.7843  29.9853 i
 65.6  30.0692  29.8709 i
 65.65  25.3518  29.7905 i
 65.7  37.2314  29.7101 i
 65.75  25.7177  29.6504 i
 65.8  32.075  29.5906 i
 65.85  24.181  29.5394 i
 65.9  26.2084  29.4883 i
 65.95  26.6818  29.4466 i
 66  33.1072  29.4049 i
 66.05  42.2723  29.3775 i
 66.1  32.2402  29.3501 i
 66.15  35.9658  29.3291 i
 66.2  34.5775  29.3081 i
 66.25  23.359  29.2911 i
 66.3  31.3724  29.2741 i
 66.35  24.0164  29.26 i
 66.4  40.276  29.2458 i
 66.45  24.8573  29.2338 i
 66.5  27.4878  29.2218 i
 66.55  39.1381  29.2113 i
 66.6  36.7542  29.2009 i
 66.65  31.1656  29.1917 i
 66.7  39.3646  29.1825 i
 66.75  30.4555  29.1743 i
 66.8  34.9501  29.1661 i
 66.85  28.7101  29.1587 i
 66.9  30.6822  29.1513 i
 66.95  32.4496  29.1445 i
 67  26.2366  29.1377 i
 67.05  19.2065  29.1315 i
 67.1  21.9825  29.1252 i
 67.15  26.9298  29.1194 i
 67.2  37.5367  29.1136 i
 67.25  27.0316  29.1081 i
 67.3  22.0275  29.1026 i
 67.35  21.5099  29.0974 i
 67.4  22.5971  29.0922 i
 67.45  29.0995  29.0873 i
 67.5  36.7494  29.0824 i
 67.55  18.1536  29.0776 i
 67.6  28.9923  29.0729 i
 67.65  39.5162  29.0684 i
 67.7  37.2883  29.0639 i
 67.75  27.6048  29.0595 i
 67.8  22.6153  29.0551 i
 67.85  23.2134  29.0509 i
 67.9  35.4748  29.0466 i
 67.95  26.2768  29.0425 i
 68  36.0828  29.0384 i
 68.05  33.5451  29.0344 i
 68.1  26.8946  29.0304 i
 68.15  34.3648  29.0265 i
 68.2  36.0789  29.0226 i
 68.25  29.8914  29.0187 i
 68.3  27.9709  29.0149 i
 68.35  20.2402  29.0111 i
 68.4  27.1503  29.0074 i
 68.45  39.0144  29.0037 i
 68.5  25.9197  29 i
 68.55  36.2693  28.9963 i
 68.6  31.2591  28.9927 i
 68.65  34.2891  28.9891 i
 68.7  26.4415  28.9855 i
 68.75  27.671  28.9819 i
 68.8  38.3671  28.9784 i
 68.85  30.4194  28.9749 i
 68.9  45.6141  28.9714 i
 68.95  40.3798  28.9679 i
 69  40.0975  28.9644 i
 69.05  28.2996  28.961 i
 69.1  38.5994  28.9575 i
 69.15  27.7719  28.9541 i
 69.2  23.9816  28.9507 i
 69.25  24.4863  28.9474 i
 69.3  17.9349  28.944 i
 69.35  45.7117  28.9406 i
 69.4  36.4513  28.9373 i
 69.45  28.8184  28.934 i
 69.5  30.5021  28.9307 i
 69.55  29.7696  28.9274 i
 69.6  36.2832  28.9241 i
 69.65  28.5881  28.9209 i
 69.7  29.2274  28.9176 i
 69.75  23.5608  28.9144 i
 69.8  38.2071  28.9111 i
 69.85  37.9633  28.9079 i
 69.9  22.0246  28.9047 i
 69.95  19.7338  28.9016 i
 70  34.7337  28.8984 i
 70.05  30.5765  28.8952 i
 70.1  15.3211  28.8921 i
 70.15  19.4055  28.889 i
 70.2  29.6218  28.8858 i
 70.25  31.4909  28.8827 i
 70.3  24.0715  28.8796 i
 70.35  29.6459  28.8765 i
 70.4  29.8181  28.8734 i
 70.45  25.0652  28.8704 i
 70.5  37.9841  28.8673 i
 70.55  16.8672  28.8642 i
 70.6  25.9247  28.8612 i
 70.65  33.6895  28.8581 i
 70.7  28.257  28.8551 i
 70.75  19.2985  28.8521 i
 70.8  40.287  28.8491 i
 70.85  33.9529  28.8461 i
 70.9  22.6965  28.8431 i
 70.95  20.241  28.8401 i
 71  20.3784  28.8371 i
 71.05  28.9055  28.8341 i
 71.1  20.654  28.8312 i
 71.15  24.122  28.8282 i
 71.2  35.8692  28.8253 i
 71.25  36.0121  28.8223 i
 71.3  29.5414  28.8194 i
 71.35  29.6389  28.8165 i
 71.4  36.7863  28.8135 i
 71.45  24.4934  28.8106 i
 71.5  31.7297  28.8077 i
 71.55  25.1432  28.8049 i
 71.6  31.1051  28.802 i
 71.65  25.0646  28.7991 i
 71.7  34.4043  28.7962 i
 71.75  25.3844  28.7934 i
 71.8  25.2346  28.7905 i
 71.85  35.6012  28.7877 i
 71.9  33.7342  28.7849 i
 71.95  28.6076  28.7821 i
 72  29.883  28.7793 i
 72.05  25.8899  28.7765 i
 72.1  37.7298  28.7737 i
 72.15  30.6327  28.7709 i
 72.2  32.9949  28.7681 i
 72.25  24.1412  28.7654 i
 72.3  33.3755  28.7626 i
 72.35  30.7448  28.7598 i
 72.4  32.179  28.7571 i
 72.45  30.8285  28.7544 i
 72.5  31.998  28.7516 i
 72.55  37.0789  28.7489 i
 72.6  33.5224  28.7462 i
 72.65  34.8037  28.7435 i
 72.7  33.2228  28.7408 i
 72.75  40.2662  28.7381 i
 72.8  37.0237  28.7354 i
 72.85  28.406  28.7327 i
 72.9  33.6016  28.73 i
 72.95  31.5439  28.7274 i
 73  39.1977  28.7247 i
 73.05  30.6644  28.7221 i
 73.1  33.4607  28.7194 i
 73.15  40.2536  28.7168 i
 73.2  24.7184  28.7142 i
 73.25  38.6831  28.7115 i
 73.3  31.1091  28.7089 i
 73.35  22.5703  28.7063 i
 73.4  35.214  28.7037 i
 73.45  22.7905  28.7011 i
 73.5  23.5375  28.6986 i
 73.55  26.6968  28.696 i
 73.6  32.4258  28.6934 i
 73.65  36.4803  28.6909 i
 73.7  31.8972  28.6884 i
 73.75  29.6914  28.6858 i
 73.8  36.1807  28.6833 i
 73.85  32.627  28.6808 i
 73.9  25.2997  28.6783 i
 73.95  29.3437  28.6758 i
 74  39.8823  28.6733 i
 74.05  29.3279  28.6709 i
 74.1  32.2316  28.6684 i
 74.15  25.7102  28.666 i
 74.2  33.2404  28.6636 i
 74.25  37.5154  28.6611 i
 74.3  27.7176  28.6587 i
 74.35  27.0091  28.6563 i
 74.4  24.9996  28.6539 i
 74.45  35.1844  28.6515 i
 74.5  31.2984  28.6492 i
 74.55  35.1982  28.6468 i
 74.6  35.0033  28.6444 i
 74.65  31.3111  28.6421 i
 74.7  31.1926  28.6397 i
 74.75  28.335  28.6374 i
 74.8  23.9296  28.6351 i
 74.85  28.6923  28.6327 i
 74.9  29.9745  28.6304 i
 74.95  26.4893  28.6281 i
 75  32.5044  28.6258 i
 75.05  25.0707  28.6235 i
 75.1  40.791  28.6212 i
 75.15  35.9457  28.619 i
 75.2  35.074  28.6167 i
 75.25  30.3972  28.6144 i
 75.3  39.7033  28.6122 i
 75.35  34.3014  28.61 i
 75.4  28.1091  28.6077 i
 75.45  32.6007  28.6055 i
 75.5  28.9081  28.6033 i
 75.55  37.2939  28.6011 i
 75.6  27.2252  28.5989 i
 75.65  42.7373  28.5968 i
 75.7  29.9694  28.5946 i
 75.75  37.3915  28.5925 i
 75.8  21.8295  28.5903 i
 75.85  27.7535  28.5882 i
 75.9  33.2615  28.5861 i
 75.95  33.4144  28.584 i
 76  37.4092  28.5819 i
 76.05  25.7572  28.5799 i
 76.1  26.85  28.5778 i
 76.15  32.9605  28.5758 i
 76.2  29.2696  28.5738 i
 76.25  24.2078  28.5718 i
 76.3  28.4354  28.5698 i
 76.35  30.4031  28.5679 i
 76.4  27.9366  28.566 i
 76.45  25.5976  28.564 i
 76.5  37.3278  28.5621 i
 76.55  23.6003  28.5603 i
 76.6  27.0364  28.5584 i
 76.65  34.4156  28.5565 i
 76.7  25.4785  28.5547 i
 76.75  32.9521  28.5529 i
 76.8  35.0502  28.5511 i
 76.85  28.4245  28.5493 i
 76.9  21.3986  28.5475 i
 76.95  28.7834  28.5458 i
 77  26.6533  28.544 i
 77.05  32.4866  28.5423 i
 77.1  36.0506  28.5406 i
 77.15  30.0265  28.5389 i
 77.2  30.7038  28.5373 i
 77.25  29.7864  28.5356 i
 77.3  30.7637  28.534 i
 77.35  33.1464  28.5324 i
 77.4  32.9878  28.5308 i
 77.45  34.2283  28.5293 i
 77.5  29.8943  28.5277 i
 77.55  27.3592  28.5262 i
 77.6  29.5717  28.5247 i
 77.65  30.0762  28.5233 i
 77.7  27.5957  28.5218 i
 77.75  30.1792  28.5205 i
 77.8  27.5884  28.5191 i
 77.85  31.9176  28.5179 i
 77.9  36.9996  28.5167 i
 77.95  34.5551  28.5156 i
 78  30.5467  28.5145 i
 78.05  23.1547  28.5136 i
 78.1  34.7394  28.5126 i
 78.15  40.5054  28.5118 i
 78.2  33.1428  28.511 i
 78.25  28.9936  28.5104 i
 78.3  28.8324  28.5097 i
 78.35  29.002  28.5093 i
 78.4  30.9528  28.5088 i
 78.45  20.5326  28.5085 i
 78.5  31.2367  28.5082 i
 78.55  23.8954  28.5081 i
 78.6  36.5032  28.5081 i
 78.65  33.3669  28.5082 i
 78.7  21.9172  28.5083 i
 78.75  36.2871  28.5087 i
 78.8  31.4165  28.5091 i
 78.85  22.073  28.5097 i
 78.9  35.4551  28.5103 i
 78.95  25.7958  28.5112 i
 79  27.5131  28.5121 i
 79.05  28.0682  28.5134 i
 79.1  31.5029  28.5146 i
 79.15  39.879  28.5162 i
 79.2  27.4991  28.5178 i
 79.25  33.928  28.5198 i
 79.3  29.535  28.5218 i
 79.35  23.2889  28.5247 i
 79.4  18.6752  28.5277 i
 79.45  26.0893  28.5307 i
 79.5  37.2065  28.5338 i
 79.55  41.9095  28.5375 i
 79.6  30.2527  28.5413 i
 79.65  40.3468  28.5458 i
 79.7  22.6687  28.5503 i
 79.75  34.5964  28.5558 i
 79.8  17.2611  28.5613 i
 79.85  27.7021  28.5679 i
 79.9  30.895  28.5745 i
 79.95  34.2979  28.5826 i
 80  28.0594  28.5907 i
 80.05  21.9576  28.6005 i
 80.1  37.0509  28.6104 i
 80.15  38.8428  28.6225 i
 80.2  32.4435  28.6346 i
 80.25  31.9517  28.6496 i
 80.3  27.8259  28.6646 i
 80.35  28.3573  28.6834 i
 80.4  31.6527  28.7023 i
 80.45  28.3673  28.7263 i
 80.5  36.7464  28.7504 i
 80.55  43.7772  28.782 i
 80.6  31.3962  28.8137 i
 80.65  28.7506  28.8585 i
 80.7  29.2579  28.9034 i
 80.75  22.5721  28.9882 i
 80.8  32.5615  29.0731 i
 80.85  31.469  29.1897 i
 80.9  29.2708  29.3063 i
 80.95  27.6782  29.4225 i
 81  24.9869  29.5387 i
 81.05  27.0499  29.693 i
 81.1  35.3501  29.8474 i
 81.15  24.3674  30.0681 i
 81.2  37.3007  30.2888 i
 81.25  32.0097  30.6211 i
 81.3  25.9783  30.9534 i
 81.35  37.2593  31.4847 i
 81.4  17.0525  32.016 i
 81.45  26.9117  32.9369 i
 81.5  36.4772  33.8577 i
 81.55  32.7384  35.6534 i
 81.6  40.2174  37.4491 i
 81.65  35.1423  41.7045 i
 81.7  48.6767  45.9599 i
 81.75  71.0365  56.0513 i
 81.8  57.6699  75.1599 i
 81.85  124.041  117.935 i
 81.9  211.572  195.651 i
 81.95  274.324  282.906 i
 82  272.444  298.317 i
 82.05  201.675  215.229 i
 82.1  128.8  123.946 i
 82.15  87.1861  75.7541 i
 82.2  69.5812  55.0837 i
 82.25  50.0199  45.5922 i
 82.3  45.6873  40.085 i
 82.35  38.0479  37.4682 i
 82.4  37.9385  34.8515 i
 82.45  26.8698  33.6476 i
 82.5  26.4854  32.4438 i
 82.55  33.2866  31.7969 i
 82.6  36.119  31.15 i
 82.65  32.6348  30.7656 i
 82.7  42.3803  30.3813 i
 82.75  32.9185  30.1361 i
 82.8  28.639  29.8908 i
 82.85  27.8473  29.7258 i
 82.9  27.1883  29.5607 i
 82.95  35.2226  29.4442 i
 83  30.5293  29.3277 i
 83.05  29.5365  29.2387 i
 83.1  28.1584  29.1498 i
 83.15  39.1423  29.0649 i
 83.2  37.0334  28.9801 i
 83.25  23.7828  28.9261 i
 83.3  28.7334  28.8722 i
 83.35  36.3477  28.8367 i
 83.4  34.6283  28.8013 i
 83.45  25.3683  28.7747 i
 83.5  38.0367  28.7481 i
 83.55  27.1691  28.7274 i
 83.6  38.2445  28.7067 i
 83.65  34.3673  28.6904 i
 83.7  33.1204  28.674 i
 83.75  32.0348  28.6609 i
 83.8  25.6127  28.6478 i
 83.85  29.8267  28.6372 i
 83.9  29.6936  28.6266 i
 83.95  32.6538  28.6179 i
 84  26.8454  28.6093 i
 84.05  27.1351  28.6023 i
 84.1  36.2391  28.5952 i
 84.15  33.2477  28.5894 i
 84.2  22.3906  28.5836 i
 84.25  33.4992  28.5788 i
 84.3  35.1572  28.5741 i
 84.35  35.7614  28.5701 i
 84.4  27.707  28.5662 i
 84.45  30.4716  28.5629 i
 84.5  27.0307  28.5596 i
 84.55  31.1132  28.5569 i
 84.6  28.8934  28.5542 i
 84.65  31.5523  28.552 i
 84.7  26.1715  28.5498 i
 84.75  36.9001  28.5479 i
 84.8  25.2257  28.5461 i
 84.85  22.6584  28.5446 i
 84.9  26.8159  28.5431 i
 84.95  27.6791  28.5419 i
 85  36.2017  28.5406 i
 85.05  20.9369  28.5397 i
 85.1  29.8284  28.5387 i
 85.15  32.6056  28.5379 i
 85.2  35.19  28.5371 i
 85.25  32.9854  28.5365 i
 85.3  36.3112  28.5359 i
 85.35  31.3867  28.5355 i
 85.4  35.188  28.5351 i
 85.45  17.416  28.5348 i
 85.5  28.8435  28.5345 i
 85.55  27.8013  28.5343 i
 85.6  36.2691  28.5342 i
 85.65  33.6553  28.5341 i
 85.7  35.1658  28.5341 i
 85.75  25.9058  28.5342 i
 85.8  36.2622  28.5342 i
 85.85  36.4176  28.5344 i
 85.9  36.0655  28.5346 i
 85.95  38.8131  28.5348 i
 86  36.1462  28.5351 i
 86.05  23.3639  28.5354 i
 86.1  29.7184  28.5357 i
 86.15  34.925  28.5361 i
 86.2  26.2778  28.5365 i
 86.25  28.5102  28.537 i
 86.3  31.7226  28.5374 i
 86.35  28.201  28.5379 i
 86.4  30.9146  28.5384 i
 86.45  27.7381  28.539 i
 86.5  24.6614  28.5395 i
 86.55  33.913  28.5401 i
 86.6  35.0733  28.5407 i
 86.65  32.9589  28.5413 i
 86.7  35.9638  28.5419 i
 86.75  24.6098  28.5426 i
 86.8  33.6419  28.5432 i
 86.85  21.5219  28.5439 i
 86.9  33.3274  28.5445 i
 86.95  32.9869  28.5452 i
 87  30.223  28.5458 i
 87.05  28.6583  28.5465 i
 87.1  30.9052  28.5471 i
 87.15  36.0641  28.5478 i
 87.2  31.0265  28.5485 i
 87.25  24.1314  28.5491 i
 87.3  31.5663  28.5498 i
 87.35  34.0196  28.5504 i
 87.4  35.2206  28.551 i
 87.45  25.0671  28.5517 i
 87.5  38.6107  28.5523 i
 87.55  31.8675  28.5529 i
 87.6  32.8394  28.5535 i
 87.65  27.7574  28.5542 i
 87.7  34.268  28.5548 i
 87.75  28.886  28.5554 i
 87.8  28.7749  28.556 i
 87.85  24.1792  28.5566 i
 87.9  19.9265  28.5572 i
 87.95  30.6824  28.5577 i
 88  39.5082  28.5583 i
 88.05  31.8784  28.5589 i
 88.1  30.4029  28.5595 i
 88.15  29.7545  28.5601 i
 88.2  32.7624  28.5607 i
 88.25  31.7384  28.5612 i
 88.3  26.2335  28.5618 i
 88.35  24.0612  28.5624 i
 88.4  24.5312  28.563 i
 88.45  27.871  28.5635 i
 88.5  22.3094  28.5641 i
 88.55  26.6266  28.5647 i
 88.6  29.3341  28.5653 i
 88.65  31.3785  28.5658 i
 88.7  34.9008  28.5664 i
 88.75  25.9556  28.567 i
 88.8  30.6071  28.5675 i
 88.85  30.4442  28.5681 i
 88.9  27.0373  28.5686 i
 88.95  45.6095  28.5692 i
 89  29.9661  28.5697 i
 89.05  35.5587  28.5702 i
 89.1  25.166  28.5708 i
 89.15  34.3827  28.5713 i
 89.2  36.1387  28.5718 i
 89.25  24.5297  28.5722 i
 89.3  25.3659  28.5727 i
 89.35  22.0657  28.5732 i
 89.4  30.0834  28.5736 i
 89.45  34.1929  28.574 i
 89.5  29.9514  28.5745 i
 89.55  36.6841  28.5749 i
 89.6  23.7142  28.5752 i
 89.65  39.1769  28.5756 i
 89.7  27.2923  28.5759 i
 89.75  37.9169  28.5762 i
 89.8  33.836  28.5765 i
 89.85  36.3688  28.5768 i
 89.9  40.9608  28.577 i
 89.95  21.7311  28.5772 i
 90  24.7522  28.5775 i
 90.05  32.858  28.5776 i
 90.1  35.9327  28.5778 i
 90.15  33.0191  28.5779 i
 90.2  26.7044  28.578 i
 90.25  21.5287  28.5781 i
 90.3  38.0374  28.5782 i
 90.35  29.1018  28.5782 i
 90.4  28.8679  28.5783 i
 90.45  44.2432  28.5783 i
 90.5  30.1378  28.5783 i
 90.55  21.2376  28.5782 i
 90.6  27.4313  28.5782 i
 90.65  29.9583  28.5781 i
 90.7  34.2642  28.578 i
 90.75  32.596  28.5779 i
 90.8  33.5168  28.5778 i
 90.85  34.4845  28.5777 i
 90.9  28.3078  28.5775 i
 90.95  27.4997  28.5774 i
 91  32.8308  28.5772 i
 91.05  27.7723  28.577 i
 91.1  29.8054  28.5768 i
 91.15  36.8697  28.5766 i
 91.2  24.1189  28.5763 i
 91.25  28.3184  28.5761 i
 91.3  27.4462  28.5758 i
 91.35  26.2132  28.5755 i
 91.4  37.2214  28.5752 i
 91.45  32.0165  28.5749 i
 91.5  30.529  28.5745 i
 91.55  19.0869  28.5742 i
 91.6  42.3971  28.5738 i
 91.65  34.8698  28.5734 i
 91.7  35.492  28.573 i
 91.75  33.3149  28.5726 i
 91.8  34.056  28.5721 i
 91.85  36.7564  28.5716 i
 91.9  27.0021  28.5711 i
 91.95  27.0124  28.5706 i
 92  29.7854  28.5701 i
 92.05  30.4804  28.5695 i
 92.1  36.1095  28.5689 i
 92.15  29.0584  28.5682 i
 92.2  31.5899  28.5676 i
 92.25  33.9493  28.5669 i
 92.3  34.6499  28.5662 i
 92.35  40.795  28.5654 i
 92.4  30.4167  28.5646 i
 92.45  26.1425  28.5638 i
 92.5  33.2576  28.563 i
 92.55  30.5224  28.5621 i
 92.6  27.8599  28.5612 i
 92.65  25.4455  28.5602 i
 92.7  27.2147  28.5593 i
 92.75  23.3517  28.5583 i
 92.8  29.0857  28.5573 i
 92.85  28.6039  28.5562 i
 92.9  32.2089  28.5551 i
 92.95  36.3357  28.554 i
 93  24.6372  28.5529 i
 93.05  25.7423  28.5517 i
 93.1  39.5645  28.5505 i
 93.15  24.3292  28.5493 i
 93.2  28.9285  28.548 i
 93.25  31.9305  28.5468 i
 93.3  31.277  28.5455 i
 93.35  28.5891  28.5441 i
 93.4  23.3882  28.5428 i
 93.45  31.1496  28.5418 i
 93.5  40.6952  28.5408 i
 93.55  30.9215  28.5394 i
 93.6  26.7552  28.538 i
 93.65  28.3397  28.5366 i
 93.7  39.4571  28.5351 i
 93.75  37.0819  28.5337 i
 93.8  31.9632  28.5322 i
 93.85  40.4791  28.5308 i
 93.9  25.6272  28.5293 i
 93.95  26.0155  28.5278 i
 94  25.5622  28.5263 i
 94.05  40.6123  28.5248 i
 94.1  32.0774  28.5233 i
 94.15  36.1216  28.5217 i
 94.2  27.0311  28.5202 i
 94.25  31.0834  28.5185 i
 94.3  29.9148  28.5169 i
 94.35  46.2743  28.5151 i
 94.4  30.5481  28.5133 i
 94.45  28.9564  28.5114 i
 94.5  34.0978  28.5095 i
 94.55  36.041  28.5076 i
 94.6  28.5318  28.5056 i
 94.65  29.5807  28.5035 i
 94.7  36.0644  28.5014 i
 94.75  27.2646  28.4992 i
 94.8  36.7429  28.497 i
 94.85  23.8122  28.4947 i
 94.9  27.2233  28.4925 i
 94.95  30.8032  28.4901 i
 95  25.7377  28.4878 i
 95.05  34.2412  28.4854 i
 95.1  34.0619  28.483 i
 95.15  25.2879  28.4806 i
 95.2  29.7423  28.4782 i
 95.25  26.5673  28.4757 i
 95.3  31.1127  28.4733 i
 95.35  26.504  28.4709 i
 95.4  23.9304  28.4685 i
 95.45  28.7203  28.4662 i
 95.5  24.7123  28.4638 i
 95.55  33.2723  28.4616 i
 95.6  29.3525  28.4593 i
 95.65  29.7068  28.4572 i
 95.7  26.141  28.4551 i
 95.75  28.1509  28.4532 i
 95.8  29.8115  28.4513 i
 95.85  28.7251  28.4496 i
 95.9  35.0652  28.448 i
 95.95  31.7753  28.4467 i
 96  31.0175  28.4454 i
 96.05  31.1967  28.4445 i
 96.1  32.2577  28.4436 i
 96.15  29.1024  28.4433 i
 96.2  32.9207  28.443 i
 96.25  36.2014  28.4434 i
 96.3  28.2385  28.4438 i
 96.35  27.7974  28.445 i
 96.4  30.961  28.4463 i
 96.45  46.9273  28.4486 i
 96.5  31.7865  28.451 i
 96.55  21.5119  28.4547 i
 96.6  27.7209  28.4584 i
 96.65  22.8959  28.4639 i
 96.7  27.9347  28.4694 i
 96.75  30.5292  28.4772 i
 96.8  26.338  28.4849 i
 96.85  36.8954  28.4957 i
 96.9  32.4071  28.5064 i
 96.95  29.8767  28.521 i
 97  19.8543  28.5357 i
 97.05  26.8133  28.5558 i
 97.1  30.404  28.5758 i
 97.15  27.0206  28.6038 i
 97.2  29.4362  28.6319 i
 97.25  32.4515  28.6739 i
 97.3  38.7845  28.7159 i
 97.35  36.9999  28.783 i
 97.4  32.9192  28.85 i
 97.45  42.5007  28.9308 i
 97.5  23.1758  29.0115 i
 97.55  26.385  29.1154 i
 97.6  19.5023  29.2193 i
 97.65  29.0615  29.3658 i
 97.7  34.6025  29.5123 i
 97.75  26.028  29.7288 i
 97.8  36.2463  29.9454 i
 97.85  35.3435  30.2813 i
 97.9  28.964  30.6173 i
 97.95  29.1877  31.1722 i
 98  24.2194  31.7271 i
 98.05  36.6981  32.728 i
 98.1  40.8221  33.7288 i
 98.15  39.9159  35.7889 i
 98.2  35.8879  37.8489 i
 98.25  51.0372  41.7429 i
 98.3  36.8575  48.3462 i
 98.35  54.52  60.8911 i
 98.4  93.2919  82.2435 i
 98.45  118.632  116.841 i
 98.5  150.804  154.007 i
 98.55  175.772  168.076 i
 98.6  129.706  145.553 i
 98.65  96.1533  106.863 i
 98.7  79.1705  75.9078 i
 98.75  58.7037  58.1533 i
 98.8  45.6273  47.6342 i
 98.85  43.3937  41.7778 i
 98.9  39.3144  38.1294 i
 98.95  39.9411  36.0881 i
 99  36.9524  34.0468 i
 99.05  44.3207  32.9997 i
 99.1  27.9664  31.9526 i
 99.15  27.7141  31.3489 i
 99.2  25.0977  30.7452 i
 99.25  32.3797  30.367 i
 99.3  36.36  29.9887 i
 99.35  29.0658  29.7361 i
 99.4  34.2204  29.4835 i
 99.45  19.5832  29.3054 i
 99.5  29.8014  29.1272 i
 99.55  32.7013  28.9934 i
 99.6  25.4916  28.8595 i
 99.65  34.8062  28.7428 i
 99.7  43.2006  28.6262 i
 99.75  25.2617  28.5227 i
 99.8  34.6489  28.4193 i
 99.85  33.9305  28.356 i
 99.9  30.605  28.2927 i
 99.95  25.0017  28.2484 i
 100  31.1446  28.2041 i
 100.05  29.9632  28.1693 i
 100.1  28.0817  28.1346 i
 100.15  28.0564  28.106 i
 100.2  19.3096  28.0775 i
 100.25  32.3704  28.0532 i
 100.3  26.5023  28.029 i
 100.35  33.4933  28.008 i
 100.4  34.5906  27.987 i
 100.45  32.582  27.9685 i
 100.5  28.0705  27.95 i
 100.55  31.8167  27.9334 i
 100.6  29.156  27.9168 i
 100.65  14.3018  27.9017 i
 100.7  33.9702  27.8867 i
 100.75  26.9626  27.8728 i
 100.8  21.4514  27.859 i
 100.85  29.0597  27.8462 i
 100.9  26.7542  27.8334 i
 100.95  29.8541  27.8214 i
 101  27.9514  27.8094 i
 101.05  25.7069  27.7981 i
 101.1  36.8918  27.7868 i
 101.15  32.2777  27.7761 i
 101.2  29.174  27.7654 i
 101.25  16.7829  27.7552 i
 101.3  20.2419  27.745 i
 101.35  37.8631  27.7352 i
 101.4  28.9831  27.7255 i
 101.45  32.9964  27.7161 i
 101.5  41.2091  27.7067 i
 101.55  30.0907  27.6976 i
 101.6  39.8353  27.6886 i
 101.65  36.9898  27.6798 i
 101.7  20.5324  27.671 i
 101.75  28.8752  27.6617 i
 101.8  28.6392  27.6524 i
 101.85  31.9879  27.6442 i
 101.9  26.3306  27.6359 i
 101.95  22.5744  27.6279 i
 102  37.068  27.6198 i
 102.05  42.278  27.612 i
 102.1  25.6335  27.6041 i
 102.15  42.0859  27.5964 i
 102.2  26.3613  27.5888 i
 102.25  29.0518  27.5813 i
 102.3  25.0946  27.5738 i
 102.35  31.5018  27.5664 i
 102.4  30.7181  27.5591 i
 102.45  35.0588  27.5519 i
 102.5  24.8804  27.5447 i
 102.55  34.4034  27.5377 i
 102.6  34.8995  27.5307 i
 102.65  38.9309  27.5238 i
 102.7  26.618  27.5168 i
 102.75  32.5677  27.5101 i
 102.8  29.8626  27.5033 i
 102.85  42.2987  27.4967 i
 102.9  29.4282  27.49 i
 102.95  34.8077  27.4835 i
 103  31.0546  27.477 i
 103.05  26.9695  27.4706 i
 103.1  26.2147  27.4642 i
 103.15  29.7559  27.4579 i
 103.2  27.6334  27.4516 i
 103.25  32.001  27.4454 i
 103.3  37.146  27.4393 i
 103.35  32.0824  27.4332 i
 103.4  35.2308  27.4272 i
 103.45  37.5947  27.4212 i
 103.5  37.0058  27.4153 i
 103.55  25.5865  27.4095 i
 103.6  33.6575  27.4037 i
 103.65  28.4113  27.398 i
 103.7  28.6715  27.3923 i
 103.75  30.3591  27.3867 i
 103.8  31.1963  27.3811 i
 103.85  30.0484  27.3756 i
 103.9  29.3654  27.3702 i
 103.95  29.8587  27.3648 i
 104  41.4604  27.3595 i
 104.05  25.9696  27.3543 i
 104.1  31.0236  27.3491 i
 104.15  32.6464  27.344 i
 104.2  32.9065  27.3389 i
 104.25  23.9041  27.3339 i
 104.3  35.291  27.329 i
 104.35  38.8687  27.3241 i
 104.4  34.9704  27.3193 i
 104.45  28.4123  27.3146 i
 104.5  25.8658  27.3099 i
 104.55  26.4823  27.3054 i
 104.6  22.2484  27.3009 i
 104.65  25.5278  27.2964 i
 104.7  24.703  27.292 i
 104.75  32.7469  27.2878 i
 104.8  31.9336  27.2835 i
 104.85  33.1177  27.2794 i
 104.9  28.0957  27.2753 i
 104.95  36.1481  27.2714 i
 105  31.1772  27.2674 i
 105.05  30.5363  27.2636 i
 105.1  30.1952  27.2598 i
 105.15  32.3739  27.2562 i
 105.2  37.3158  27.2525 i
 105.25  24.663  27.249 i
 105.3  38.5941  27.2455 i
 105.35  25.4769  27.2422 i
 105.4  29.3817  27.2389 i
 105.45  31.3122  27.2357 i
 105.5  33.8008  27.2325 i
 105.55  28.3368  27.2295 i
 105.6  32.5806  27.2265 i
 105.65  39.2811  27.2237 i
 105.7  33.1232  27.2208 i
 105.75  23.6666  27.2181 i
 105.8  25.2488  27.2155 i
 105.85  43.6271  27.213 i
 105.9  31.16  27.2104 i
 105.95  27.9705  27.2081 i
 106  33.6988  27.2057 i
 106.05  25.2417  27.2036 i
 106.1  29.5538  27.2014 i
 106.15  35.0209  27.1994 i
 106.2  43.1619  27.1974 i
 106.25  30.6459  27.1955 i
 106.3  31.1901  27.1937 i
 106.35  27.2768  27.1921 i
 106.4  35.3614  27.1904 i
 106.45  28.886  27.1889 i
 106.5  30.768  27.1874 i
 106.55  44.8399  27.1861 i
 106.6  32.6626  27.1848 i
 106.65  36.0877  27.1837 i
 106.7  21.2861  27.1826 i
 106.75  22.0756  27.1817 i
 106.8  28.2454  27.1808 i
 106.85  30.0092  27.18 i
 106.9  26.6055  27.1793 i
 106.95  35.9437  27.1787 i
 107  26.5565  27.1782 i
 107.05  27.1858  27.1779 i
 107.1  32.0371  27.1775 i
 107.15  30.0831  27.1774 i
 107.2  30.0645  27.1773 i
 107.25  27.1166  27.1773 i
 107.3  21.4952  27.1774 i
 107.35  37.6316  27.1777 i
 107.4  26.8561  27.178 i
 107.45  33.711  27.1785 i
 107.5  24.8274  27.179 i
 107.55  31.8923  27.1797 i
 107.6  35.8591  27.1804 i
 107.65  36.2622  27.1814 i
 107.7  32.9148  27.1823 i
 107.75  27.1012  27.1835 i
 107.8  28.5068  27.1847 i
 107.85  38.9618  27.1861 i
 107.9  29.2809  27.1875 i
 107.95  32.8937  27.1891 i
 108  36.4715  27.1908 i
 108.05  36.7463  27.1927 i
 108.1  33.8125  27.1946 i
 108.15  26.8597  27.1967 i
 108.2  34.4153  27.1988 i
 108.25  44.5752  27.2012 i
 108.3  29.9843  27.2036 i
 108.35  43.303  27.2062 i
 108.4  37.2245  27.2088 i
 108.45  27.2406  27.2117 i
 108.5  23.4595  27.2145 i
 108.55  27.7979  27.2176 i
 108.6  19.8227  27.2206 i
 108.65  31.4268  27.2238 i
 108.7  32.4803  27.227 i
 108.75  18.715  27.2303 i
 108.8  31.7088  27.2337 i
 108.85  25.6842  27.2372 i
 108.9  38.6786  27.2407 i
 108.95  25.2915  27.2443 i
 109  32.8115  27.2479 i
 109.05  21.2483  27.2517 i
 109.1  20.1263  27.2555 i
 109.15  34.2119  27.2595 i
 109.2  42.6473  27.2634 i
 109.25  31.3962  27.2675 i
 109.3  24.392  27.2715 i
 109.35  29.7553  27.2758 i
 109.4  29.8807  27.28 i
 109.45  24.9604  27.2843 i
 109.5  31.6073  27.2887 i
 109.55  31.4854  27.2932 i
 109.6  35.702  27.2977 i
 109.65  34.4635  27.3024 i
 109.7  30.8174  27.307 i
 109.75  36.0845  27.3118 i
 109.8  30.9982  27.3166 i
 109.85  22.0391  27.3215 i
 109.9  38.8916  27.3265 i
 109.95  27.3302  27.3316 i
 110  32.1985  27.3367 i
 110.05  34.2697  27.3419 i
 110.1  23.3305  27.3472 i
 110.15  25.6413  27.3526 i
 110.2  26.746  27.358 i
 110.25  25.8465  27.3635 i
 110.3  24.8872  27.3691 i
 110.35  29.1583  27.3748 i
 110.4  45.2091  27.3805 i
 110.45  36.9894  27.3864 i
 110.5  28.866  27.3922 i
 110.55  29.0471  27.3983 i
 110.6  24.5019  27.4043 i
 110.65  35.1752  27.4106 i
 110.7  39.0493  27.4168 i
 110.75  36.8325  27.4232 i
 110.8  30.8308  27.4296 i
 110.85  39.7092  27.4361 i
 110.9  32.9704  27.4427 i
 110.95  40.4448  27.4495 i
 111  29.2165  27.4562 i
 111.05  31.9189  27.4632 i
 111.1  24.763  27.4702 i
 111.15  29.7001  27.4773 i
 111.2  33.3059  27.4845 i
 111.25  29.6185  27.4918 i
 111.3  30.2234  27.4992 i
 111.35  37.884  27.5068 i
 111.4  28.1795  27.5143 i
 111.45  25.5413  27.5221 i
 111.5  31.3572  27.5299 i
 111.55  31.6711  27.5379 i
 111.6  34.789  27.5459 i
 111.65  37.5663  27.5542 i
 111.7  29.3149  27.5625 i
 111.75  36.1164  27.571 i
 111.8  29.6008  27.5795 i
 111.85  28.985  27.5883 i
 111.9  28.3591  27.5971 i
 111.95  34.2395  27.6061 i
 112  29.9006  27.6152 i
 112.05  30.9617  27.6246 i
 112.1  26.5541  27.634 i
 112.15  29.7143  27.6437 i
 112.2  29.842  27.6534 i
 112.25  32.813  27.6635 i
 112.3  27.0289  27.6735 i
 112.35  28.3483  27.684 i
 112.4  30.1767  27.6945 i
 112.45  39.0798  27.7054 i
 112.5  38.9717  27.7163 i
 112.55  27.023  27.7277 i
 112.6  25.8348  27.7391 i
 112.65  30.5923  27.751 i
 112.7  30.7218  27.7629 i
 112.75  39.4116  27.7754 i
 112.8  32.224  27.788 i
 112.85  42.079  27.801 i
 112.9  44.0844  27.8144 i
 112.95  45.1424  27.8283 i
 113  38.7907  27.8425 i
 113.05  26.9629  27.8574 i
 113.1  29.611  27.8723 i
 113.15  31.5398  27.8883 i
 113.2  30.3916  27.9043 i
 113.25  30.1883  27.9215 i
 113.3  28.5395  27.9387 i
 113.35  23.5066  27.9574 i
 113.4  24.8966  27.976 i
 113.45  39.835  27.9963 i
 113.5  27.8638  28.0167 i
 113.55  31.9796  28.0391 i
 113.6  28.8931  28.0614 i
 113.65  37.1575  28.0862 i
 113.7  32.3428  28.111 i
 113.75  39.031  28.138 i
 113.8  49.6244  28.1665 i
 113.85  39.7065  28.1969 i
 113.9  25.7659  28.2292 i
 113.95  31.2821  28.265 i
 114  37.3755  28.3008 i
 114.05  30.4625  28.3422 i
 114.1  35.8149  28.3835 i
 114.15  27.6035  28.4319 i
 114.2  27.0921  28.4803 i
 114.25  51.9191  28.5353 i
 114.3  19.1557  28.5954 i
 114.35  31.4695  28.6649 i
 114.4  30.2418  28.7344 i
 114.45  30.9085  28.8201 i
 114.5  40.6532  28.9058 i
 114.55  33.458  29.0141 i
 114.6  36.4661  29.1225 i
 114.65  22.702  29.2624 i
 114.7  27.865  29.4022 i
 114.75  39.4059  29.5821 i
 114.8  29.1443  29.762 i
 114.85  35.7204  29.9926 i
 114.9  32.2683  30.2231 i
 114.95  45.1612  30.5277 i
 115  34.3558  30.8324 i
 115.05  30.3289  31.2514 i
 115.1  33.2387  31.6704 i
 115.15  34.0538  32.2704 i
 115.2  31.0644  32.8703 i
 115.25  35.7003  33.7681 i
 115.3  33.6219  34.6659 i
 115.35  33.2295  36.0808 i
 115.4  55.8248  37.4958 i
 115.45  43.6448  39.5435 i
 115.5  39.7551  42.2327 i
 115.55  37.9362  45.8195 i
 115.6  49.3184  50.6627 i
 115.65  74.4572  57.2257 i
 115.7  60.2706  65.9869 i
 115.75  79.2426  77.1573 i
 115.8  81.6428  89.8693 i
 115.85  101.877  101.837 i
 115.9  118.829  109.535 i
 115.95  97.503  109.764 i
 116  100.972  102.685 i
 116.05  89.4036  90.9108 i
 116.1  80.3185  78.1881 i
 116.15  72.231  66.9724 i
 116.2  54.7685  58.1043 i
 116.25  52.2805  51.5385 i
 116.3  48.9079  46.5177 i
 116.35  41.2913  42.8685 i
 116.4  35.3882  40.1331 i
 116.45  30.2564  38.2891 i
 116.5  49.7367  36.4451 i
 116.55  37.0516  35.3146 i
 116.6  30.153  34.1841 i
 116.65  32.39  33.4533 i
 116.7  26.3572  32.7225 i
 116.75  30.9438  32.2286 i
 116.8  38.6932  31.7348 i
 116.85  36.3118  31.388 i
 116.9  33.3629  31.0413 i
 116.95  29.4616  30.7887 i
 117  19.9113  30.5361 i
 117.05  23.675  30.3458 i
 117.1  29.9324  30.1555 i
 117.15  38.3409  30.0116 i
 117.2  32.8358  29.8678 i
 117.25  36.705  29.7616 i
 117.3  21.8356  29.6553 i
 117.35  34.2093  29.5769 i
 117.4  33.3538  29.4984 i
 117.45  40.7559  29.4397 i
 117.5  25.1388  29.381 i
 117.55  24.5866  29.3366 i
 117.6  24.0921  29.2922 i
 117.65  33.5709  29.2586 i
 117.7  34.6125  29.225 i
 117.75  32.0916  29.1996 i
 117.8  24.7376  29.1742 i
 117.85  33.2729  29.1553 i
 117.9  30.1758  29.1364 i
 117.95  38.7298  29.1226 i
 118  31.0568  29.1088 i
 118.05  31.1785  29.0992 i
 118.1  35.6008  29.0895 i
 118.15  31.0237  29.0832 i
 118.2  32.1569  29.0768 i
 118.25  27.4893  29.0733 i
 118.3  24.2805  29.0697 i
 118.35  30.2543  29.0684 i
 118.4  32.8023  29.0671 i
 118.45  37.1024  29.0677 i
 118.5  21.2243  29.0682 i
 118.55  25.4839  29.0704 i
 118.6  32.3481  29.0726 i
 118.65  33.5533  29.0761 i
 118.7  24.5056  29.0796 i
 118.75  31.8234  29.0843 i
 118.8  32.7469  29.0889 i
 118.85  26.6296  29.0946 i
 118.9  24.3122  29.1002 i
 118.95  24.9474  29.1067 i
 119  32.378  29.1132 i
 119.05  28.1703  29.1204 i
 119.1  29.9354  29.1276 i
 119.15  27.3914  29.1354 i
 119.2  27.1188  29.1432 i
 119.25  24.0213  29.1516 i
 119.3  26.543  29.16 i
 119.35  20.7712  29.1688 i
 119.4  37.4792  29.1777 i
 119.45  39.2151  29.1869 i
 119.5  33.2258  29.1962 i
 119.55  19.8031  29.2058 i
 119.6  32.3225  29.2155 i
 119.65  37.5695  29.2254 i
 119.7  23.5823  29.2354 i
 119.75  21.7537  29.2456 i
 119.8  27.9268  29.2559 i
 119.85  26.9832  29.2664 i
 119.9  36.6845  29.2769 i
 119.95  16.8563  29.2876 i
 120  32.6819  29.2983 i
 120.05  27.1985  29.3093 i
 120.1  30.8146  29.3202 i
 120.15  30.7747  29.3313 i
 120.2  34.4782  29.3425 i
 120.25  39.1303  29.3538 i
 120.3  25.6662  29.365 i
 120.35  31.113  29.3765 i
 120.4  29.3578  29.3879 i
 120.45  16.9658  29.3995 i
 120.5  23.0097  29.4111 i
 120.55  27.0928  29.4228 i
 120.6  36.8135  29.4345 i
 120.65  24.6596  29.4463 i
 120.7  24.1536  29.4582 i
 120.75  23.482  29.4701 i
 120.8  40.6412  29.482 i
 120.85  33.1216  29.4941 i
 120.9  30.1935  29.5061 i
 120.95  31.5257  29.5183 i
 121  29.684  29.5304 i
 121.05  31.2862  29.5426 i
 121.1  22.5385  29.5548 i
 121.15  25.1658  29.5671 i
 121.2  22.1158  29.5795 i
 121.25  32.0473  29.5918 i
 121.3  29.9397  29.6042 i
 121.35  29.5874  29.6167 i
 121.4  36.899  29.6291 i
 121.45  27.6722  29.6417 i
 121.5  26.6143  29.6542 i
 121.55  31.9514  29.6668 i
 121.6  31.5137  29.6794 i
 121.65  33.0762  29.692 i
 121.7  36.5659  29.7047 i
 121.75  29.5248  29.7174 i
 121.8  40.8909  29.7301 i
 121.85  31.5557  29.7428 i
 121.9  41.7054  29.7556 i
 121.95  36.2427  29.7684 i
 122  29.7131  29.7812 i
 122.05  35.9675  29.7941 i
 122.1  30.5372  29.8069 i
 122.15  31.9513  29.8198 i
 122.2  29.2117  29.8327 i
 122.25  27.2467  29.8456 i
 122.3  25.8813  29.8586 i
 122.35  32.6759  29.8715 i
 122.4  24.1485  29.8845 i
 122.45  39.88  29.8975 i
 122.5  24.8442  29.9105 i
 122.55  39.9631  29.9235 i
 122.6  28.7646  29.9365 i
 122.65  33.3626  29.9496 i
 122.7  30.708  29.9626 i
 122.75  28.9667  29.9752 i
 122.8  27.9858  29.9878 i
 122.85  25.8236  30.0009 i
 122.9  27.8139  30.014 i
 122.95  28.7485  30.0271 i
 123  28.9709  30.0402 i
 123.05  30.1397  30.0533 i
 123.1  15.5638  30.0664 i
 123.15  33.2007  30.0795 i
 123.2  34.3958  30.0926 i
 123.25  30.459  30.1057 i
 123.3  40.0016  30.1188 i
 123.35  38.877  30.1319 i
 123.4  31.8913  30.145 i
 123.45  32.7575  30.1581 i
 123.5  31.7073  30.1712 i
 123.55  23.2944  30.1843 i
 123.6  30.7151  30.1974 i
 123.65  26.5793  30.2105 i
 123.7  31.6104  30.2236 i
 123.75  21.9736  30.2367 i
 123.8  25.2214  30.2498 i
 123.85  15.5187  30.2629 i
 123.9  27.2481  30.276 i
 123.95  32.5996  30.2891 i
 124  24.4923  30.3022 i
 124.05  33.147  30.3152 i
 124.1  32.5973  30.3283 i
 124.15  39.9085  30.3414 i
 124.2  30.2626  30.3545 i
 124.25  31.4711  30.3676 i
 124.3  30.6225  30.3807 i
 124.35  27.0823  30.3937 i
 124.4  35.1107  30.4068 i
 124.45  37.6464  30.4199 i
 124.5  29.8496  30.433 i
 124.55  30.8672  30.446 i
 124.6  26.4082  30.4591 i
 124.65  27.1267  30.4722 i
 124.7  26.4011  30.4852 i
 124.75  34.3192  30.4983 i
 124.8  30.4589  30.5114 i
 124.85  33.5672  30.5244 i
 124.9  24.4133  30.5375 i
 124.95  29.2228  30.5505 i
 125  26.4875  30.5636 i
 125.05  31.8644  30.5766 i
 125.1  30.2864  30.5897 i
 125.15  30.755  30.6027 i
 125.2  43.1207  30.6158 i
 125.25  33.1864  30.6288 i
 125.3  33.3548  30.6418 i
 125.35  31.963  30.6549 i
 125.4  29.2443  30.6679 i
 125.45  33.7025  30.6809 i
 125.5  38.5183  30.6939 i
 125.55  31.6872  30.7069 i
 125.6  26.0699  30.7199 i
 125.65  32.4871  30.7329 i
 125.7  34.2031  30.7459 i
 125.75  28.3484  30.7589 i
 125.8  24.8635  30.7719 i
 125.85  34.8189  30.7848 i
 125.9  24.7222  30.7978 i
 125.95  21.521  30.8107 i
 126  31.2332  30.8237 i
 126.05  34.836  30.8366 i
 126.1  31.3905  30.8495 i
 126.15  37.1614  30.8624 i
 126.2  36.1742  30.8753 i
 126.25  25.8874  30.8882 i
 126.3  22.3675  30.901 i
 126.35  41.9807  30.9139 i
 126.4  33.5724  30.9267 i
 126.45  33.439  30.9395 i
 126.5  24.8206  30.9524 i
 126.55  29.2314  30.9651 i
 126.6  35.2919  30.9779 i
 126.65  27.0133  30.9907 i
 126.7  32.56  31.0034 i
 126.75  36.5329  31.0161 i
 126.8  19.5418  31.0289 i
 126.85  32.8662  31.0415 i
 126.9  28.4793  31.0542 i
 126.95  27.2355  31.0668 i
 127  30.5634  31.0795 i
 127.05  36.8179  31.0921 i
 127.1  27.9993  31.1047 i
 127.15  30.4948  31.1172 i
 127.2  28.8196  31.1298 i
 127.25  30.3759  31.1423 i
 127.3  20.7445  31.1548 i
 127.35  39.0494  31.1673 i
 127.4  46.3063  31.1798 i
 127.45  32.8777  31.1922 i
 127.5  25.7011  31.2046 i
 127.55  27.0789  31.217 i
 127.6  39.9679  31.2294 i
 127.65  27.3803  31.2417 i
 127.7  34.5171  31.254 i
 127.75  43.5673  31.2663 i
 127.8  39.8068  31.2786 i
 127.85  27.5447  31.2908 i
 127.9  37.2144  31.3031 i
 127.95  23.9951  31.3152 i
 128  25.7339  31.3274 i
 128.05  26.5129  31.3396 i
 128.1  34.8037  31.3517 i
 128.15  40.2043  31.3638 i
 128.2  32.0416  31.3759 i
 128.25  23.4857  31.388 i
 128.3  29.9176  31.4 i
 128.35  35.3098  31.412 i
 128.4  35.8883  31.424 i
 128.45  29.5264  31.436 i
 128.5  26.8524  31.4479 i
 128.55  35.9626  31.4598 i
 128.6  45.754  31.4717 i
 128.65  34.0805  31.4836 i
 128.7  26.9381  31.4954 i
 128.75  30.0164  31.5072 i
 128.8  30.4907  31.519 i
 128.85  24.2321  31.5308 i
 128.9  29.6064  31.5426 i
 128.95  24.519  31.5543 i
 129  26.3173  31.566 i
 129.05  30.8144  31.5776 i
 129.1  37.9438  31.5893 i
 129.15  24.6224  31.6009 i
 129.2  37.4829  31.6125 i
 129.25  25.4971  31.6241 i
 129.3  28.1415  31.6356 i
 129.35  32.3574  31.6471 i
 129.4  41.402  31.6587 i
 129.45  32.1841  31.6701 i
 129.5  34.2156  31.6816 i
 129.55  28.7665  31.693 i
 129.6  34.657  31.7044 i
 129.65  26.8082  31.7157 i
 129.7  38.7113  31.7271 i
 129.75  29.9506  31.7384 i
 129.8  21.7854  31.7497 i
 129.85  27.0111  31.7609 i
 129.9  38.5864  31.7721 i
 129.95  30.0993  31.7844 i
 130  32.7412  31.7966 i

