40 25.2957 5.02948307482986
40.05 37.9833 6.16305930524768
40.1 35.5871 5.96549243566698
40.15 37.3764 6.11362412976133
40.2 24.3782 4.93742848049468
40.25 41.7844 6.46408539547553
40.3 40.7495 6.38353350425922
40.35 53.8708 7.33967301723994
40.4 42.2324 6.49864601282452
40.45 37.7315 6.14259717057858
40.5 35.7025 5.97515690170559
40.55 39.7795 6.30709917473953
40.6 48.5985 6.9712624394725
40.65 34.9289 5.91006768150755
40.7 37.3601 6.11229089621886
40.75 37.0629 6.08793068291681
40.8 36.795 6.06588822844602
40.85 26.8824 5.18482400858506
40.9 36.4758 6.03951984846478
40.95 49.8512 7.06053822311019
41 40.1224 6.33422449870543
41.05 51.2621 7.15975558242039
41.1 30.076 5.4841590057182
41.15 48.2889 6.94902151385359
41.2 41.0521 6.4071912723127
41.25 44.8834 6.69950744458128
41.3 32.733 5.72127608143498
41.35 48.192 6.94204580797332
41.4 55.3922 7.4425936339424
41.45 39.9454 6.32023733731574
41.5 40.0106 6.32539326840632
41.55 42.8857 6.5487174316808
41.6 41.4091 6.43499028748296
41.65 32.8836 5.73442237718848
41.7 37.1235 6.09290571074262
41.75 47.0807 6.86153772852704
41.8 30.3644 5.51039018582169
41.85 28.2611 5.3161170039795
41.9 34.0152 5.83225513845202
41.95 49.9192 7.06535207898375
42 42.9154 6.55098465881275
42.05 48.6284 6.97340662804056
42.1 37.0607 6.08774999486674
42.15 30.7486 5.54514201801902
42.2 50.2337 7.08757363277448
42.25 31.2721 5.59214627848736
42.3 31.0027 5.56800682470846
42.35 26.9322 5.18962426385572
42.4 39.9449 6.32019778171538
42.45 48.2925 6.94928053830035
42.5 38.872 6.23474137394648
42.55 40.7742 6.385467876358
42.6 46.6312 6.82870412303828
42.65 30.5005 5.52272577628113
42.7 43.0374 6.56028962775273
42.75 31.3911 5.60277609761447
42.8 31.2382 5.58911442001325
42.85 37.2316 6.10177023494002
42.9 42.0958 6.48812761896682
42.95 41.267 6.42393960121046
43 33.7665 5.81089493968012
43.05 38.1774 6.17878628858451
43.1 40.3369 6.35113375705472
43.15 42.4581 6.51598802945493
43.2 42.5018 6.51934045743893
43.25 34.003 5.83120913704868
43.3 37.4905 6.12294863607396
43.35 49.7251 7.05160265471616
43.4 36.1402 6.01167198040612
43.45 40.8593 6.39212797118456
43.5 32.9778 5.74263005947623
43.55 56.2121 7.49747290758693
43.6 31.8406 5.64274755770626
43.65 50.2046 7.08552044665739
43.7 41.1164 6.41220710832082
43.75 40.0491 6.32843582569974
43.8 41.6839 6.45630699394011
43.85 33.7421 5.80879505577534
43.9 45.0002 6.70821883960266
43.95 58.251 7.63223427313392
44 71.0404 8.42854673119868
44.05 66.163 8.13406417481446
44.1 85.9424 9.27051239144849
44.15 96.8245 9.83994410553231
44.2 151.5183 12.309276989328
44.25 394.813 19.8699018618613
44.3 1254.8798 35.4242826321155
44.35 2097.4231 45.7976320348553
44.4 2351.3435 48.490653738633
44.45 1429.9216 37.8143041718342
44.5 487.3807 22.0767003875126
44.55 205.6109 14.3391387468007
44.6 97.489 9.87365180670252
44.65 65.1813 8.07349366755186
44.7 69.7432 8.35123942897101
44.75 52.662 7.25685882458795
44.8 33.0692 5.75058257918274
44.85 49.7394 7.0526165357263
44.9 41.9836 6.47947528739789
44.95 50.8668 7.13209646597689
45 41.2694 6.42412639975273
45.05 39.332 6.27152294104072
45.1 53.9819 7.34723757612342
45.15 26.8388 5.18061772378546
45.2 44.8243 6.69509521963654
45.25 33.4605 5.78450516466188
45.3 34.6026 5.88239747041969
45.35 37.9299 6.15872551750766
45.4 44.1911 6.64763867850833
45.45 32.7102 5.71928317186691
45.5 36.4211 6.03498964373594
45.55 29.4217 5.42417735698235
45.6 33.5469 5.79196857726283
45.65 30.8203 5.55160337199984
45.7 42.1216 6.49011556137485
45.75 39.503 6.28514120764204
45.8 51.1851 7.15437628308716
45.85 34.7235 5.8926649319302
45.9 30.5375 5.52607455613838
45.95 48.3024 6.94999280575167
46 31.7939 5.63860798424576
46.05 28.0065 5.29211677875687
46.1 29.2908 5.41209756009627
46.15 30.6729 5.53831201721246
46.2 37.1713 6.09682704363507
46.25 39.4329 6.27956208664267
46.3 37.3077 6.1080029469541
46.35 45.4028 6.73815998622769
46.4 32.7209 5.72021852729422
46.45 35.7602 5.97998327756859
46.5 35.6727 5.97266272277282
46.55 48.0373 6.93089460315189
46.6 30.9848 5.56639919517097
46.65 36.985 6.08152941290265
46.7 25.6139 5.06101768422123
46.75 21.4292 4.62916839183886
46.8 37.9971 6.1641787774204
46.85 35.2434 5.9366151972315
46.9 36.5146 6.04273117058835
46.95 28.242 5.31432027638531
47 21.9178 4.68164501003654
47.05 38.3327 6.19134072717695
47.1 34.9492 5.91178484046908
47.15 39.2454 6.26461491234697
47.2 41.171 6.41646320023734
47.25 32.5525 5.7054798220658
47.3 39.7725 6.30654422009392
47.35 29.5121 5.43250402668972
47.4 33.0508 5.74898251867233
47.45 32.7842 5.72574885931963
47.5 33.6075 5.79719759884032
47.55 38.0381 6.16750354681698
47.6 27.0241 5.19847092903288
47.65 37.6986 6.13991856623522
47.7 32.7871 5.72600209570342
47.75 23.378 4.83508014411344
47.8 43.3699 6.58558273807262
47.85 35.4363 5.95283965851593
47.9 39.6134 6.29391769885816
47.95 38.1257 6.17460120169716
48 27.8948 5.28155280197027
48.05 33.4101 5.78014705695279
48.1 33.8571 5.81868541854601
48.15 36.6781 6.05624471104
48.2 31.5103 5.61340360209383
48.25 36.1506 6.01253690217366
48.3 39.034 6.24771958397622
48.35 29.2118 5.40479416814369
48.4 29.825 5.46122696836526
48.45 39.9216 6.3183542160914
48.5 31.6189 5.62306855729147
48.55 32.616 5.71104193645958
48.6 36.6645 6.05512179894013
48.65 38.6251 6.21490949250269
48.7 38.8404 6.23220667179772
48.75 28.7023 5.35745275294146
48.8 24.4141 4.94106263874483
48.85 27.0908 5.20488232335756
48.9 39.0582 6.2496559905326
48.95 41.0709 6.40865820589615
49 42.2778 6.50213810988355
49.05 37.3791 6.11384494405934
49.1 29.8777 5.4660497619396
49.15 27.5661 5.25034284594825
49.2 41.923 6.47479729412435
49.25 39.4275 6.27913210563371
49.3 32.8727 5.73347189755038
49.35 30.6095 5.53258529080212
49.4 31.4959 5.61212081124418
49.45 24.2811 4.92758561569457
49.5 38.2006 6.18066339481451
49.55 37.339 6.11056462202962
49.6 37.5117 6.12467958345577
49.65 27.258 5.22091945925236
49.7 38.117 6.17389666256247
49.75 40.0301 6.32693448677952
49.8 34.6009 5.88225296973872
49.85 30.7744 5.54746789084894
49.9 28.1844 5.30889819077368
49.95 41.0739 6.40889225997754
50 31.0408 5.57142710622691
50.05 30.3584 5.50984573286766
50.1 30.1229 5.48843329193314
50.15 30.5995 5.53168148034574
50.2 19.3862 4.40297626611818
50.25 34.9985 5.91595300860309
50.3 35.8106 5.98419585240991
50.35 37.7353 6.1429064782072
50.4 34.107 5.84011986178366
50.45 42.9134 6.55083200822613
50.5 23.3577 4.83298044688782
50.55 30.3017 5.50469799353243
50.6 27.5116 5.2451501408444
50.65 33.3188 5.77224393108954
50.7 33.153 5.75786418735281
50.75 31.9029 5.64826522040175
50.8 33.4812 5.78629415083609
50.85 31.2137 5.58692222963592
50.9 43.458 6.59226819842761
50.95 36.2812 6.02338775109157
51 33.2304 5.76458151126342
51.05 26.438 5.14178957173473
51.1 29.2601 5.40926057793484
51.15 33.289 5.76966203516289
51.2 37.0046 6.08314063621745
51.25 30.5132 5.52387545116651
51.3 27.743 5.26716242392429
51.35 35.6787 5.97316499018736
51.4 35.4384 5.95301604230998
51.45 31.7622 5.6357963057584
51.5 40.1175 6.33383769921522
51.55 18.4124 4.29096725692471
51.6 37.0564 6.08739681637397
51.65 30.269 5.50172700158777
51.7 30.8702 5.55609575151473
51.75 40.4713 6.36170574610301
51.8 38.7465 6.22466866588094
51.85 47.6878 6.90563537989083
51.9 46.1499 6.79337176960013
51.95 36.6497 6.05389956969886
52 25.5852 5.05818149140578
52.05 25.7452 5.07397280244977
52.1 40.548 6.36773115010362
52.15 39.4982 6.28475934304568
52.2 34.8044 5.89952540464061
52.25 32.2418 5.6781863301586
52.3 33.6291 5.79906026869871
52.35 23.3455 4.83171812091724
52.4 37.2457 6.10292552797427
52.45 30.0288 5.47985401265399
52.5 36.588 6.0488015341884
52.55 38.2141 6.18175541411984
52.6 33.6023 5.79674908892907
52.65 30.183 5.49390571451677
52.7 38.8026 6.22917329988499
52.75 42.8912 6.54913734777337
52.8 35.0249 5.91818384303834
52.85 28.0011 5.29160656133844
52.9 32.744 5.72223732468341
52.95 27.9863 5.29020793542182
53 35.5536 5.96268395942633
53.05 31.2709 5.59203898412735
53.1 35.0923 5.92387542070223
53.15 38.6243 6.2148451308138
53.2 27.5909 5.25270406552663
53.25 43.8489 6.62185019462084
53.3 30.8846 5.55739147442395
53.35 23.6557 4.86371257374446
53.4 37.7533 6.14437140804493
53.45 35.6583 5.9714571086126
53.5 31.5859 5.62013345037286
53.55 42.6858 6.5334370740063
53.6 40.3908 6.35537567733018
53.65 30.2502 5.50001818178813
53.7 32.9216 5.73773474465315
53.75 30.0937 5.48577250713152
53.8 38.7999 6.22895657393756
53.85 31.9248 5.65020353615691
53.9 34.0064 5.83150066449452
53.95 46.6138 6.82742997034755
54 32.7247 5.72055067279366
54.05 31.9035 5.6483183338052
54.1 20.6441 4.54357788532342
54.15 40.304 6.34854313996526
54.2 29.554 5.43635907570499
54.25 29.887 5.46690040150724
54.3 28.1495 5.30561023822896
54.35 28.9472 5.38026021675532
54.4 32.5731 5.7072848185455
54.45 25.8593 5.08520402737196
54.5 36.1781 6.01482335567721
54.55 28.0082 5.29227739257874
54.6 35.099 5.92444090189108
54.65 26.3864 5.13676941277297
54.7 37.2509 6.10335153829435
54.75 27.2133 5.21663684762511
54.8 32.1582 5.67082004651885
54.85 41.1576 6.41541892630559
54.9 28.2886 5.31870284937972
54.95 28.0051 5.29198450489039
55 36.6458 6.05357745469569
55.05 37.9868 6.16334324859487
55.1 31.0377 5.57114889407921
55.15 30.3573 5.50974591065686
55.2 23.0939 4.80561130346598
55.25 29.7657 5.45579508412844
55.3 45.0679 6.71326299201811
55.35 44.9336 6.70325294166944
55.4 29.6534 5.44549354971613
55.45 42.0614 6.48547608121408
55.5 31.3447 5.59863376191013
55.55 32.0962 5.66535082761871
55.6 39.6761 6.29889672879307
55.65 33.3658 5.7763137033925
55.7 31.1718 5.58317114192284
55.75 33.41 5.78013840664737
55.8 25.8629 5.0855579831519
55.85 26.167 5.11536899939779
55.9 26.0003 5.0990489309282
55.95 36.0636 6.00529766123212
56 39.5969 6.29260677303135
56.05 33.9208 5.82415659130144
56.1 31.5561 5.61748164215959
56.15 33.3144 5.77186278423179
56.2 27.4786 5.24200343380277
56.25 32.9859 5.74333526794318
56.3 35.4079 5.95045376420992
56.35 35.9707 5.99755783631971
56.4 26.4024 5.13832657584159
56.45 29.4037 5.42251786534632
56.5 33.8859 5.82115967827717
56.55 27.0052 5.19665276885035
56.6 28.0881 5.29982075168585
56.65 25.6225 5.06186724440695
56.7 28.8671 5.3728111822397
56.75 24.3186 4.93138925658886
56.8 30.6301 5.53444667514287
56.85 36.6446 6.0534783389387
56.9 28.5768 5.3457272657703
56.95 36.6089 6.050528902501
57 24.9373 4.99372606377242
57.05 32.6692 5.71569768269806
57.1 29.7761 5.45674811586535
57.15 39.4265 6.27905247628971
57.2 39.801 6.30880337306529
57.25 31.5713 5.61883439869872
57.3 25.2403 5.02397253177204
57.35 33.8911 5.8216063075409
57.4 33.0955 5.75286884953933
57.45 31.7777 5.63717127644708
57.5 32.0968 5.66540378084387
57.55 29.8088 5.45974358372259
57.6 28.0768 5.29875457065148
57.65 20.8006 4.56076747927364
57.7 30.5374 5.52606550811696
57.75 28.331 5.32268729120921
57.8 31.2802 5.59287046157874
57.85 29.222 5.40573769248934
57.9 31.7454 5.6343056360123
57.95 37.8673 6.15364119851003
58 38.4353 6.1996209561553
58.05 36.9994 6.08271321040208
58.1 28.542 5.34247133824787
58.15 29.5456 5.43558644490178
58.2 26.7874 5.17565454797748
58.25 28.6004 5.34793418059721
58.3 34.1137 5.84069345197983
58.35 29.3538 5.41791472801114
58.4 30.6732 5.53833910121076
58.45 34.4773 5.87173739194797
58.5 41.2735 6.4244455013643
58.55 37.515 6.12494897937934
58.6 29.5929 5.43993566138424
58.65 32.0379 5.66020317656531
58.7 30.8602 5.55519576612742
58.75 26.6054 5.15804226427043
58.8 37.8946 6.15585899773541
58.85 41.0238 6.40498243557311
58.9 37.8074 6.14877223517021
58.95 32.6229 5.71164599743366
59 28.953 5.38079919714535
59.05 36.533 6.04425346920527
59.1 35.0634 5.9214356367354
59.15 22.5247 4.74601938470546
59.2 26.4412 5.14210073802527
59.25 31.3608 5.6000714281159
59.3 32.2877 5.68222667622473
59.35 37.2207 6.10087698613896
59.4 30.0044 5.47762722353393
59.45 32.8724 5.73344573533229
59.5 26.5095 5.14873770938082
59.55 27.1033 5.20608298051424
59.6 29.7646 5.45569427295922
59.65 25.9979 5.09881358749268
59.7 31.6936 5.62970691954741
59.75 30.5299 5.5253868642838
59.8 29.8394 5.46254519432105
59.85 34.9129 5.9087139040573
59.9 35.2179 5.93446712013808
59.95 26.6443 5.16181169745662
60 25.102 5.01018961717019
60.05 31.5063 5.6130473007093
60.1 27.3424 5.22899607955485
60.15 36.693 6.05747472136698
60.2 28.2459 5.31468719681601
60.25 38.2806 6.187131807227
60.3 32.6884 5.71737702097736
60.35 31.764 5.63595599698933
60.4 29.2293 5.40641285881868
60.45 27.4055 5.23502626545464
60.5 27.3633 5.23099416937163
60.55 25.2276 5.02270843270839
60.6 25.7199 5.07147907419522
60.65 31.6502 5.62585104673062
60.7 23.0907 4.80527834781712
60.75 32.0236 5.65893983003884
60.8 32.5693 5.70695190097131
60.85 38.4637 6.20191099581411
60.9 38.5279 6.20708466190046
60.95 26.9084 5.18733072012957
61 33.7994 5.81372513970174
61.05 31.1861 5.58445162930077
61.1 30.665 5.53759875758437
61.15 35.894 5.99116015476135
61.2 27.3674 5.23138604960483
61.25 31.0319 5.57062833080793
61.3 30.0985 5.48620998504432
61.35 33.3825 5.77775908116633
61.4 28.6355 5.35121481534801
61.45 31.9227 5.65001769908732
61.5 35.2559 5.93766789236313
61.55 27.4513 5.23939882047549
61.6 38.8747 6.23495789881536
61.65 26.5758 5.1551721600738
61.7 45.2813 6.72913813203444
61.75 36.4966 6.04124159424203
61.8 34.3542 5.8612456014059
61.85 29.1312 5.39733267457177
61.9 36.4196 6.03486536718095
61.95 34.7096 5.89148538146366
62 33.2204 5.76371408034784
62.05 27.4957 5.24363423590929
62.1 30.0006 5.47728034703355
62.15 33.0913 5.75250380269322
62.2 29.8318 5.46184950360224
62.25 34.0003 5.83097761957633
62.3 26.6878 5.16602361589647
62.35 28.6934 5.35662206992429
62.4 31.534 5.61551422400478
62.45 31.0214 5.56968580801467
62.5 33.8128 5.81487747076411
62.55 24.4547 4.94516936009274
62.6 34.5626 5.87899651301138
62.65 27.8017 5.27273173981002
62.7 34.0073 5.83157783108483
62.75 40.0256 6.32657885432561
62.8 48.3044 6.95013668930331
62.85 33.5546 5.79263325267533
62.9 35.5846 5.96528289354327
62.95 28.8211 5.36852866249217
63 33.0406 5.74809533671807
63.05 34.425 5.86728216468238
63.1 34.2123 5.84912814015901
63.15 30.9036 5.55910064668738
63.2 24.5412 4.95390754859232
63.25 37.864 6.15337305873778
63.3 28.3638 5.3257675503161
63.35 31.1109 5.57771458574209
63.4 35.2697 5.93882985107336
63.45 29.2208 5.40562669817293
63.5 38.4274 6.19898378768649
63.55 36.4233 6.03517191138745
63.6 37.5029 6.12396113638877
63.65 23.1356 4.80994802466721
63.7 24.9391 4.99390628666578
63.75 24.2739 4.9268549806139
63.8 26.8803 5.18462149052368
63.85 24.7827 4.97822257437331
63.9 30.0638 5.48304659837941
63.95 26.7157 5.16872324660549
64 33.0798 5.75150415108952
64.05 38.829 6.23129200086146
64.1 29.9635 5.47389258206626
64.15 44.1214 6.64239414669139
64.2 29.2812 5.41121058544204
64.25 35.7478 5.97894639547805
64.3 26.8294 5.17971041661597
64.35 34.362 5.86191095121719
64.4 39.4308 6.27939487530447
64.45 40.8924 6.39471656916864
64.5 48.1777 6.94101577580688
64.55 70.3631 8.38827157404909
64.6 113.6046 10.6585458670496
64.65 139.5289 11.8122351822168
64.7 161.3304 12.7015904515931
64.75 151.3395 12.3020120305583
64.8 94.7833 9.73567152280725
64.85 69.9994 8.36656440840564
64.9 62.4341 7.90152516923157
64.95 42.4541 6.51568108489051
65 34.7454 5.89452288145529
65.05 31.6886 5.6292628291811
65.1 26.2669 5.12512438873438
65.15 31.5482 5.61677843607882
65.2 33.5363 5.79105344475424
65.25 34.5155 5.8749893616925
65.3 40.5033 6.3642202978841
65.35 22.2407 4.71600466496801
65.4 31.6904 5.62942270574879
65.45 30.7366 5.54405988423646
65.5 38.2176 6.1820384987478
65.55 38.7843 6.22770423189798
65.6 30.0692 5.48353900323505
65.65 25.3518 5.03505709997414
65.7 37.2314 6.10175384623143
65.75 25.7177 5.0712621703083
65.8 32.075 5.66347949585765
65.85 24.181 4.91741802168577
65.9 26.2084 5.11941402896855
65.95 26.6818 5.16544286581509
66 33.1072 5.75388564363248
66.05 42.2723 6.50171515832553
66.1 32.2402 5.67804543835288
66.15 35.9658 5.99714932280329
66.2 34.5775 5.88026359953361
66.25 23.359 4.83311493759459
66.3 31.3724 5.60110703343544
66.35 24.0164 4.90065301771101
66.4 40.276 6.34633752647935
66.45 24.8573 4.98570957838501
66.5 27.4878 5.2428808874511
66.55 39.1381 6.25604507656395
66.6 36.7542 6.06252422675572
66.65 31.1656 5.58261587430122
66.7 39.3646 6.27412145244257
66.75 30.4555 5.51865019728556
66.8 34.9501 5.91186095912277
66.85 28.7101 5.35818066138125
66.9 30.6822 5.53915155958022
66.95 32.4496 5.6964550380039
67 26.2366 5.12216750995123
67.05 19.2065 4.38252210490717
67.1 21.9825 4.68854988242634
67.15 26.9298 5.18939302809105
67.2 37.5367 6.12672016661443
67.25 27.0316 5.19919224495498
67.3 22.0275 4.6933463541486
67.35 21.5099 4.63787666933911
67.4 22.5971 4.75364071002427
67.45 29.0995 5.39439523950554
67.5 36.7494 6.06212833912315
67.55 18.1536 4.26070416715359
67.6 28.9923 5.38444983261986
67.65 39.5162 6.28619121567265
67.7 37.2883 6.10641466001122
67.75 27.6048 5.25402702695751
67.8 22.6153 4.75555464693657
67.85 23.2134 4.81802864250515
67.9 35.4748 5.95607253145896
67.95 26.2768 5.12609012796303
68 36.0828 6.00689603705608
68.05 33.5451 5.79181318759506
68.1 26.8946 5.18600038565367
68.15 34.3648 5.86214977631926
68.2 36.0789 6.00657140139031
68.25 29.8914 5.46730280851536
68.3 27.9709 5.28875221578777
68.35 20.2402 4.49891097933711
68.4 27.1503 5.21059497562419
68.45 39.0144 6.2461508147018
68.5 25.9197 5.09113936167534
68.55 36.2693 6.02239985387885
68.6 31.2591 5.5909838132479
68.65 34.2891 5.85568954095075
68.7 26.4415 5.14212990889962
68.75 27.671 5.26032318398784
68.8 38.3671 6.19411817775541
68.85 30.4194 5.51537850015754
68.9 45.6141 6.75382114065808
68.95 40.3798 6.35451020929229
69 40.0975 6.33225868075523
69.05 28.2996 5.31973683559629
69.1 38.5994 6.21284153990748
69.15 27.7719 5.2699051224856
69.2 23.9816 4.89710118335327
69.25 24.4863 4.94836336580086
69.3 17.9349 4.23496162910598
69.35 45.7117 6.76104281897401
69.4 36.4513 6.03749120082175
69.45 28.8184 5.36827719105487
69.5 30.5021 5.52287063038779
69.55 29.7696 5.45615249053763
69.6 36.2832 6.02355376833311
69.65 28.5881 5.3467840801738
69.7 29.2274 5.40623713871303
69.75 23.5608 4.85394684766943
69.8 38.2071 6.18118920597
69.85 37.9633 6.16143652081233
69.9 22.0246 4.69303739597289
69.95 19.7338 4.44227419234788
70 34.7337 5.89353035115626
70.05 30.5765 5.52960215567088
70.1 15.3211 3.91421767406975
70.15 19.4055 4.40516742020096
70.2 29.6218 5.44259129459488
70.25 31.4909 5.61167532916864
70.3 24.0715 4.90627149676819
70.35 29.6459 5.44480486335369
70.4 29.8181 5.46059520565295
70.45 25.0652 5.00651575449434
70.5 37.9841 6.1631242077375
70.55 16.8672 4.10696968579024
70.6 25.9247 5.0916303872139
70.65 33.6895 5.80426567276171
70.7 28.257 5.31573137018793
70.75 19.2985 4.39300580468544
70.8 40.287 6.34720410889708
70.85 33.9529 5.82691170346694
70.9 22.6965 4.76408438212423
70.95 20.241 4.49899988886419
71 20.3784 4.51424412277404
71.05 28.9055 5.37638354286597
71.1 20.654 4.54466720453764
71.15 24.122 4.91141527464335
71.2 35.8692 5.9890900811392
71.25 36.0121 6.00100824861956
71.3 29.5414 5.43520008831322
71.35 29.6389 5.44416201081489
71.4 36.7863 6.06517106106662
71.45 24.4934 4.94908072272013
71.5 31.7297 5.6329122130564
71.55 25.1432 5.01429955228046
71.6 31.1051 5.57719463529829
71.65 25.0646 5.00645583222303
71.7 34.4043 5.86551787994888
71.75 25.3844 5.03829336184387
71.8 25.2346 5.02340521956969
71.85 35.6012 5.96667411545159
71.9 33.7342 5.80811501263534
71.95 28.6076 5.34860729536204
72 29.883 5.46653455124908
72.05 25.8899 5.08821186665807
72.1 37.7298 6.14245879107056
72.15 30.6327 5.53468156265562
72.2 32.9949 5.74411873136341
72.25 24.1412 4.91336951592286
72.3 33.3755 5.77715327821584
72.35 30.7448 5.54479936517093
72.4 32.179 5.6726536999891
72.45 30.8285 5.55234184826547
72.5 31.998 5.65667747003486
72.55 37.0789 6.08924461653496
72.6 33.5224 5.78985319330292
72.65 34.8037 5.89946607753617
72.7 33.2228 5.76392227567305
72.75 40.2662 6.34556538064182
72.8 37.0237 6.08471034643392
72.85 28.406 5.32972794802887
72.9 33.6016 5.79668870994467
72.95 31.5439 5.6163956413344
73 39.1977 6.26080665729265
73.05 30.6644 5.53754458221331
73.1 33.4607 5.78452245219949
73.15 40.2536 6.34457248362725
73.2 24.7184 4.97176025166138
73.25 38.6831 6.21957394039174
73.3 31.1091 5.57755322699838
73.35 22.5703 4.75082098168306
73.4 35.214 5.93413852214456
73.45 22.7905 4.77393967284883
73.5 23.5375 4.85154614530255
73.55 26.6968 5.16689461862732
73.6 32.4258 5.69436563631104
73.65 36.4803 6.03989238314724
73.7 31.8972 5.64776061815655
73.75 29.6914 5.44898155621764
73.8 36.1807 6.01503948449218
73.85 32.627 5.71200490195868
73.9 25.2997 5.02988071429134
73.95 29.3437 5.41698255489161
74 39.8823 6.31524346324035
74.05 29.3279 5.41552398203535
74.1 32.2316 5.67728808499269
74.15 25.7102 5.07052265550604
74.2 33.2404 5.76544881167113
74.25 37.5154 6.12498163262552
74.3 27.7176 5.26475070634878
74.35 27.0091 5.19702799684589
74.4 24.9996 4.99995999984
74.45 35.1844 5.93164395425079
74.5 31.2984 5.59449729645122
74.55 35.1982 5.93280709276814
74.6 35.0033 5.91635867742989
74.65 31.3111 5.5956322252271
74.7 31.1926 5.58503357196714
74.75 28.335 5.32306302799431
74.8 23.9296 4.89178903878734
74.85 28.6923 5.35651939229198
74.9 29.9745 5.47489725930999
74.95 26.4893 5.14677568969156
75 32.5044 5.70126301796365
75.05 25.0707 5.0070650085654
75.1 40.791 6.38678322788554
75.15 35.9457 5.99547329240987
75.2 35.074 5.92233062231416
75.25 30.3972 5.51336557830152
75.3 39.7033 6.30105546714199
75.35 34.3014 5.85673970737987
75.4 28.1091 5.30180158059503
75.45 32.6007 5.70970226894538
75.5 28.9081 5.37662533565433
75.55 37.2939 6.10687317700311
75.6 27.2252 5.21777730456178
75.65 42.7373 6.53737714989735
75.7 29.9694 5.47443147733169
75.75 37.3915 6.11485895176659
75.8 21.8295 4.67220504687027
75.85 27.7535 5.2681590712506
75.9 33.2615 5.76727838759323
75.95 33.4144 5.78051900784004
76 37.4092 6.11630607474806
76.05 25.7572 5.0751551700416
76.1 26.85 5.18169856321265
76.15 32.9605 5.74112358341118
76.2 29.2696 5.41013863038647
76.25 24.2078 4.92014227436565
76.3 28.4354 5.3324853492532
76.35 30.4031 5.51390061571661
76.4 27.9366 5.28550849020224
76.45 25.5976 5.05940707988594
76.5 37.3278 6.10964810770637
76.55 23.6003 4.85801399750968
76.6 27.0364 5.19965383463169
76.65 34.4156 5.86648105766992
76.7 25.4785 5.0476232030531
76.75 32.9521 5.74039197267922
76.8 35.0502 5.92032093724656
76.85 28.4245 5.33146321379038
76.9 21.3986 4.62586208181783
76.95 28.7834 5.36501630938807
77 26.6533 5.16268341078552
77.05 32.4866 5.69970174658289
77.1 36.0506 6.00421518601724
77.15 30.0265 5.47964414903012
77.2 30.7038 5.54110097363331
77.25 29.7864 5.45769181980808
77.3 30.7637 5.54650340304592
77.35 33.1464 5.75729102964233
77.4 32.9878 5.74350067467568
77.45 34.2283 5.85049570549368
77.5 29.8943 5.46756801512336
77.55 27.3592 5.2306022597785
77.6 29.5717 5.43798675982206
77.65 30.0762 5.48417724002425
77.7 27.5957 5.25316095317857
77.75 30.1792 5.49355986587932
77.8 27.5884 5.25246608746787
77.85 31.9176 5.64956635504
77.9 36.9996 6.08272965041189
77.95 34.5551 5.87835861444332
78 30.5467 5.52690691074131
78.05 23.1547 4.8119330834915
78.1 34.7394 5.89401391243692
78.15 40.5054 6.36438528060645
78.2 33.1428 5.75697837411259
78.25 28.9936 5.38457054926389
78.3 28.8324 5.36958098923929
78.35 29.002 5.38535049927115
78.4 30.9528 5.56352406303774
78.45 20.5326 4.53129120670919
78.5 31.2367 5.58898022898632
78.55 23.8954 4.88829213529633
78.6 36.5032 6.04178781487732
78.65 33.3669 5.77640891904304
78.7 21.9172 4.68158092955788
78.75 36.2871 6.02387748879407
78.8 31.4165 5.60504237272119
78.85 22.073 4.6981911412798
78.9 35.4551 5.95441852744666
78.95 25.7958 5.07895658575657
79 27.5131 5.24529312812926
79.05 28.0682 5.29794299705084
79.1 31.5029 5.61274442674883
79.15 39.879 6.31498218524803
79.2 27.4991 5.24395842851562
79.25 33.928 5.82477467375348
79.3 29.535 5.43461130164798
79.35 23.2889 4.82585743676707
79.4 18.6752 4.32148122754224
79.45 26.0893 5.10776859303552
79.5 37.2065 6.09971310800762
79.55 41.9095 6.47375470650534
79.6 30.2527 5.50024544906861
79.65 40.3468 6.35191309764232
79.7 22.6687 4.76116582361925
79.75 34.5964 5.88187045080049
79.8 17.2611 4.15464799953017
79.85 27.7021 5.26327844598782
79.9 30.895 5.55832708645326
79.95 34.2979 5.8564408987029
80 28.0594 5.29711242093275
80.05 21.9576 4.68589372478719
80.1 37.0509 6.08694504657303
80.15 38.8428 6.23239921699501
80.2 32.4435 5.69591959212909
80.25 31.9517 5.65258348014428
80.3 27.8259 5.27502606628631
80.35 28.3573 5.32515727467274
80.4 31.6527 5.62607323094892
80.45 28.3673 5.32609613131419
80.5 36.7464 6.06188089622355
80.55 43.7772 6.61643408491311
80.6 31.3962 5.6032312106498
80.65 28.7506 5.36195859737839
80.7 29.2579 5.40905721914642
80.75 22.5721 4.75101041884776
80.8 32.5615 5.70626848299307
80.85 31.469 5.60972370086085
80.9 29.2708 5.41024953213805
80.95 27.6782 5.26100750807295
81 24.9869 4.99868982834502
81.05 27.0499 5.20095183596234
81.1 35.3501 5.9455950080711
81.15 24.3674 4.93633467260882
81.2 37.3007 6.10742990135785
81.25 32.0097 5.65771155150207
81.3 25.9783 5.09689120935497
81.35 37.2593 6.10403964600493
81.4 17.0525 4.12946727799119
81.45 26.9117 5.18764879304681
81.5 36.4772 6.03963575060616
81.55 32.7384 5.72174798466343
81.6 40.2174 6.34171900985845
81.65 35.1423 5.92809412880734
81.7 48.6767 6.97686892524147
81.75 71.0365 8.4283153714132
81.8 57.6699 7.59407005498369
81.85 124.0408 11.1373605490709
81.9 211.5724 14.5455285225392
81.95 274.3241 16.5627322625224
82 272.4436 16.5058656240744
82.05 201.6748 14.2012252992479
82.1 128.7999 11.3490043616169
82.15 87.1861 9.33734973105324
82.2 69.5812 8.34153463098967
82.25 50.0199 7.07247481437721
82.3 45.6873 6.75923812274727
82.35 38.0479 6.16829798242595
82.4 37.9385 6.15942367433837
82.45 26.8698 5.18360878153435
82.5 26.4854 5.14639679776055
82.55 33.2866 5.76945404696146
82.6 36.119 6.00990848516015
82.65 32.6348 5.71268763367997
82.7 42.3803 6.51001536096498
82.75 32.9185 5.73746459684066
82.8 28.639 5.3515418339017
82.85 27.8473 5.27705410243253
82.9 27.1883 5.21424011721747
82.95 35.2226 5.9348630986738
83 30.5293 5.52533256917627
83.05 29.5365 5.43474930424578
83.1 28.1584 5.30644890675487
83.15 39.1423 6.25638074288961
83.2 37.0334 6.08550737408147
83.25 23.7828 4.87676122031826
83.3 28.7334 5.36035446589123
83.35 36.3477 6.02890537328295
83.4 34.6283 5.88458154841956
83.45 25.3683 5.03669534516433
83.5 38.0367 6.16739004766198
83.55 27.1691 5.21239868007043
83.6 38.2445 6.18421377379534
83.65 34.3673 5.86236300479593
83.7 33.1204 5.75503258027268
83.75 32.0348 5.6599293281807
83.8 25.6127 5.06089912960138
83.85 29.8267 5.46138260882718
83.9 29.6936 5.44918342506471
83.95 32.6538 5.71435035677723
84 26.8454 5.18125467430429
84.05 27.1351 5.20913620478482
84.1 36.2391 6.01989202560976
84.15 33.2477 5.76608185859341
84.2 22.3906 4.73187066602628
84.25 33.4992 5.78784934150847
84.3 35.1572 5.92935072330858
84.35 35.7614 5.98008361145561
84.4 27.707 5.26374391474357
84.45 30.4716 5.52010869458202
84.5 27.0307 5.19910569232825
84.55 31.1132 5.57792075956624
84.6 28.8934 5.37525813333648
84.65 31.5523 5.61714340212176
84.7 26.1715 5.11580883145569
84.75 36.9001 6.07454525046937
84.8 25.2257 5.02251928816605
84.85 22.6584 4.76008403287169
84.9 26.8159 5.1784070909885
84.95 27.6791 5.26109304232495
85 36.2017 6.01678485571821
85.05 20.9369 4.57568574095731
85.1 29.8284 5.46153824485373
85.15 32.6056 5.7101313470007
85.2 35.19 5.93211597998556
85.25 32.9854 5.74329173906393
85.3 36.3112 6.02587752945577
85.35 31.3867 5.6023834213663
85.4 35.188 5.93194740367782
85.45 17.416 4.17324813544558
85.5 28.8435 5.37061448998157
85.55 27.8013 5.27269380867124
85.6 36.2691 6.02238324917968
85.65 33.6553 5.80131881557978
85.7 35.1658 5.9300758848433
85.75 25.9058 5.0897740617831
85.8 36.2622 6.02181035901995
85.85 36.4176 6.03469966112648
85.9 36.0655 6.00545585280585
85.95 38.8131 6.23001605134369
86 36.1462 6.01217098891906
86.05 23.3639 4.8336218304704
86.1 29.7184 5.45145852043286
86.15 34.925 5.90973772683695
86.2 26.2778 5.12618766726307
86.25 28.5102 5.33949435808298
86.3 31.7226 5.6322819531696
86.35 28.201 5.31046137355315
86.4 30.9146 5.56008992733031
86.45 27.7381 5.26669725729513
86.5 24.6614 4.96602456699521
86.55 33.913 5.82348692794961
86.6 35.0733 5.92227152366387
86.65 32.9589 5.74098423617414
86.7 35.9638 5.99698257459533
86.75 24.6098 4.96082654403477
86.8 33.6419 5.80016379079074
86.85 21.5219 4.63917018441876
86.9 33.3274 5.77298882728869
86.95 32.9869 5.74342232471198
87 30.223 5.4975449065924
87.05 28.6583 5.35334474884628
87.1 30.9052 5.55924455299459
87.15 36.0641 6.00533929099764
87.2 31.0265 5.5701436247192
87.25 24.1314 4.91237213574053
87.3 31.5663 5.61838944894353
87.35 34.0196 5.83263233883296
87.4 35.2206 5.93469460039857
87.45 25.0671 5.00670550362212
87.5 38.6107 6.21375088010454
87.55 31.8675 5.64513064507811
87.6 32.8394 5.73056716215769
87.65 27.7574 5.26852920652434
87.7 34.268 5.85388759714431
87.75 28.886 5.37456975022187
87.8 28.7749 5.36422408182209
87.85 24.1792 4.91723499540138
87.9 19.9265 4.46391084140353
87.95 30.6824 5.53916961285715
88 39.5082 6.2855548681083
88.05 31.8784 5.64609599635004
88.1 30.4029 5.5138824797052
88.15 29.7545 5.45476855604342
88.2 32.7624 5.72384486162929
88.25 31.7384 5.63368440720635
88.3 26.2335 5.12186489474293
88.35 24.0612 4.9052217075276
88.4 24.5312 4.95289814149251
88.45 27.871 5.27929919591606
88.5 22.3094 4.72328275672757
88.55 26.6266 5.16009689831499
88.6 29.3341 5.41609638023549
88.65 31.3785 5.60165154217932
88.7 34.9008 5.90768990384566
88.75 25.9556 5.09466387507557
88.8 30.6071 5.53236838975859
88.85 30.4442 5.51762630122773
88.9 27.0373 5.19974037813428
88.95 45.6095 6.75348058411365
89 29.9661 5.4741300678738
89.05 35.5587 5.96311160385247
89.1 25.166 5.01657253510801
89.15 34.3827 5.86367632121692
89.2 36.1387 6.01154722180571
89.25 24.5297 4.95274671268378
89.3 25.3659 5.03645708807292
89.35 22.0657 4.69741418229221
89.4 30.0834 5.48483363466933
89.45 34.1929 5.84746953818487
89.5 29.9514 5.47278722407513
89.55 36.6841 6.05674004725314
89.6 23.7142 4.86972278471783
89.65 39.1769 6.25914530906577
89.7 27.2923 5.22420328854075
89.75 37.9169 6.15767001389324
89.8 33.836 5.81687201165712
89.85 36.3688 6.03065502246647
89.9 40.9608 6.40006249969483
89.95 21.7311 4.66166279346758
90 24.7522 4.97515828893916
90.05 32.858 5.73218980844145
90.1 35.9327 5.99438904309689
90.15 33.0191 5.74622484767173
90.2 26.7044 5.16763001771605
90.25 21.5287 4.63990301622782
90.3 38.0374 6.16744679750057
90.35 29.1018 5.39460841952407
90.4 28.8679 5.37288563064579
90.45 44.2432 6.65155620888826
90.5 30.1378 5.48979052423679
90.55 21.2376 4.60842706354348
90.6 27.4313 5.23748985679209
90.65 29.9583 5.4734175795384
90.7 34.2642 5.85356301751335
90.75 32.596 5.70929067398044
90.8 33.5168 5.7893695684418
90.85 34.4845 5.87235046638056
90.9 28.3078 5.32050749459109
90.95 27.4997 5.24401563689507
91 32.8308 5.72981675099649
91.05 27.7723 5.26994307369634
91.1 29.8054 5.45943220490922
91.15 36.8697 6.07204248996991
91.2 24.1189 4.91109967318929
91.25 28.3184 5.32150354693107
91.3 27.4462 5.23891210080872
91.35 26.2132 5.11988281115887
91.4 37.2214 6.1009343546706
91.45 32.0165 5.65831246927916
91.5 30.529 5.52530542142242
91.55 19.0869 4.36885568541695
91.6 42.3971 6.51130555265225
91.65 34.8698 5.90506562198931
91.7 35.492 5.95751626099333
91.75 33.3149 5.77190609764227
91.8 34.056 5.83575187957816
91.85 36.7564 6.06270566661454
91.9 27.0021 5.19635449137181
91.95 27.0124 5.19734547629845
92 29.7854 5.45760020521841
92.05 30.4804 5.52090572279585
92.1 36.1095 6.00911807173066
92.15 29.0584 5.39058438390496
92.2 31.5899 5.62048930254297
92.25 33.9493 5.82660278378405
92.3 34.6499 5.88641656697859
92.35 40.795 6.38709636689474
92.4 30.4167 5.51513372458003
92.45 26.1425 5.11297369443654
92.5 33.2576 5.76694026325919
92.55 30.5224 5.52470813708742
92.6 27.8599 5.2782478153266
92.65 25.4455 5.04435327866715
92.7 27.2147 5.21677103196987
92.75 23.3517 4.83235967204429
92.8 29.0857 5.39311598243539
92.85 28.6039 5.34826139974478
92.9 32.2089 5.67528853892029
92.95 36.3357 6.02791008559351
93 24.6372 4.96358741234603
93.05 25.7423 5.07368702227483
93.1 39.5645 6.29003179642202
93.15 24.3292 4.9324638873488
93.2 28.9285 5.37852210184173
93.25 31.9305 5.65070792025212
93.3 31.277 5.59258437576046
93.35 28.5891 5.34687759351194
93.4 23.3882 4.83613482028779
93.45 31.1496 5.58118267036656
93.5 40.6952 6.37927895612035
93.55 30.9215 5.5607103862726
93.6 26.7552 5.17254289494055
93.65 28.3397 5.32350448482952
93.7 39.4571 6.28148867705737
93.75 37.0819 6.08949094752591
93.8 31.9632 5.65360062261211
93.85 40.4791 6.3623187596976
93.9 25.6272 5.0623314786766
93.95 26.0155 5.10053918718404
94 25.5622 5.05590743586154
94.05 40.6123 6.37277804414998
94.1 32.0774 5.66369137577252
94.15 36.1216 6.01012479071774
94.2 27.0311 5.19914416034024
94.25 31.0834 5.57524887336879
94.3 29.9148 5.46944238474088
94.35 46.2743 6.80252159129245
94.4 30.5481 5.52703356240941
94.45 28.9564 5.3811151260682
94.5 34.0978 5.83933215359428
94.55 36.041 6.0034156944193
94.6 28.5318 5.34151663855875
94.65 29.5807 5.43881420899813
94.7 36.0644 6.00536426871843
94.75 27.2646 5.2215514935697
94.8 36.7429 6.06159220007417
94.85 23.8122 4.87977458495779
94.9 27.2233 5.21759523152189
94.95 30.8032 5.55006306270478
95 25.7377 5.07323368277078
95.05 34.2412 5.85159807232178
95.1 34.0619 5.83625736238559
95.15 25.2879 5.02870758744232
95.2 29.7423 5.45365015379608
95.25 26.5673 5.15434767938679
95.3 31.1127 5.57787593981795
95.35 26.504 5.14820357017863
95.4 23.9304 4.89187080777896
95.45 28.7203 5.35913239246802
95.5 24.7123 4.97114674899062
95.55 33.2723 5.76821462846174
95.6 29.3525 5.41779475432579
95.65 29.7068 5.4503944811362
95.7 26.141 5.11282700665688
95.75 28.1509 5.30574217240152
95.8 29.8115 5.45999084248316
95.85 28.7251 5.35958020744162
95.9 35.0652 5.92158762495329
95.95 31.7753 5.63695839970458
96 31.0175 5.56933568749451
96.05 31.1967 5.58540061231063
96.1 32.2577 5.67958625253636
96.15 29.1024 5.39466403031737
96.2 32.9207 5.73765631595341
96.25 36.2014 6.01675992540836
96.3 28.2385 5.31399096724863
96.35 27.7974 5.2723239657669
96.4 30.961 5.56426095721615
96.45 46.9273 6.8503503560037
96.5 31.7865 5.63795175573541
96.55 21.5119 4.63809228023764
96.6 27.7209 5.26506410217388
96.65 22.8959 4.78496603958691
96.7 27.9347 5.28532875041846
96.75 30.5292 5.52532351993981
96.8 26.338 5.13205611816551
96.85 36.8954 6.07415837791541
96.9 32.4071 5.69272342556706
96.95 29.8767 5.46595828743689
97 19.8543 4.45581642350759
97.05 26.8133 5.17815604245372
97.1 30.404 5.51398222702975
97.15 27.0206 5.19813428068187
97.2 29.4362 5.42551380055382
97.25 32.4515 5.6966218059478
97.3 38.7845 6.22772028915879
97.35 36.9999 6.0827543103433
97.4 32.9192 5.73752559907143
97.45 42.5007 6.5192560925308
97.5 23.1758 4.81412505030769
97.55 26.385 5.13663313854513
97.6 19.5023 4.41614084920307
97.65 29.0615 5.39087191463496
97.7 34.6025 5.8823889704779
97.75 26.028 5.10176440067552
97.8 36.2463 6.02049001327965
97.85 35.3435 5.9450399494032
97.9 28.964 5.38182125307038
97.95 29.1877 5.4025642060044
98 24.2194 4.92132096088032
98.05 36.6981 6.057895674242
98.1 40.8221 6.38921747947274
98.15 39.9159 6.31790313316056
98.2 35.8879 5.99065104976079
98.25 51.0372 7.14403247473022
98.3 36.8575 6.07103780255073
98.35 54.52 7.38376597678989
98.4 93.2919 9.65877321402672
98.45 118.6316 10.8918134394599
98.5 150.8038 12.2802198677385
98.55 175.7719 13.2578995319772
98.6 129.7056 11.3888366394465
98.65 96.1533 9.80577890837847
98.7 79.1705 8.89778062215517
98.75 58.7037 7.66183398410589
98.8 45.6273 6.75479829454589
98.85 43.3937 6.58738946776339
98.9 39.3144 6.27011961608389
98.95 39.9411 6.31989715106187
99 36.9524 6.07884857518264
99.05 44.3207 6.65737936428442
99.1 27.9664 5.28832676751352
99.15 27.7141 5.26441829645024
99.2 25.0977 5.00976047331606
99.25 32.3797 5.69031633567063
99.3 36.36 6.02992537267253
99.35 29.0658 5.39127072219528
99.4 34.2204 5.84982051006695
99.45 19.5832 4.42529095088673
99.5 29.8014 5.4590658541549
99.55 32.7013 5.71850504939884
99.6 25.4916 5.04892067673874
99.65 34.8062 5.89967795731259
99.7 43.2006 6.57271633344997
99.75 25.2617 5.02610186924221
99.8 34.6489 5.88633162504458
99.85 33.9305 5.82498927037638
99.9 30.605 5.53217859436949
99.95 25.0017 5.0001699971101
100 31.1446 5.58073471865488
100.05 29.9632 5.47386517919468
100.1 28.0817 5.29921692328216
100.15 28.0564 5.29682924021532
100.2 19.3096 4.3942689949524
100.25 32.3704 5.68949909921779
100.3 26.5023 5.14803846139479
100.35 33.4933 5.78733963060749
100.4 34.5906 5.88137738969368
100.45 32.582 5.70806447055392
100.5 28.0705 5.29816005798239
100.55 31.8167 5.64062939750521
100.6 29.156 5.39962961692744
100.65 14.3018 3.78177207139722
100.7 33.9702 5.82839600576351
100.75 26.9626 5.1925523589079
100.8 21.4514 4.63156561002864
100.85 29.0597 5.39070496317504
100.9 26.7542 5.17244622978335
100.95 29.8541 5.46389055527286
101 27.9514 5.2869083593344
101.05 25.7069 5.07019723482233
101.1 36.8918 6.07386203333596
101.15 32.2777 5.68134667134474
101.2 29.174 5.40129614074252
101.25 16.7829 4.09669378889856
101.3 20.2419 4.499099909982
101.35 37.8631 6.15329992768108
101.4 28.9831 5.3835954528549
101.45 32.9964 5.74424929821121
101.5 41.2091 6.41943143899832
101.55 30.0907 5.48549906571863
101.6 39.8353 6.31152121124535
101.65 36.9898 6.08192403767097
101.7 20.5324 4.53126913789062
101.75 28.8752 5.37356492470315
101.8 28.6392 5.35156052007263
101.85 31.9879 5.65578464936564
101.9 26.3306 5.13133510891659
101.95 22.5744 4.75125246645556
102 37.068 6.08834953004507
102.05 42.278 6.50215348942179
102.1 25.6335 5.06295368337495
102.15 42.0859 6.4873646421332
102.2 26.3613 5.13432566166191
102.25 29.0518 5.38997217061461
102.3 25.0946 5.00945106773187
102.35 31.5018 5.61264643461531
102.4 30.7181 5.54239118070892
102.45 35.0588 5.92104720467588
102.5 24.8804 4.9880256615218
102.55 34.4034 5.86544115987877
102.6 34.8995 5.90757987673464
102.65 38.9309 6.2394631179293
102.7 26.618 5.15926351333211
102.75 32.5677 5.70681171934032
102.8 29.8626 5.46466833394306
102.85 42.2987 6.50374507495489
102.9 29.4282 5.42477649309167
102.95 34.8077 5.899805081526
103 31.0546 5.572665430474
103.05 26.9695 5.19321672954249
103.1 26.2147 5.12002929679118
103.15 29.7559 5.45489688261841
103.2 27.6334 5.25674804418093
103.25 32.001 5.65694263714951
103.3 37.146 6.0947518407233
103.35 32.0824 5.66413276680552
103.4 35.2308 5.93555389159259
103.45 37.5947 6.13145170412358
103.5 37.0058 6.08323926867915
103.55 25.5865 5.05830999445467
103.6 33.6575 5.80150842453926
103.65 28.4113 5.33022513595814
103.7 28.6715 5.35457748099698
103.75 30.3591 5.50990925515112
103.8 31.1963 5.58536480455843
103.85 30.0484 5.48164208973917
103.9 29.3654 5.41898514484031
103.95 29.8587 5.46431148453307
104 41.4604 6.43897507372097
104.05 25.9696 5.09603767646983
104.1 31.0236 5.56988330218866
104.15 32.6464 5.71370282741411
104.2 32.9065 5.73641874343218
104.25 23.9041 4.88918193566163
104.3 35.291 5.94062286296647
104.35 38.8687 6.23447672222778
104.4 34.9704 5.91357759736016
104.45 28.4123 5.33031893980088
104.5 25.8658 5.08584309628207
104.55 26.4823 5.14609560735127
104.6 22.2484 4.71682096331841
104.65 25.5278 5.05250432953798
104.7 24.703 4.97021126311548
104.75 32.7469 5.72249071646254
104.8 31.9336 5.65098221550909
104.85 33.1177 5.75479799819246
104.9 28.0957 5.30053770857259
104.95 36.1481 6.01232899964731
105 31.1772 5.58365471711853
105.05 30.5363 5.5259659789036
105.1 30.1952 5.49501592354381
105.15 32.3739 5.6898066750989
105.2 37.3158 6.10866597548106
105.25 24.663 4.96618565903451
105.3 38.5941 6.212414989358
105.35 25.4769 5.04746471012924
105.4 29.3817 5.42048890783848
105.45 31.3122 5.59573051531255
105.5 33.8008 5.81384554318396
105.55 28.3368 5.32323210089509
105.6 32.5806 5.70794183572328
105.65 39.2811 6.26746360180895
105.7 33.1232 5.75527584047889
105.75 23.6666 4.86483298788355
105.8 25.2488 5.02481840467892
105.85 43.6271 6.60508137724283
105.9 31.16 5.58211429478115
105.95 27.9705 5.28871439954929
106 33.6988 5.80506675241551
106.05 25.2417 5.024111861812
106.1 29.5538 5.43634068100961
106.15 35.0209 5.91784589187654
106.2 43.1619 6.56977168553063
106.25 30.6459 5.53587391474914
106.3 31.1901 5.5848097550409
106.35 27.2768 5.22271959806383
106.4 35.3614 5.94654521550118
106.45 28.886 5.37456975022187
106.5 30.768 5.54689102110362
106.55 44.8399 6.69626015026298
106.6 32.6626 5.71512029619675
106.65 36.0877 6.00730388776862
106.7 21.2861 4.61368616184499
106.75 22.0756 4.69846783536931
106.8 28.2454 5.31464015715081
106.85 30.0092 5.47806535192854
106.9 26.6055 5.15805195786161
106.95 35.9437 5.99530649758626
107 26.5565 5.15329991364757
107.05 27.1858 5.21400038358265
107.1 32.0371 5.66013250728285
107.15 30.0831 5.48480628646081
107.2 30.0645 5.48311043113304
107.25 27.1166 5.20736017575124
107.3 21.4952 4.6362916215441
107.35 37.6316 6.13446004143804
107.4 26.8561 5.18228713986402
107.45 33.711 5.80611746350347
107.5 24.8274 4.9827101059564
107.55 31.8923 5.64732680123968
107.6 35.8591 5.98824682190038
107.65 36.2622 6.02181035901995
107.7 32.9148 5.73714214570286
107.75 27.1012 5.20588128946483
107.8 28.5068 5.33917596638283
107.85 38.9618 6.24193880136613
107.9 29.2809 5.41118286514141
107.95 32.8937 5.73530295625262
108 36.4715 6.03916384940829
108.05 36.7463 6.06187264795294
108.1 33.8125 5.8148516748065
108.15 26.8597 5.18263446521168
108.2 34.4153 5.86645548862343
108.25 44.5752 6.67646613112056
108.3 29.9843 5.47579218013248
108.35 43.303 6.58050150064568
108.4 37.2245 6.1011884088266
108.45 27.2406 5.21925282008833
108.5 23.4595 4.84350080004123
108.55 27.7979 5.2723713829737
108.6 19.8227 4.45226908441078
108.65 31.4268 5.60596111295824
108.7 32.4803 5.69914905928947
108.75 18.715 4.32608367926465
108.8 31.7088 5.63105673919203
108.85 25.6842 5.06795816873028
108.9 38.6786 6.21921216875578
108.95 25.2915 5.02906551955729
109 32.8115 5.72813233087365
109.05 21.2483 4.60958783406933
109.1 20.1263 4.48623450122706
109.15 34.2119 5.84909394692887
109.2 42.6473 6.53049002755536
109.25 31.3962 5.6032312106498
109.3 24.392 4.93882577137522
109.35 29.7553 5.4548418858845
109.4 29.8807 5.46632417626324
109.45 24.9604 4.99603843059679
109.5 31.6073 5.62203699738805
109.55 31.4854 5.61118525803595
109.6 35.702 5.97511506165363
109.65 34.4635 5.87056215366127
109.7 30.8174 5.55134218004979
109.75 36.0845 6.00703753941991
109.8 30.9982 5.56760271571167
109.85 22.0391 4.694581983521
109.9 38.8916 6.23631301331163
109.95 27.3302 5.22782937747589
110 32.1985 5.674372211972
110.05 34.2697 5.8540327979949
110.1 23.3305 4.83016562863014
110.15 25.6413 5.06372392612394
110.2 26.746 5.17165350734173
110.25 25.8465 5.08394531835267
110.3 24.8872 4.98870724737381
110.35 29.1583 5.39984259029835
110.4 45.2091 6.72377126321233
110.45 36.9894 6.08189115325159
110.5 28.866 5.3727088139969
110.55 29.0471 5.38953615814942
110.6 24.5019 4.94993939356837
110.65 35.1752 5.93086840184471
110.7 39.0493 6.24894391077404
110.75 36.8325 6.06897849724317
110.8 30.8308 5.55254896421454
110.85 39.7092 6.30152362528302
110.9 32.9704 5.74198571924382
110.95 40.4448 6.35962263031385
111 29.2165 5.40522894982257
111.05 31.9189 5.64968140694677
111.1 24.763 4.97624356317092
111.15 29.7001 5.44977981206581
111.2 33.3059 5.77112640651719
111.25 29.6185 5.44228812173703
111.3 30.2234 5.49758128634766
111.35 37.884 6.15499796913045
111.4 28.1795 5.30843668135921
111.45 25.5413 5.05384012410365
111.5 31.3572 5.59974999441939
111.55 31.6711 5.62770823692913
111.6 34.789 5.89822007049584
111.65 37.5663 6.12913533869175
111.7 29.3149 5.41432359579662
111.75 36.1164 6.00969217181712
111.8 29.6008 5.44066172445963
111.85 28.985 5.38377191195912
111.9 28.3591 5.32532628108363
111.95 34.2395 5.8514528110547
112 29.9006 5.46814410929339
112.05 30.9617 5.56432385829581
112.1 26.5541 5.15306704788517
112.15 29.7143 5.45108246130986
112.2 29.842 5.46278317343824
112.25 32.813 5.72826326210659
112.3 27.0289 5.19893258275196
112.35 28.3483 5.32431216214827
112.4 30.1767 5.49333232200638
112.45 39.0798 6.25138384679744
112.5 38.9717 6.24273177383107
112.55 27.023 5.19836512761464
112.6 25.8348 5.0827945069617
112.65 30.5923 5.531030645368
112.7 30.7218 5.54272496160508
112.75 39.4116 6.27786587942113
112.8 32.224 5.67661871187417
112.85 42.079 6.48683281733081
112.9 44.0844 6.63960842218877
112.95 45.1424 6.71880941834191
113 38.7907 6.22821804371042
113.05 26.9629 5.19258124635523
113.1 29.611 5.44159902969706
113.15 31.5398 5.61603062669712
113.2 30.3916 5.51285769814531
113.25 30.1883 5.49438804599748
113.3 28.5395 5.3422373590098
113.35 23.5066 4.84836054764907
113.4 24.8966 4.98964928627253
113.45 39.835 6.31149744513931
113.5 27.8638 5.27861724318026
113.55 31.9796 5.6550508397361
113.6 28.8931 5.37523022762746
113.65 37.1575 6.09569520235387
113.7 32.3428 5.68707306089872
113.75 39.031 6.24747949176306
113.8 49.6244 7.0444588152675
113.85 39.7065 6.30130938773839
113.9 25.7659 5.07601221432731
113.95 31.2821 5.59304031810964
114 37.3755 6.11355052322298
114.05 30.4625 5.51928437390211
114.1 35.8149 5.98455512131019
114.15 27.6035 5.25390331087278
114.2 27.0921 5.20500720460596
114.25 51.9191 7.20549096175965
114.3 19.1557 4.37672251804932
114.35 31.4695 5.60976826615859
114.4 30.2418 5.49925449492929
114.45 30.9085 5.55954134798906
114.5 40.6532 6.37598619822847
114.55 33.458 5.78428906608236
114.6 36.4661 6.0387167510987
114.65 22.702 4.76466158294584
114.7 27.865 5.27873090808766
114.75 39.4059 6.27741188707576
114.8 29.1443 5.39854610057189
114.85 35.7204 5.97665458262396
114.9 32.2683 5.68051934245453
114.95 45.1612 6.72020833010406
115 34.3558 5.8613820895758
115.05 30.3289 5.50716805626994
115.1 33.2387 5.76530137980661
115.15 34.0538 5.83556338325615
115.2 31.0644 5.57354465309106
115.25 35.7003 5.97497280328538
115.3 33.6219 5.79843944523007
115.35 33.2295 5.76450344782619
115.4 55.8248 7.47159956100432
115.45 43.6448 6.60642111888124
115.5 39.7551 6.30516454979567
115.55 37.9362 6.15923696572879
115.6 49.3184 7.02270603115352
115.65 74.4572 8.62885855719052
115.7 60.2706 7.76341419737476
115.75 79.2426 8.90183127227201
115.8 81.6428 9.0356405417657
115.85 101.8771 10.093418647812
115.9 118.8285 10.9008485908208
115.95 97.503 9.87436073880228
116 100.9721 10.0484874483675
116.05 89.4036 9.45534769323688
116.1 80.3185 8.96205891522701
116.15 72.231 8.49888227945299
116.2 54.7685 7.400574302039
116.25 52.2805 7.23052556872597
116.3 48.9079 6.99341833440557
116.35 41.2913 6.42583068560011
116.4 35.3882 5.94879819795562
116.45 30.2564 5.50058178741122
116.5 49.7367 7.0524251148098
116.55 37.0516 6.08700254640985
116.6 30.153 5.49117473770413
116.65 32.39 5.69122131005288
116.7 26.3572 5.13392637267034
116.75 30.9438 5.56271516437791
116.8 38.6932 6.22038584012278
116.85 36.3118 6.0259273145301
116.9 33.3629 5.77606267279018
116.95 29.4616 5.42785408794304
117 19.9113 4.46220797363816
117.05 23.675 4.86569625028115
117.1 29.9324 5.47105108731403
117.15 38.3409 6.19200290697606
117.2 32.8358 5.73025304851365
117.25 36.705 6.05846515216519
117.3 21.8356 4.67285779796475
117.35 34.2093 5.84887168606048
117.4 33.3538 5.77527488523274
117.45 40.7559 6.38403477434138
117.5 25.1388 5.013860787856
117.55 24.5866 4.95848767266795
117.6 24.0921 4.90837040167101
117.65 33.5709 5.7940400412838
117.7 34.6125 5.88323890386919
117.75 32.0916 5.6649448364481
117.8 24.7376 4.97369078250749
117.85 33.2729 5.7682666373877
117.9 30.1758 5.49325040390478
117.95 38.7298 6.22332708444607
118 31.0568 5.57286281905449
118.05 31.1785 5.58377112711472
118.1 35.6008 5.96664059584621
118.15 31.0237 5.56989227903018
118.2 32.1569 5.6707054234901
118.25 27.4893 5.24302393662283
118.3 24.2805 4.92752473357567
118.35 30.2543 5.50039089520009
118.4 32.8023 5.7273292205006
118.45 37.1024 6.09117394268133
118.5 21.2243 4.60698382892756
118.55 25.4839 5.04815807993371
118.6 32.3481 5.68753901085522
118.65 33.5533 5.7925210400999
118.7 24.5056 4.95031312140959
118.75 31.8234 5.64122327159633
118.8 32.7469 5.72249071646254
118.85 26.6296 5.16038758234302
118.9 24.3122 4.93074030952757
118.95 24.9474 4.99473723032554
119 32.378 5.69016695712876
119.05 28.1703 5.30757006548194
119.1 29.9354 5.47132525079619
119.15 27.3914 5.23367939407832
119.2 27.1188 5.2075714109362
119.25 24.0213 4.90115292558802
119.3 26.543 5.15198990682241
119.35 20.7712 4.55754319782051
119.4 37.4792 6.12202580850489
119.45 39.2151 6.26219610041078
119.5 33.2258 5.76418250925489
119.55 19.8031 4.45006741521968
119.6 32.3225 5.68528803140175
119.65 37.5695 6.12939638137394
119.7 23.5823 4.85616103522113
119.75 21.7537 4.66408619131336
119.8 27.9268 5.2845813457643
119.85 26.9832 5.19453559040652
119.9 36.6845 6.05677306822701
119.95 16.8563 4.10564245886073
120 32.6819 5.7168085502315
120.05 27.1985 5.21521811624404
120.1 30.8146 5.55108998305738
120.15 30.7747 5.5474949301464
120.2 34.4782 5.87181402975265
120.25 39.1303 6.25542164845824
120.3 25.6662 5.06618199436222
120.35 31.113 5.57790283171014
120.4 29.3578 5.41828386115013
120.45 16.9658 4.11895617845104
120.5 23.0097 4.79684271161772
120.55 27.0928 5.20507444711409
120.6 36.8135 6.0674129577605
120.65 24.6596 4.96584333220451
120.7 24.1536 4.91463121709045
120.75 23.482 4.84582294352569
120.8 40.6412 6.3750450978797
120.85 33.1216 5.75513683590582
120.9 30.1935 5.49486123573653
120.95 31.5257 5.61477515133064
121 29.684 5.44830248793145
121.05 31.2862 5.59340683304907
121.1 22.5385 4.74747301203493
121.15 25.1658 5.01655260113955
121.2 22.1158 4.70274387990671
121.25 32.0473 5.66103347455215
121.3 29.9397 5.47171819449796
121.35 29.5874 5.43943011720897
121.4 36.899 6.07445470803759
121.45 27.6722 5.26043724418418
121.5 26.6143 5.15890492255866
121.55 31.9514 5.65255694354334
121.6 31.5137 5.6137064404901
121.65 33.0762 5.75119118096417
121.7 36.5659 6.04697445008659
121.75 29.5248 5.43367279103186
121.8 40.8909 6.39459928377064
121.85 31.5557 5.61744603890416
121.9 41.7054 6.45797181783879
121.95 36.2427 6.0201910268695
122 29.7131 5.45097239031716
122.05 35.9675 5.99729105513481
122.1 30.5372 5.52604741202969
122.15 31.9513 5.65254809798201
122.2 29.2117 5.40478491708967
122.25 27.2467 5.2198371622111
122.3 25.8813 5.08736670587053
122.35 32.6759 5.71628375782728
122.4 24.1485 4.91411233082843
122.45 39.88 6.31506136153878
122.5 24.8442 4.98439565042744
122.55 39.9631 6.32163744610524
122.6 28.7646 5.36326393159986
122.65 33.3626 5.77603670348449
122.7 30.708 5.54147994672903
122.75 28.9667 5.38207209167622
122.8 27.9858 5.29016067808909
122.85 25.8236 5.08169263139753
122.9 27.8139 5.27388850849162
122.95 28.7485 5.36176276983605
123 28.9709 5.38246226182776
123.05 30.1397 5.48996357000664
123.1 15.5638 3.94509822437921
123.15 33.2007 5.76200485942176
123.2 34.3958 5.86479326148842
123.25 30.459 5.51896729470288
123.3 40.0016 6.32468181017828
123.35 38.877 6.23514233999513
123.4 31.8913 5.64723826308046
123.45 32.7575 5.72341681166067
123.5 31.7073 5.63092354769624
123.55 23.2944 4.82642725004739
123.6 30.7151 5.54212053279248
123.65 26.5793 5.15551161379741
123.7 31.6104 5.62231269141089
123.75 21.9736 4.68760066558575
123.8 25.2214 5.02209119789755
123.85 15.5187 3.93937812351137
123.9 27.2481 5.21997126428872
123.95 32.5996 5.70960594086842
124 24.4923 4.94896958972269
124.05 33.147 5.75734313724655
124.1 32.5973 5.70940452236483
124.15 39.9085 6.31731746867292
124.2 30.2626 5.50114533529155
124.25 31.4711 5.60991087273229
124.3 30.6225 5.53376002370902
124.35 27.0823 5.20406571826298
124.4 35.1107 5.92542825456523
124.45 37.6464 6.13566622299486
124.5 29.8496 5.46347874526844
124.55 30.8672 5.55582577120629
124.6 26.4082 5.13889093093053
124.65 27.1267 5.20832986666551
124.7 26.4011 5.13820007395586
124.75 34.3192 5.85825912707862
124.8 30.4589 5.51895823502951
124.85 33.5672 5.79372073886894
124.9 24.4133 4.94098168383571
124.95 29.2228 5.40581168743418
125 26.4875 5.14660081995874
125.05 31.8644 5.64485606548121
125.1 30.2864 5.5033080960455
125.15 30.755 5.54571906969691
125.2 43.1207 6.56663536371558
125.25 33.1864 5.76076383824229
125.3 33.3548 5.77536146054946
125.35 31.963 5.65358293474147
125.4 29.2443 5.40779992233441
125.45 33.7025 5.80538543078752
125.5 38.5183 6.20631130382613
125.55 31.6872 5.62913847760028
125.6 26.0699 5.10586917184528
125.65 32.4871 5.69974560835832
125.7 34.2031 5.84834164528715
125.75 28.3484 5.32432155302438
125.8 24.8635 4.98633131670971
125.85 34.8189 5.90075418908465
125.9 24.7222 4.97214239538652
125.95 21.521 4.63907318329858
126 31.2332 5.58866710405979
126.05 34.836 5.90220297854962
126.1 31.3905 5.60272255247393
126.15 37.1614 6.09601509184484
126.2 36.1742 6.01449914789253
126.25 25.8874 5.08796619485625
126.3 22.3675 4.72942914102749
126.35 41.9807 6.47925149998053
126.4 33.5724 5.79416948319602
126.45 33.439 5.78264645296598
126.5 24.8206 4.98202769964198
126.55 29.2314 5.4066070691331
126.6 35.2919 5.94069861211625
126.65 27.0133 5.19743205823799
126.7 32.56 5.70613704707484
126.75 36.5329 6.04424519687942
126.8 19.5418 4.42061081752284
126.85 32.8662 5.73290502276115
126.9 28.4793 5.33660004122475
126.95 27.2355 5.21876422153751
127 30.5634 5.52841749508845
127.05 36.8179 6.06777553968503
127.1 27.9993 5.291436477933
127.15 30.4948 5.52220970264622
127.2 28.8196 5.3683889575924
127.25 30.3759 5.51143357031544
127.3 20.7445 4.55461304613246
127.35 39.0494 6.24895191212094
127.4 46.3063 6.80487325377924
127.45 32.8777 5.7339079169446
127.5 25.7011 5.06962523269719
127.55 27.0789 5.20373904034397
127.6 39.9679 6.32201708317844
127.65 27.3803 5.23261884719306
127.7 34.5171 5.87512553057379
127.75 43.5673 6.60055300713508
127.8 39.8068 6.30926303144829
127.85 27.5447 5.24830448811804
127.9 37.2144 6.10036064507665
127.95 23.9951 4.89847935588178
128 25.7339 5.07285915436256
128.05 26.5129 5.14906787681033
128.1 34.8037 5.89946607753617
128.15 40.2043 6.34068608275161
128.2 32.0416 5.66053001052022
128.25 23.4857 4.84620470058787
128.3 29.9176 5.46969834634416
128.35 35.3098 5.94220497795221
128.4 35.8883 5.99068443502076
128.45 29.5264 5.43382001910258
128.5 26.8524 5.18193014233114
128.55 35.9626 5.99688252344499
128.6 45.754 6.76417031127987
128.65 34.0805 5.83785063186786
128.7 26.9381 5.19019267465091
128.75 30.0164 5.47872247882661
128.8 30.4907 5.52183846196174
128.85 24.2321 4.9226110957499
128.9 29.6064 5.44117634340222
128.95 24.519 4.95166638617749
129 26.3173 5.13003898620664
129.05 30.8144 5.55107196854806
129.1 37.9438 6.1598538943712
129.15 24.6224 4.96209633118907
129.2 37.4829 6.12232798860042
129.25 25.4971 5.04946531822925
129.3 28.1415 5.30485626572483
129.35 32.3574 5.68835652891061
129.4 41.402 6.43443859244923
129.45 32.1841 5.67310320724028
129.5 34.2156 5.84941022668098
129.55 28.7665 5.36344105961835
129.6 34.657 5.8870196194679
129.65 26.8082 5.17766356574083
129.7 38.7113 6.22184056369174
129.75 29.9506 5.47271413468674
129.8 21.7854 4.6674832618875
129.85 27.0111 5.19722041095045
129.9 38.5864 6.21179523165405
129.95 30.0993 5.48628289463823
130 32.7412 5.72199265990441
130 32.7412 5.72199265990441
