40 25.2957 31.1872 -5.8915
40.05 37.9833 31.1859 6.7974
40.1 35.5871 31.1847 4.4024
40.15 37.3764 31.1835 6.1929
40.2 24.3782 31.1824 -6.8042
40.25 41.7844 31.1813 10.6031
40.3 40.7495 31.1803 9.5692
40.35 53.8708 31.1793 22.6915
40.4 42.2324 31.1784 11.054
40.45 37.7315 31.1775 6.554
40.5 35.7025 31.1767 4.5258
40.55 39.7795 31.176 8.6035
40.6 48.5985 31.1753 17.4232
40.65 34.9289 31.1748 3.7541
40.7 37.3601 31.1743 6.1858
40.75 37.0629 31.1741 5.8888
40.8 36.795 31.1738 5.6212
40.85 26.8824 31.1739 -4.2915
40.9 36.4758 31.1739 5.3019
40.95 49.8512 31.1742 18.677
41 40.1224 31.1746 8.9478
41.05 51.2621 31.1753 20.0868
41.1 30.076 31.1763 -1.1003
41.15 48.2889 31.1776 17.1113
41.2 41.0521 31.1789 9.8732
41.25 44.8834 31.1808 13.7026
41.3 32.733 31.1827 1.5503
41.35 48.192 31.1851 17.0069
41.4 55.3922 31.1879 24.2043
41.45 39.9454 31.191 8.7544
41.5 40.0106 31.1946 8.816
41.55 42.8857 31.1988 11.6869
41.6 41.4091 31.2031 10.206
41.65 32.8836 31.2083 1.6753
41.7 37.1235 31.2136 5.9099
41.75 47.0807 31.22 15.8607
41.8 30.3644 31.2265 -0.8621
41.85 28.2611 31.2342 -2.9731
41.9 34.0152 31.242 2.7732
41.95 49.9192 31.2509 18.6683
42 42.9154 31.2607 11.6547
42.05 48.6284 31.2714 17.357
42.1 37.0607 31.2832 5.7775
42.15 30.7486 31.2966 -0.548
42.2 50.2337 31.3101 18.9236
42.25 31.2721 31.3263 -0.0542
42.3 31.0027 31.3426 -0.3399
42.35 26.9322 31.3622 -4.43
42.4 39.9449 31.3818 8.5631
42.45 48.2925 31.4045 16.888
42.5 38.872 31.4295 7.4425
42.55 40.7742 31.4587 9.3155
42.6 46.6312 31.488 15.1432
42.65 30.5005 31.5241 -1.0236
42.7 43.0374 31.5602 11.4772
42.75 31.3911 31.6053 -0.2142
42.8 31.2382 31.6504 -0.4122
42.85 37.2316 31.7076 5.524
42.9 42.0958 31.7647 10.3311
42.95 41.267 31.8386 9.4284
43 33.7665 31.9125 1.854
43.05 38.1774 32.0128 6.1646
43.1 40.3369 32.1131 8.2238
43.15 42.4581 32.3245 10.1336
43.2 42.5018 32.5358 9.966
43.25 34.003 32.9303 1.0727
43.3 37.4905 33.3248 4.1657
43.35 49.7251 33.6053 16.1198
43.4 36.1402 33.9221 2.2181
43.45 40.8593 34.3245 6.5348
43.5 32.9778 34.7269 -1.7491
43.55 56.2121 35.248 20.9641
43.6 31.8406 35.8782 -4.0376
43.65 50.2046 36.6497 13.5549
43.7 41.1164 37.6074 3.509
43.75 40.0491 38.9877 1.0614
43.8 41.6839 40.368 1.3159
43.85 33.7421 42.7661 -9.024
43.9 45.0002 45.1642 -0.164
43.95 58.251 49.1141 9.1369
44 71.0404 54.6592 16.3812
44.05 66.163 63.5084 2.6546
44.1 85.9424 79.1911 6.7513
44.15 96.8245 114.449 -17.6245
44.2 151.518 211.087 -59.569
44.25 394.813 488.903 -94.09
44.3 1254.88 1111.2 143.68
44.35 2097.42 2004.55 92.87
44.4 2351.34 2517.87 -166.53
44.45 1429.92 1545.1 -115.18
44.5 487.381 423.174 64.207
44.55 205.611 162.98 42.631
44.6 97.489 98.8637 -1.3747
44.65 65.1813 72.7385 -7.5572
44.7 69.7432 59.2351 10.5081
44.75 52.662 51.3072 1.3548
44.8 33.0692 46.2494 -13.1802
44.85 49.7394 42.826 6.9134
44.9 41.9836 40.4029 1.5807
44.95 50.8668 38.6268 12.24
45 41.2694 37.2877 3.9817
45.05 39.332 36.2542 3.0778
45.1 53.9819 35.4408 18.5411
45.15 26.8388 34.8511 -8.0123
45.2 44.8243 34.2613 10.563
45.25 33.4605 33.8633 -0.4028
45.3 34.6026 33.4652 1.1374
45.35 37.9299 33.1846 4.7453
45.4 44.1911 32.9039 11.2872
45.45 32.7102 32.6981 0.0121
45.5 36.4211 32.4922 3.9289
45.55 29.4217 32.3153 -2.8936
45.6 33.5469 32.1384 1.4085
45.65 30.8203 31.9765 -1.1562
45.7 42.1216 31.8146 10.307
45.75 39.503 31.7165 7.7865
45.8 51.1851 31.6311 19.554
45.85 34.7235 31.5594 3.1641
45.9 30.5375 31.4877 -0.9502
45.95 48.3024 31.4297 16.8727
46 31.7939 31.3718 0.4221
46.05 28.0065 31.324 -3.3175
46.1 29.2908 31.2762 -1.9854
46.15 30.6729 31.2363 -0.5634
46.2 37.1713 31.1963 5.975
46.25 39.4329 31.1624 8.2705
46.3 37.3077 31.1285 6.1792
46.35 45.4028 31.0993 14.3035
46.4 32.7209 31.0702 1.6507
46.45 35.7602 31.0448 4.7154
46.5 35.6727 31.0195 4.6532
46.55 48.0373 30.9972 17.0401
46.6 30.9848 30.9749 0.0099
46.65 36.985 30.9551 6.0299
46.7 25.6139 30.9353 -5.3214
46.75 21.4292 30.9176 -9.4884
46.8 37.9971 30.8998 7.0973
46.85 35.2434 30.8838 4.3596
46.9 36.5146 30.8678 5.6468
46.95 28.242 30.8533 -2.6113
47 21.9178 30.8388 -8.921
47.05 38.3327 30.8255 7.5072
47.1 34.9492 30.8122 4.137
47.15 39.2454 30.8 8.4454
47.2 41.171 30.7879 10.3831
47.25 32.5525 30.7766 1.7759
47.3 39.7725 30.7654 9.0071
47.35 29.5121 30.755 -1.2429
47.4 33.0508 30.7446 2.3062
47.45 32.7842 30.735 2.0492
47.5 33.6075 30.7253 2.8822
47.55 38.0381 30.7163 7.3218
47.6 27.0241 30.7073 -3.6832
47.65 37.6986 30.6989 6.9997
47.7 32.7871 30.6904 2.0967
47.75 23.378 30.6824 -7.3044
47.8 43.3699 30.6745 12.6954
47.85 35.4363 30.6669 4.7694
47.9 39.6134 30.6594 8.954
47.95 38.1257 30.6521 7.4736
48 27.8948 30.6449 -2.7501
48.05 33.4101 30.638 2.7721
48.1 33.8571 30.6311 3.226
48.15 36.6781 30.6244 6.0537
48.2 31.5103 30.6176 0.8927
48.25 36.1506 30.6111 5.5395
48.3 39.034 30.6046 8.4294
48.35 29.2118 30.5982 -1.3864
48.4 29.825 30.5919 -0.7669
48.45 39.9216 30.5856 9.336
48.5 31.6189 30.5794 1.0395
48.55 32.616 30.5732 2.0428
48.6 36.6645 30.5671 6.0974
48.65 38.6251 30.561 8.0641
48.7 38.8404 30.555 8.2854
48.75 28.7023 30.549 -1.8467
48.8 24.4141 30.5431 -6.129
48.85 27.0908 30.5372 -3.4464
48.9 39.0582 30.5314 8.5268
48.95 41.0709 30.5256 10.5453
49 42.2778 30.5199 11.7579
49.05 37.3791 30.5148 6.8643
49.1 29.8777 30.5097 -0.632
49.15 27.5661 30.5042 -2.9381
49.2 41.923 30.4987 11.4243
49.25 39.4275 30.4934 8.9341
49.3 32.8727 30.4881 2.3846
49.35 30.6095 30.483 0.1265
49.4 31.4959 30.4778 1.0181
49.45 24.2811 30.4728 -6.1917
49.5 38.2006 30.4678 7.7328
49.55 37.339 30.4629 6.8761
49.6 37.5117 30.458 7.0537
49.65 27.258 30.4533 -3.1953
49.7 38.117 30.4485 7.6685
49.75 40.0301 30.4438 9.5863
49.8 34.6009 30.4392 4.1617
49.85 30.7744 30.4346 0.3398
49.9 28.1844 30.43 -2.2456
49.95 41.0739 30.4254 10.6485
50 31.0408 30.4209 0.6199
50.05 30.3584 30.4163 -0.0579
50.1 30.1229 30.4118 -0.2889
50.15 30.5995 30.4073 0.1922
50.2 19.3862 30.4027 -11.0165
50.25 34.9985 30.3982 4.6003
50.3 35.8106 30.3936 5.417
50.35 37.7353 30.389 7.3463
50.4 34.107 30.3844 3.7226
50.45 42.9134 30.3797 12.5337
50.5 23.3577 30.3751 -7.0174
50.55 30.3017 30.3704 -0.0687
50.6 27.5116 30.3658 -2.8542
50.65 33.3188 30.3611 2.9577
50.7 33.153 30.3564 2.7966
50.75 31.9029 30.3517 1.5512
50.8 33.4812 30.347 3.1342
50.85 31.2137 30.3423 0.8714
50.9 43.458 30.3376 13.1204
50.95 36.2812 30.3329 5.9483
51 33.2304 30.3282 2.9022
51.05 26.438 30.3236 -3.8856
51.1 29.2601 30.319 -1.0589
51.15 33.289 30.3145 2.9745
51.2 37.0046 30.3099 6.6947
51.25 30.5132 30.3054 0.2078
51.3 27.743 30.301 -2.558
51.35 35.6787 30.2966 5.3821
51.4 35.4384 30.2922 5.1462
51.45 31.7622 30.2879 1.4743
51.5 40.1175 30.2836 9.8339
51.55 18.4124 30.2794 -11.867
51.6 37.0564 30.2752 6.7812
51.65 30.269 30.271 -0.002
51.7 30.8702 30.2668 0.6034
51.75 40.4713 30.2627 10.2086
51.8 38.7465 30.2586 8.4879
51.85 47.6878 30.2546 17.4332
51.9 46.1499 30.2505 15.8994
51.95 36.6497 30.2464 6.4033
52 25.5852 30.2424 -4.6572
52.05 25.7452 30.2383 -4.4931
52.1 40.548 30.2342 10.3138
52.15 39.4982 30.2301 9.2681
52.2 34.8044 30.226 4.5784
52.25 32.2418 30.2219 2.0199
52.3 33.6291 30.2177 3.4114
52.35 23.3455 30.2135 -6.868
52.4 37.2457 30.2093 7.0364
52.45 30.0288 30.2051 -0.1763
52.5 36.588 30.2008 6.3872
52.55 38.2141 30.1965 8.0176
52.6 33.6023 30.1922 3.4101
52.65 30.183 30.1879 -0.0049
52.7 38.8026 30.1836 8.619
52.75 42.8912 30.1792 12.712
52.8 35.0249 30.1748 4.8501
52.85 28.0011 30.1704 -2.1693
52.9 32.744 30.1661 2.5779
52.95 27.9863 30.1617 -2.1754
53 35.5536 30.1573 5.3963
53.05 31.2709 30.153 1.1179
53.1 35.0923 30.1486 4.9437
53.15 38.6243 30.1443 8.48
53.2 27.5909 30.14 -2.5491
53.25 43.8489 30.1358 13.7131
53.3 30.8846 30.1316 0.753
53.35 23.6557 30.1274 -6.4717
53.4 37.7533 30.1232 7.6301
53.45 35.6583 30.1191 5.5392
53.5 31.5859 30.115 1.4709
53.55 42.6858 30.111 12.5748
53.6 40.3908 30.107 10.2838
53.65 30.2502 30.103 0.1472
53.7 32.9216 30.099 2.8226
53.75 30.0937 30.0951 -0.0014
53.8 38.7999 30.0912 8.7087
53.85 31.9248 30.0872 1.8376
53.9 34.0064 30.0833 3.9231
53.95 46.6138 30.0794 16.5344
54 32.7247 30.0756 2.6491
54.05 31.9035 30.0716 1.8319
54.1 20.6441 30.0677 -9.4236
54.15 40.304 30.0638 10.2402
54.2 29.554 30.0599 -0.5059
54.25 29.887 30.0559 -0.1689
54.3 28.1495 30.0519 -1.9024
54.35 28.9472 30.0479 -1.1007
54.4 32.5731 30.0438 2.5293
54.45 25.8593 30.0398 -4.1805
54.5 36.1781 30.0357 6.1424
54.55 28.0082 30.0315 -2.0233
54.6 35.099 30.0274 5.0716
54.65 26.3864 30.0232 -3.6368
54.7 37.2509 30.019 7.2319
54.75 27.2133 30.0148 -2.8015
54.8 32.1582 30.0106 2.1476
54.85 41.1576 30.0064 11.1512
54.9 28.2886 30.0021 -1.7135
54.95 28.0051 29.9979 -1.9928
55 36.6458 29.9937 6.6521
55.05 37.9868 29.9895 7.9973
55.1 31.0377 29.9852 1.0525
55.15 30.3573 29.9811 0.3762
55.2 23.0939 29.9769 -6.883
55.25 29.7657 29.9728 -0.2071
55.3 45.0679 29.9686 15.0993
55.35 44.9336 29.9646 14.969
55.4 29.6534 29.9605 -0.3071
55.45 42.0614 29.9565 12.1049
55.5 31.3447 29.9525 1.3922
55.55 32.0962 29.9486 2.1476
55.6 39.6761 29.9446 9.7315
55.65 33.3658 29.9407 3.4251
55.7 31.1718 29.9369 1.2349
55.75 33.41 29.933 3.477
55.8 25.8629 29.9292 -4.0663
55.85 26.167 29.9254 -3.7584
55.9 26.0003 29.9216 -3.9213
55.95 36.0636 29.9178 6.1458
56 39.5969 29.914 9.6829
56.05 33.9208 29.9102 4.0106
56.1 31.5561 29.9064 1.6497
56.15 33.3144 29.9026 3.4118
56.2 27.4786 29.8988 -2.4202
56.25 32.9859 29.8949 3.091
56.3 35.4079 29.8911 5.5168
56.35 35.9707 29.8872 6.0835
56.4 26.4024 29.8833 -3.4809
56.45 29.4037 29.8793 -0.4756
56.5 33.8859 29.8754 4.0105
56.55 27.0052 29.8714 -2.8662
56.6 28.0881 29.8674 -1.7793
56.65 25.6225 29.8633 -4.2408
56.7 28.8671 29.8593 -0.9922
56.75 24.3186 29.8552 -5.5366
56.8 30.6301 29.8511 0.779
56.85 36.6446 29.847 6.7976
56.9 28.5768 29.8429 -1.2661
56.95 36.6089 29.8388 6.7701
57 24.9373 29.8346 -4.8973
57.05 32.6692 29.8305 2.8387
57.1 29.7761 29.8264 -0.0503
57.15 39.4265 29.8224 9.6041
57.2 39.801 29.8183 9.9827
57.25 31.5713 29.8142 1.7571
57.3 25.2403 29.8102 -4.5699
57.35 33.8911 29.8062 4.0849
57.4 33.0955 29.8023 3.2932
57.45 31.7777 29.7984 1.9793
57.5 32.0968 29.7944 2.3024
57.55 29.8088 29.7906 0.0182
57.6 28.0768 29.7867 -1.7099
57.65 20.8006 29.783 -8.9824
57.7 30.5374 29.7792 0.7582
57.75 28.331 29.7754 -1.4444
57.8 31.2802 29.7717 1.5085
57.85 29.222 29.768 -0.546
57.9 31.7454 29.7643 1.9811
57.95 37.8673 29.7607 8.1066
58 38.4353 29.757 8.6783
58.05 36.9994 29.7533 7.2461
58.1 28.542 29.7497 -1.2077
58.15 29.5456 29.746 -0.2004
58.2 26.7874 29.7424 -2.955
58.25 28.6004 29.7387 -1.1383
58.3 34.1137 29.735 4.3787
58.35 29.3538 29.7312 -0.3774
58.4 30.6732 29.7275 0.9457
58.45 34.4773 29.7238 4.7535
58.5 41.2735 29.72 11.5535
58.55 37.515 29.7162 7.7988
58.6 29.5929 29.7123 -0.1194
58.65 32.0379 29.7085 2.3294
58.7 30.8602 29.7046 1.1556
58.75 26.6054 29.7007 -3.0953
58.8 37.8946 29.6968 8.1978
58.85 41.0238 29.6929 11.3309
58.9 37.8074 29.689 8.1184
58.95 32.6229 29.685 2.9379
59 28.953 29.6811 -0.7281
59.05 36.533 29.6771 6.8559
59.1 35.0634 29.6732 5.3902
59.15 22.5247 29.6693 -7.1446
59.2 26.4412 29.6654 -3.2242
59.25 31.3608 29.6615 1.6993
59.3 32.2877 29.6576 2.6301
59.35 37.2207 29.6538 7.5669
59.4 30.0044 29.65 0.3544
59.45 32.8724 29.6463 3.2261
59.5 26.5095 29.6425 -3.133
59.55 27.1033 29.6388 -2.5355
59.6 29.7646 29.6352 0.1294
59.65 25.9979 29.6248 -3.6269
59.7 31.6936 29.6144 2.0792
59.75 30.5299 29.6108 0.9191
59.8 29.8394 29.6073 0.2321
59.85 34.9129 29.6037 5.3092
59.9 35.2179 29.6002 5.6177
59.95 26.6443 29.5966 -2.9523
60 25.102 29.5931 -4.4911
60.05 31.5063 29.5896 1.9167
60.1 27.3424 29.5861 -2.2437
60.15 36.693 29.5825 7.1105
60.2 28.2459 29.579 -1.3331
60.25 38.2806 29.5755 8.7051
60.3 32.6884 29.572 3.1164
60.35 31.764 29.5685 2.1955
60.4 29.2293 29.565 -0.3357
60.45 27.4055 29.5616 -2.1561
60.5 27.3633 29.5581 -2.1948
60.55 25.2276 29.5546 -4.327
60.6 25.7199 29.5511 -3.8312
60.65 31.6502 29.5477 2.1025
60.7 23.0907 29.5443 -6.4536
60.75 32.0236 29.5409 2.4827
60.8 32.5693 29.5374 3.0319
60.85 38.4637 29.5341 8.9296
60.9 38.5279 29.5307 8.9972
60.95 26.9084 29.5274 -2.619
61 33.7994 29.5241 4.2753
61.05 31.1861 29.5208 1.6653
61.1 30.665 29.5176 1.1474
61.15 35.894 29.5144 6.3796
61.2 27.3674 29.5112 -2.1438
61.25 31.0319 29.5081 1.5238
61.3 30.0985 29.505 0.5935
61.35 33.3825 29.5021 3.8804
61.4 28.6355 29.4991 -0.8636
61.45 31.9227 29.4962 2.4265
61.5 35.2559 29.4934 5.7625
61.55 27.4513 29.4906 -2.0393
61.6 38.8747 29.4879 9.3868
61.65 26.5758 29.4853 -2.9095
61.7 45.2813 29.4827 15.7986
61.75 36.4966 29.4803 7.0163
61.8 34.3542 29.4779 4.8763
61.85 29.1312 29.4756 -0.3444
61.9 36.4196 29.4734 6.9462
61.95 34.7096 29.4714 5.2382
62 33.2204 29.4693 3.7511
62.05 27.4957 29.4675 -1.9718
62.1 30.0006 29.4658 0.5348
62.15 33.0913 29.4643 3.627
62.2 29.8318 29.4628 0.369
62.25 34.0003 29.4616 4.5387
62.3 26.6878 29.4604 -2.7726
62.35 28.6934 29.4597 -0.7663
62.4 31.534 29.459 2.075
62.45 31.0214 29.4587 1.5627
62.5 33.8128 29.4585 4.3543
62.55 24.4547 29.4589 -5.0042
62.6 34.5626 29.4592 5.1034
62.65 27.8017 29.4604 -1.6587
62.7 34.0073 29.4616 4.5457
62.75 40.0256 29.4638 10.5618
62.8 48.3044 29.4659 18.8385
62.85 33.5546 29.4694 4.0852
62.9 35.5846 29.4728 6.1118
62.95 28.8211 29.478 -0.6569
63 33.0406 29.4831 3.5575
63.05 34.425 29.4905 4.9345
63.1 34.2123 29.4979 4.7144
63.15 30.9036 29.5083 1.3953
63.2 24.5412 29.5188 -4.9776
63.25 37.864 29.5339 8.3301
63.3 28.3638 29.5489 -1.1851
63.35 31.1109 29.5723 1.5386
63.4 35.2697 29.5956 5.6741
63.45 29.2208 29.6416 -0.4208
63.5 38.4274 29.6876 8.7398
63.55 36.4233 29.7461 6.6772
63.6 37.5029 29.8046 7.6983
63.65 23.1356 29.8678 -6.7322
63.7 24.9391 29.9311 -4.992
63.75 24.2739 30.0167 -5.7428
63.8 26.8803 30.1024 -3.2221
63.85 24.7827 30.2259 -5.4432
63.9 30.0638 30.3494 -0.2856
63.95 26.7157 30.5359 -3.8202
64 33.0798 30.7224 2.3574
64.05 38.829 31.0195 7.8095
64.1 29.9635 31.3167 -1.3532
64.15 44.1214 31.8259 12.2955
64.2 29.2812 32.3351 -3.0539
64.25 35.7478 33.3045 2.4433
64.3 26.8294 34.2738 -7.4444
64.35 34.362 36.4586 -2.0966
64.4 39.4308 38.6434 0.7874
64.45 40.8924 43.2318 -2.3394
64.5 48.1777 51.9021 -3.7244
64.55 70.3631 69.5281 0.835
64.6 113.605 100.92 12.685
64.65 139.529 143.25 -3.721
64.7 161.33 169.487 -8.157
64.75 151.339 149.357 1.982
64.8 94.7833 101.509 -6.7257
64.85 69.9994 66.68 3.3194
64.9 62.4341 49.836 12.5981
64.95 42.4541 41.8871 0.567
65 34.7454 37.6943 -2.9489
65.05 31.6886 35.6895 -4.0009
65.1 26.2669 33.6847 -7.4178
65.15 31.5482 32.7982 -1.25
65.2 33.5363 31.9116 1.6247
65.25 34.5155 31.4475 3.068
65.3 40.5033 30.9835 9.5198
65.35 22.2407 30.7126 -8.4719
65.4 31.6904 30.4416 1.2488
65.45 30.7366 30.2707 0.4659
65.5 38.2176 30.0997 8.1179
65.55 38.7843 29.9853 8.799
65.6 30.0692 29.8709 0.1983
65.65 25.3518 29.7905 -4.4387
65.7 37.2314 29.7101 7.5213
65.75 25.7177 29.6504 -3.9327
65.8 32.075 29.5906 2.4844
65.85 24.181 29.5394 -5.3584
65.9 26.2084 29.4883 -3.2799
65.95 26.6818 29.4466 -2.7648
66 33.1072 29.4049 3.7023
66.05 42.2723 29.3775 12.8948
66.1 32.2402 29.3501 2.8901
66.15 35.9658 29.3291 6.6367
66.2 34.5775 29.3081 5.2694
66.25 23.359 29.2911 -5.9321
66.3 31.3724 29.2741 2.0983
66.35 24.0164 29.26 -5.2436
66.4 40.276 29.2458 11.0302
66.45 24.8573 29.2338 -4.3765
66.5 27.4878 29.2218 -1.734
66.55 39.1381 29.2113 9.9268
66.6 36.7542 29.2009 7.5533
66.65 31.1656 29.1917 1.9739
66.7 39.3646 29.1825 10.1821
66.75 30.4555 29.1743 1.2812
66.8 34.9501 29.1661 5.784
66.85 28.7101 29.1587 -0.4486
66.9 30.6822 29.1513 1.5309
66.95 32.4496 29.1445 3.3051
67 26.2366 29.1377 -2.9011
67.05 19.2065 29.1315 -9.925
67.1 21.9825 29.1252 -7.1427
67.15 26.9298 29.1194 -2.1896
67.2 37.5367 29.1136 8.4231
67.25 27.0316 29.1081 -2.0765
67.3 22.0275 29.1026 -7.0751
67.35 21.5099 29.0974 -7.5875
67.4 22.5971 29.0922 -6.4951
67.45 29.0995 29.0873 0.0122
67.5 36.7494 29.0824 7.667
67.55 18.1536 29.0776 -10.924
67.6 28.9923 29.0729 -0.0806
67.65 39.5162 29.0684 10.4478
67.7 37.2883 29.0639 8.2244
67.75 27.6048 29.0595 -1.4547
67.8 22.6153 29.0551 -6.4398
67.85 23.2134 29.0509 -5.8375
67.9 35.4748 29.0466 6.4282
67.95 26.2768 29.0425 -2.7657
68 36.0828 29.0384 7.0444
68.05 33.5451 29.0344 4.5107
68.1 26.8946 29.0304 -2.1358
68.15 34.3648 29.0265 5.3383
68.2 36.0789 29.0226 7.0563
68.25 29.8914 29.0187 0.8727
68.3 27.9709 29.0149 -1.044
68.35 20.2402 29.0111 -8.7709
68.4 27.1503 29.0074 -1.8571
68.45 39.0144 29.0037 10.0107
68.5 25.9197 29 -3.0803
68.55 36.2693 28.9963 7.273
68.6 31.2591 28.9927 2.2664
68.65 34.2891 28.9891 5.3
68.7 26.4415 28.9855 -2.544
68.75 27.671 28.9819 -1.3109
68.8 38.3671 28.9784 9.3887
68.85 30.4194 28.9749 1.4445
68.9 45.6141 28.9714 16.6427
68.95 40.3798 28.9679 11.4119
69 40.0975 28.9644 11.1331
69.05 28.2996 28.961 -0.6614
69.1 38.5994 28.9575 9.6419
69.15 27.7719 28.9541 -1.1822
69.2 23.9816 28.9507 -4.9691
69.25 24.4863 28.9474 -4.4611
69.3 17.9349 28.944 -11.0091
69.35 45.7117 28.9406 16.7711
69.4 36.4513 28.9373 7.514
69.45 28.8184 28.934 -0.1156
69.5 30.5021 28.9307 1.5714
69.55 29.7696 28.9274 0.8422
69.6 36.2832 28.9241 7.3591
69.65 28.5881 28.9209 -0.3328
69.7 29.2274 28.9176 0.3098
69.75 23.5608 28.9144 -5.3536
69.8 38.2071 28.9111 9.296
69.85 37.9633 28.9079 9.0554
69.9 22.0246 28.9047 -6.8801
69.95 19.7338 28.9016 -9.1678
70 34.7337 28.8984 5.8353
70.05 30.5765 28.8952 1.6813
70.1 15.3211 28.8921 -13.571
70.15 19.4055 28.889 -9.4835
70.2 29.6218 28.8858 0.736
70.25 31.4909 28.8827 2.6082
70.3 24.0715 28.8796 -4.8081
70.35 29.6459 28.8765 0.7694
70.4 29.8181 28.8734 0.9447
70.45 25.0652 28.8704 -3.8052
70.5 37.9841 28.8673 9.1168
70.55 16.8672 28.8642 -11.997
70.6 25.9247 28.8612 -2.9365
70.65 33.6895 28.8581 4.8314
70.7 28.257 28.8551 -0.5981
70.75 19.2985 28.8521 -9.5536
70.8 40.287 28.8491 11.4379
70.85 33.9529 28.8461 5.1068
70.9 22.6965 28.8431 -6.1466
70.95 20.241 28.8401 -8.5991
71 20.3784 28.8371 -8.4587
71.05 28.9055 28.8341 0.0714
71.1 20.654 28.8312 -8.1772
71.15 24.122 28.8282 -4.7062
71.2 35.8692 28.8253 7.0439
71.25 36.0121 28.8223 7.1898
71.3 29.5414 28.8194 0.722
71.35 29.6389 28.8165 0.8224
71.4 36.7863 28.8135 7.9728
71.45 24.4934 28.8106 -4.3172
71.5 31.7297 28.8077 2.922
71.55 25.1432 28.8049 -3.6617
71.6 31.1051 28.802 2.3031
71.65 25.0646 28.7991 -3.7345
71.7 34.4043 28.7962 5.6081
71.75 25.3844 28.7934 -3.409
71.8 25.2346 28.7905 -3.5559
71.85 35.6012 28.7877 6.8135
71.9 33.7342 28.7849 4.9493
71.95 28.6076 28.7821 -0.1745
72 29.883 28.7793 1.1037
72.05 25.8899 28.7765 -2.8866
72.1 37.7298 28.7737 8.9561
72.15 30.6327 28.7709 1.8618
72.2 32.9949 28.7681 4.2268
72.25 24.1412 28.7654 -4.6242
72.3 33.3755 28.7626 4.6129
72.35 30.7448 28.7598 1.985
72.4 32.179 28.7571 3.4219
72.45 30.8285 28.7544 2.0741
72.5 31.998 28.7516 3.2464
72.55 37.0789 28.7489 8.33
72.6 33.5224 28.7462 4.7762
72.65 34.8037 28.7435 6.0602
72.7 33.2228 28.7408 4.482
72.75 40.2662 28.7381 11.5281
72.8 37.0237 28.7354 8.2883
72.85 28.406 28.7327 -0.3267
72.9 33.6016 28.73 4.8716
72.95 31.5439 28.7274 2.8165
73 39.1977 28.7247 10.473
73.05 30.6644 28.7221 1.9423
73.1 33.4607 28.7194 4.7413
73.15 40.2536 28.7168 11.5368
73.2 24.7184 28.7142 -3.9958
73.25 38.6831 28.7115 9.9716
73.3 31.1091 28.7089 2.4002
73.35 22.5703 28.7063 -6.136
73.4 35.214 28.7037 6.5103
73.45 22.7905 28.7011 -5.9106
73.5 23.5375 28.6986 -5.1611
73.55 26.6968 28.696 -1.9992
73.6 32.4258 28.6934 3.7324
73.65 36.4803 28.6909 7.7894
73.7 31.8972 28.6884 3.2088
73.75 29.6914 28.6858 1.0056
73.8 36.1807 28.6833 7.4974
73.85 32.627 28.6808 3.9462
73.9 25.2997 28.6783 -3.3786
73.95 29.3437 28.6758 0.6679
74 39.8823 28.6733 11.209
74.05 29.3279 28.6709 0.657
74.1 32.2316 28.6684 3.5632
74.15 25.7102 28.666 -2.9558
74.2 33.2404 28.6636 4.5768
74.25 37.5154 28.6611 8.8543
74.3 27.7176 28.6587 -0.9411
74.35 27.0091 28.6563 -1.6472
74.4 24.9996 28.6539 -3.6543
74.45 35.1844 28.6515 6.5329
74.5 31.2984 28.6492 2.6492
74.55 35.1982 28.6468 6.5514
74.6 35.0033 28.6444 6.3589
74.65 31.3111 28.6421 2.669
74.7 31.1926 28.6397 2.5529
74.75 28.335 28.6374 -0.3024
74.8 23.9296 28.6351 -4.7055
74.85 28.6923 28.6327 0.0596
74.9 29.9745 28.6304 1.3441
74.95 26.4893 28.6281 -2.1388
75 32.5044 28.6258 3.8786
75.05 25.0707 28.6235 -3.5528
75.1 40.791 28.6212 12.1698
75.15 35.9457 28.619 7.3267
75.2 35.074 28.6167 6.4573
75.25 30.3972 28.6144 1.7828
75.3 39.7033 28.6122 11.0911
75.35 34.3014 28.61 5.6914
75.4 28.1091 28.6077 -0.4986
75.45 32.6007 28.6055 3.9952
75.5 28.9081 28.6033 0.3048
75.55 37.2939 28.6011 8.6928
75.6 27.2252 28.5989 -1.3737
75.65 42.7373 28.5968 14.1405
75.7 29.9694 28.5946 1.3748
75.75 37.3915 28.5925 8.799
75.8 21.8295 28.5903 -6.7608
75.85 27.7535 28.5882 -0.8347
75.9 33.2615 28.5861 4.6754
75.95 33.4144 28.584 4.8304
76 37.4092 28.5819 8.8273
76.05 25.7572 28.5799 -2.8227
76.1 26.85 28.5778 -1.7278
76.15 32.9605 28.5758 4.3847
76.2 29.2696 28.5738 0.6958
76.25 24.2078 28.5718 -4.364
76.3 28.4354 28.5698 -0.1344
76.35 30.4031 28.5679 1.8352
76.4 27.9366 28.566 -0.6294
76.45 25.5976 28.564 -2.9664
76.5 37.3278 28.5621 8.7657
76.55 23.6003 28.5603 -4.96
76.6 27.0364 28.5584 -1.522
76.65 34.4156 28.5565 5.8591
76.7 25.4785 28.5547 -3.0762
76.75 32.9521 28.5529 4.3992
76.8 35.0502 28.5511 6.4991
76.85 28.4245 28.5493 -0.1248
76.9 21.3986 28.5475 -7.1489
76.95 28.7834 28.5458 0.2376
77 26.6533 28.544 -1.8907
77.05 32.4866 28.5423 3.9443
77.1 36.0506 28.5406 7.51
77.15 30.0265 28.5389 1.4876
77.2 30.7038 28.5373 2.1665
77.25 29.7864 28.5356 1.2508
77.3 30.7637 28.534 2.2297
77.35 33.1464 28.5324 4.614
77.4 32.9878 28.5308 4.457
77.45 34.2283 28.5293 5.699
77.5 29.8943 28.5277 1.3666
77.55 27.3592 28.5262 -1.167
77.6 29.5717 28.5247 1.047
77.65 30.0762 28.5233 1.5529
77.7 27.5957 28.5218 -0.9261
77.75 30.1792 28.5205 1.6587
77.8 27.5884 28.5191 -0.9307
77.85 31.9176 28.5179 3.3997
77.9 36.9996 28.5167 8.4829
77.95 34.5551 28.5156 6.0395
78 30.5467 28.5145 2.0322
78.05 23.1547 28.5136 -5.3589
78.1 34.7394 28.5126 6.2268
78.15 40.5054 28.5118 11.9936
78.2 33.1428 28.511 4.6318
78.25 28.9936 28.5104 0.4832
78.3 28.8324 28.5097 0.3227
78.35 29.002 28.5093 0.4927
78.4 30.9528 28.5088 2.444
78.45 20.5326 28.5085 -7.9759
78.5 31.2367 28.5082 2.7285
78.55 23.8954 28.5081 -4.6127
78.6 36.5032 28.5081 7.9951
78.65 33.3669 28.5082 4.8587
78.7 21.9172 28.5083 -6.5911
78.75 36.2871 28.5087 7.7784
78.8 31.4165 28.5091 2.9074
78.85 22.073 28.5097 -6.4367
78.9 35.4551 28.5103 6.9448
78.95 25.7958 28.5112 -2.7154
79 27.5131 28.5121 -0.999
79.05 28.0682 28.5134 -0.4452
79.1 31.5029 28.5146 2.9883
79.15 39.879 28.5162 11.3628
79.2 27.4991 28.5178 -1.0187
79.25 33.928 28.5198 5.4082
79.3 29.535 28.5218 1.0132
79.35 23.2889 28.5247 -5.2358
79.4 18.6752 28.5277 -9.8525
79.45 26.0893 28.5307 -2.4414
79.5 37.2065 28.5338 8.6727
79.55 41.9095 28.5375 13.372
79.6 30.2527 28.5413 1.7114
79.65 40.3468 28.5458 11.801
79.7 22.6687 28.5503 -5.8816
79.75 34.5964 28.5558 6.0406
79.8 17.2611 28.5613 -11.3002
79.85 27.7021 28.5679 -0.8658
79.9 30.895 28.5745 2.3205
79.95 34.2979 28.5826 5.7153
80 28.0594 28.5907 -0.5313
80.05 21.9576 28.6005 -6.6429
80.1 37.0509 28.6104 8.4405
80.15 38.8428 28.6225 10.2203
80.2 32.4435 28.6346 3.8089
80.25 31.9517 28.6496 3.3021
80.3 27.8259 28.6646 -0.8387
80.35 28.3573 28.6834 -0.3261
80.4 31.6527 28.7023 2.9504
80.45 28.3673 28.7263 -0.359
80.5 36.7464 28.7504 7.996
80.55 43.7772 28.782 14.9952
80.6 31.3962 28.8137 2.5825
80.65 28.7506 28.8585 -0.1079
80.7 29.2579 28.9034 0.3545
80.75 22.5721 28.9882 -6.4161
80.8 32.5615 29.0731 3.4884
80.85 31.469 29.1897 2.2793
80.9 29.2708 29.3063 -0.0355
80.95 27.6782 29.4225 -1.7443
81 24.9869 29.5387 -4.5518
81.05 27.0499 29.693 -2.6431
81.1 35.3501 29.8474 5.5027
81.15 24.3674 30.0681 -5.7007
81.2 37.3007 30.2888 7.0119
81.25 32.0097 30.6211 1.3886
81.3 25.9783 30.9534 -4.9751
81.35 37.2593 31.4847 5.7746
81.4 17.0525 32.016 -14.9635
81.45 26.9117 32.9369 -6.0252
81.5 36.4772 33.8577 2.6195
81.55 32.7384 35.6534 -2.915
81.6 40.2174 37.4491 2.7683
81.65 35.1423 41.7045 -6.5622
81.7 48.6767 45.9599 2.7168
81.75 71.0365 56.0513 14.9852
81.8 57.6699 75.1599 -17.49
81.85 124.041 117.935 6.106
81.9 211.572 195.651 15.921
81.95 274.324 282.906 -8.582
82 272.444 298.317 -25.873
82.05 201.675 215.229 -13.554
82.1 128.8 123.946 4.854
82.15 87.1861 75.7541 11.432
82.2 69.5812 55.0837 14.4975
82.25 50.0199 45.5922 4.4277
82.3 45.6873 40.085 5.6023
82.35 38.0479 37.4682 0.5797
82.4 37.9385 34.8515 3.087
82.45 26.8698 33.6476 -6.7778
82.5 26.4854 32.4438 -5.9584
82.55 33.2866 31.7969 1.4897
82.6 36.119 31.15 4.969
82.65 32.6348 30.7656 1.8692
82.7 42.3803 30.3813 11.999
82.75 32.9185 30.1361 2.7824
82.8 28.639 29.8908 -1.2518
82.85 27.8473 29.7258 -1.8785
82.9 27.1883 29.5607 -2.3724
82.95 35.2226 29.4442 5.7784
83 30.5293 29.3277 1.2016
83.05 29.5365 29.2387 0.2978
83.1 28.1584 29.1498 -0.9914
83.15 39.1423 29.0649 10.0774
83.2 37.0334 28.9801 8.0533
83.25 23.7828 28.9261 -5.1433
83.3 28.7334 28.8722 -0.1388
83.35 36.3477 28.8367 7.511
83.4 34.6283 28.8013 5.827
83.45 25.3683 28.7747 -3.4064
83.5 38.0367 28.7481 9.2886
83.55 27.1691 28.7274 -1.5583
83.6 38.2445 28.7067 9.5378
83.65 34.3673 28.6904 5.6769
83.7 33.1204 28.674 4.4464
83.75 32.0348 28.6609 3.3739
83.8 25.6127 28.6478 -3.0351
83.85 29.8267 28.6372 1.1895
83.9 29.6936 28.6266 1.067
83.95 32.6538 28.6179 4.0359
84 26.8454 28.6093 -1.7639
84.05 27.1351 28.6023 -1.4672
84.1 36.2391 28.5952 7.6439
84.15 33.2477 28.5894 4.6583
84.2 22.3906 28.5836 -6.193
84.25 33.4992 28.5788 4.9204
84.3 35.1572 28.5741 6.5831
84.35 35.7614 28.5701 7.1913
84.4 27.707 28.5662 -0.8592
84.45 30.4716 28.5629 1.9087
84.5 27.0307 28.5596 -1.5289
84.55 31.1132 28.5569 2.5563
84.6 28.8934 28.5542 0.3392
84.65 31.5523 28.552 3.0003
84.7 26.1715 28.5498 -2.3783
84.75 36.9001 28.5479 8.3522
84.8 25.2257 28.5461 -3.3204
84.85 22.6584 28.5446 -5.8862
84.9 26.8159 28.5431 -1.7272
84.95 27.6791 28.5419 -0.8628
85 36.2017 28.5406 7.6611
85.05 20.9369 28.5397 -7.6028
85.1 29.8284 28.5387 1.2897
85.15 32.6056 28.5379 4.0677
85.2 35.19 28.5371 6.6529
85.25 32.9854 28.5365 4.4489
85.3 36.3112 28.5359 7.7753
85.35 31.3867 28.5355 2.8512
85.4 35.188 28.5351 6.6529
85.45 17.416 28.5348 -11.1188
85.5 28.8435 28.5345 0.309
85.55 27.8013 28.5343 -0.733
85.6 36.2691 28.5342 7.7349
85.65 33.6553 28.5341 5.1212
85.7 35.1658 28.5341 6.6317
85.75 25.9058 28.5342 -2.6284
85.8 36.2622 28.5342 7.728
85.85 36.4176 28.5344 7.8832
85.9 36.0655 28.5346 7.5309
85.95 38.8131 28.5348 10.2783
86 36.1462 28.5351 7.6111
86.05 23.3639 28.5354 -5.1715
86.1 29.7184 28.5357 1.1827
86.15 34.925 28.5361 6.3889
86.2 26.2778 28.5365 -2.2587
86.25 28.5102 28.537 -0.0268
86.3 31.7226 28.5374 3.1852
86.35 28.201 28.5379 -0.3369
86.4 30.9146 28.5384 2.3762
86.45 27.7381 28.539 -0.8009
86.5 24.6614 28.5395 -3.8781
86.55 33.913 28.5401 5.3729
86.6 35.0733 28.5407 6.5326
86.65 32.9589 28.5413 4.4176
86.7 35.9638 28.5419 7.4219
86.75 24.6098 28.5426 -3.9328
86.8 33.6419 28.5432 5.0987
86.85 21.5219 28.5439 -7.022
86.9 33.3274 28.5445 4.7829
86.95 32.9869 28.5452 4.4417
87 30.223 28.5458 1.6772
87.05 28.6583 28.5465 0.1118
87.1 30.9052 28.5471 2.3581
87.15 36.0641 28.5478 7.5163
87.2 31.0265 28.5485 2.478
87.25 24.1314 28.5491 -4.4177
87.3 31.5663 28.5498 3.0165
87.35 34.0196 28.5504 5.4692
87.4 35.2206 28.551 6.6696
87.45 25.0671 28.5517 -3.4846
87.5 38.6107 28.5523 10.0584
87.55 31.8675 28.5529 3.3146
87.6 32.8394 28.5535 4.2859
87.65 27.7574 28.5542 -0.7968
87.7 34.268 28.5548 5.7132
87.75 28.886 28.5554 0.3306
87.8 28.7749 28.556 0.2189
87.85 24.1792 28.5566 -4.3774
87.9 19.9265 28.5572 -8.6307
87.95 30.6824 28.5577 2.1247
88 39.5082 28.5583 10.9499
88.05 31.8784 28.5589 3.3195
88.1 30.4029 28.5595 1.8434
88.15 29.7545 28.5601 1.1944
88.2 32.7624 28.5607 4.2017
88.25 31.7384 28.5612 3.1772
88.3 26.2335 28.5618 -2.3283
88.35 24.0612 28.5624 -4.5012
88.4 24.5312 28.563 -4.0318
88.45 27.871 28.5635 -0.6925
88.5 22.3094 28.5641 -6.2547
88.55 26.6266 28.5647 -1.9381
88.6 29.3341 28.5653 0.7688
88.65 31.3785 28.5658 2.8127
88.7 34.9008 28.5664 6.3344
88.75 25.9556 28.567 -2.6114
88.8 30.6071 28.5675 2.0396
88.85 30.4442 28.5681 1.8761
88.9 27.0373 28.5686 -1.5313
88.95 45.6095 28.5692 17.0403
89 29.9661 28.5697 1.3964
89.05 35.5587 28.5702 6.9885
89.1 25.166 28.5708 -3.4048
89.15 34.3827 28.5713 5.8114
89.2 36.1387 28.5718 7.5669
89.25 24.5297 28.5722 -4.0425
89.3 25.3659 28.5727 -3.2068
89.35 22.0657 28.5732 -6.5075
89.4 30.0834 28.5736 1.5098
89.45 34.1929 28.574 5.6189
89.5 29.9514 28.5745 1.3769
89.55 36.6841 28.5749 8.1092
89.6 23.7142 28.5752 -4.861
89.65 39.1769 28.5756 10.6013
89.7 27.2923 28.5759 -1.2836
89.75 37.9169 28.5762 9.3407
89.8 33.836 28.5765 5.2595
89.85 36.3688 28.5768 7.792
89.9 40.9608 28.577 12.3838
89.95 21.7311 28.5772 -6.8461
90 24.7522 28.5775 -3.8253
90.05 32.858 28.5776 4.2804
90.1 35.9327 28.5778 7.3549
90.15 33.0191 28.5779 4.4412
90.2 26.7044 28.578 -1.8736
90.25 21.5287 28.5781 -7.0494
90.3 38.0374 28.5782 9.4592
90.35 29.1018 28.5782 0.5236
90.4 28.8679 28.5783 0.2896
90.45 44.2432 28.5783 15.6649
90.5 30.1378 28.5783 1.5595
90.55 21.2376 28.5782 -7.3406
90.6 27.4313 28.5782 -1.1469
90.65 29.9583 28.5781 1.3802
90.7 34.2642 28.578 5.6862
90.75 32.596 28.5779 4.0181
90.8 33.5168 28.5778 4.939
90.85 34.4845 28.5777 5.9068
90.9 28.3078 28.5775 -0.2697
90.95 27.4997 28.5774 -1.0777
91 32.8308 28.5772 4.2536
91.05 27.7723 28.577 -0.8047
91.1 29.8054 28.5768 1.2286
91.15 36.8697 28.5766 8.2931
91.2 24.1189 28.5763 -4.4574
91.25 28.3184 28.5761 -0.2577
91.3 27.4462 28.5758 -1.1296
91.35 26.2132 28.5755 -2.3623
91.4 37.2214 28.5752 8.6462
91.45 32.0165 28.5749 3.4416
91.5 30.529 28.5745 1.9545
91.55 19.0869 28.5742 -9.4873
91.6 42.3971 28.5738 13.8233
91.65 34.8698 28.5734 6.2964
91.7 35.492 28.573 6.919
91.75 33.3149 28.5726 4.7423
91.8 34.056 28.5721 5.4839
91.85 36.7564 28.5716 8.1848
91.9 27.0021 28.5711 -1.569
91.95 27.0124 28.5706 -1.5582
92 29.7854 28.5701 1.2153
92.05 30.4804 28.5695 1.9109
92.1 36.1095 28.5689 7.5406
92.15 29.0584 28.5682 0.4902
92.2 31.5899 28.5676 3.0223
92.25 33.9493 28.5669 5.3824
92.3 34.6499 28.5662 6.0837
92.35 40.795 28.5654 12.2296
92.4 30.4167 28.5646 1.8521
92.45 26.1425 28.5638 -2.4213
92.5 33.2576 28.563 4.6946
92.55 30.5224 28.5621 1.9603
92.6 27.8599 28.5612 -0.7013
92.65 25.4455 28.5602 -3.1147
92.7 27.2147 28.5593 -1.3446
92.75 23.3517 28.5583 -5.2066
92.8 29.0857 28.5573 0.5284
92.85 28.6039 28.5562 0.0477
92.9 32.2089 28.5551 3.6538
92.95 36.3357 28.554 7.7817
93 24.6372 28.5529 -3.9157
93.05 25.7423 28.5517 -2.8094
93.1 39.5645 28.5505 11.014
93.15 24.3292 28.5493 -4.2201
93.2 28.9285 28.548 0.3805
93.25 31.9305 28.5468 3.3837
93.3 31.277 28.5455 2.7315
93.35 28.5891 28.5441 0.045
93.4 23.3882 28.5428 -5.1546
93.45 31.1496 28.5418 2.6078
93.5 40.6952 28.5408 12.1544
93.55 30.9215 28.5394 2.3821
93.6 26.7552 28.538 -1.7828
93.65 28.3397 28.5366 -0.1969
93.7 39.4571 28.5351 10.922
93.75 37.0819 28.5337 8.5482
93.8 31.9632 28.5322 3.431
93.85 40.4791 28.5308 11.9483
93.9 25.6272 28.5293 -2.9021
93.95 26.0155 28.5278 -2.5123
94 25.5622 28.5263 -2.9641
94.05 40.6123 28.5248 12.0875
94.1 32.0774 28.5233 3.5541
94.15 36.1216 28.5217 7.5999
94.2 27.0311 28.5202 -1.4891
94.25 31.0834 28.5185 2.5649
94.3 29.9148 28.5169 1.3979
94.35 46.2743 28.5151 17.7592
94.4 30.5481 28.5133 2.0348
94.45 28.9564 28.5114 0.445
94.5 34.0978 28.5095 5.5883
94.55 36.041 28.5076 7.5334
94.6 28.5318 28.5056 0.0262
94.65 29.5807 28.5035 1.0772
94.7 36.0644 28.5014 7.563
94.75 27.2646 28.4992 -1.2346
94.8 36.7429 28.497 8.2459
94.85 23.8122 28.4947 -4.6825
94.9 27.2233 28.4925 -1.2692
94.95 30.8032 28.4901 2.3131
95 25.7377 28.4878 -2.7501
95.05 34.2412 28.4854 5.7558
95.1 34.0619 28.483 5.5789
95.15 25.2879 28.4806 -3.1927
95.2 29.7423 28.4782 1.2641
95.25 26.5673 28.4757 -1.9084
95.3 31.1127 28.4733 2.6394
95.35 26.504 28.4709 -1.9669
95.4 23.9304 28.4685 -4.5381
95.45 28.7203 28.4662 0.2541
95.5 24.7123 28.4638 -3.7515
95.55 33.2723 28.4616 4.8107
95.6 29.3525 28.4593 0.8932
95.65 29.7068 28.4572 1.2496
95.7 26.141 28.4551 -2.3141
95.75 28.1509 28.4532 -0.3023
95.8 29.8115 28.4513 1.3602
95.85 28.7251 28.4496 0.2755
95.9 35.0652 28.448 6.6172
95.95 31.7753 28.4467 3.3286
96 31.0175 28.4454 2.5721
96.05 31.1967 28.4445 2.7522
96.1 32.2577 28.4436 3.8141
96.15 29.1024 28.4433 0.6591
96.2 32.9207 28.443 4.4777
96.25 36.2014 28.4434 7.758
96.3 28.2385 28.4438 -0.2053
96.35 27.7974 28.445 -0.6476
96.4 30.961 28.4463 2.5147
96.45 46.9273 28.4486 18.4787
96.5 31.7865 28.451 3.3355
96.55 21.5119 28.4547 -6.9428
96.6 27.7209 28.4584 -0.7375
96.65 22.8959 28.4639 -5.568
96.7 27.9347 28.4694 -0.5347
96.75 30.5292 28.4772 2.052
96.8 26.338 28.4849 -2.1469
96.85 36.8954 28.4957 8.3997
96.9 32.4071 28.5064 3.9007
96.95 29.8767 28.521 1.3557
97 19.8543 28.5357 -8.6814
97.05 26.8133 28.5558 -1.7425
97.1 30.404 28.5758 1.8282
97.15 27.0206 28.6038 -1.5832
97.2 29.4362 28.6319 0.8043
97.25 32.4515 28.6739 3.7776
97.3 38.7845 28.7159 10.0686
97.35 36.9999 28.783 8.2169
97.4 32.9192 28.85 4.0692
97.45 42.5007 28.9308 13.5699
97.5 23.1758 29.0115 -5.8357
97.55 26.385 29.1154 -2.7304
97.6 19.5023 29.2193 -9.717
97.65 29.0615 29.3658 -0.3043
97.7 34.6025 29.5123 5.0902
97.75 26.028 29.7288 -3.7008
97.8 36.2463 29.9454 6.3009
97.85 35.3435 30.2813 5.0622
97.9 28.964 30.6173 -1.6533
97.95 29.1877 31.1722 -1.9845
98 24.2194 31.7271 -7.5077
98.05 36.6981 32.728 3.9701
98.1 40.8221 33.7288 7.0933
98.15 39.9159 35.7889 4.127
98.2 35.8879 37.8489 -1.961
98.25 51.0372 41.7429 9.2943
98.3 36.8575 48.3462 -11.4887
98.35 54.52 60.8911 -6.3711
98.4 93.2919 82.2435 11.0484
98.45 118.632 116.841 1.791
98.5 150.804 154.007 -3.203
98.55 175.772 168.076 7.696
98.6 129.706 145.553 -15.847
98.65 96.1533 106.863 -10.7097
98.7 79.1705 75.9078 3.2627
98.75 58.7037 58.1533 0.5504
98.8 45.6273 47.6342 -2.0069
98.85 43.3937 41.7778 1.6159
98.9 39.3144 38.1294 1.185
98.95 39.9411 36.0881 3.853
99 36.9524 34.0468 2.9056
99.05 44.3207 32.9997 11.321
99.1 27.9664 31.9526 -3.9862
99.15 27.7141 31.3489 -3.6348
99.2 25.0977 30.7452 -5.6475
99.25 32.3797 30.367 2.0127
99.3 36.36 29.9887 6.3713
99.35 29.0658 29.7361 -0.6703
99.4 34.2204 29.4835 4.7369
99.45 19.5832 29.3054 -9.7222
99.5 29.8014 29.1272 0.6742
99.55 32.7013 28.9934 3.7079
99.6 25.4916 28.8595 -3.3679
99.65 34.8062 28.7428 6.0634
99.7 43.2006 28.6262 14.5744
99.75 25.2617 28.5227 -3.261
99.8 34.6489 28.4193 6.2296
99.85 33.9305 28.356 5.5745
99.9 30.605 28.2927 2.3123
99.95 25.0017 28.2484 -3.2467
100 31.1446 28.2041 2.9405
100.05 29.9632 28.1693 1.7939
100.1 28.0817 28.1346 -0.0529
100.15 28.0564 28.106 -0.0496
100.2 19.3096 28.0775 -8.7679
100.25 32.3704 28.0532 4.3172
100.3 26.5023 28.029 -1.5267
100.35 33.4933 28.008 5.4853
100.4 34.5906 27.987 6.6036
100.45 32.582 27.9685 4.6135
100.5 28.0705 27.95 0.1205
100.55 31.8167 27.9334 3.8833
100.6 29.156 27.9168 1.2392
100.65 14.3018 27.9017 -13.5999
100.7 33.9702 27.8867 6.0835
100.75 26.9626 27.8728 -0.9102
100.8 21.4514 27.859 -6.4076
100.85 29.0597 27.8462 1.2135
100.9 26.7542 27.8334 -1.0792
100.95 29.8541 27.8214 2.0327
101 27.9514 27.8094 0.142
101.05 25.7069 27.7981 -2.0912
101.1 36.8918 27.7868 9.105
101.15 32.2777 27.7761 4.5016
101.2 29.174 27.7654 1.4086
101.25 16.7829 27.7552 -10.9723
101.3 20.2419 27.745 -7.5031
101.35 37.8631 27.7352 10.1279
101.4 28.9831 27.7255 1.2576
101.45 32.9964 27.7161 5.2803
101.5 41.2091 27.7067 13.5024
101.55 30.0907 27.6976 2.3931
101.6 39.8353 27.6886 12.1467
101.65 36.9898 27.6798 9.31
101.7 20.5324 27.671 -7.1386
101.75 28.8752 27.6617 1.2135
101.8 28.6392 27.6524 0.9868
101.85 31.9879 27.6442 4.3437
101.9 26.3306 27.6359 -1.3053
101.95 22.5744 27.6279 -5.0535
102 37.068 27.6198 9.4482
102.05 42.278 27.612 14.666
102.1 25.6335 27.6041 -1.9706
102.15 42.0859 27.5964 14.4895
102.2 26.3613 27.5888 -1.2275
102.25 29.0518 27.5813 1.4705
102.3 25.0946 27.5738 -2.4792
102.35 31.5018 27.5664 3.9354
102.4 30.7181 27.5591 3.159
102.45 35.0588 27.5519 7.5069
102.5 24.8804 27.5447 -2.6643
102.55 34.4034 27.5377 6.8657
102.6 34.8995 27.5307 7.3688
102.65 38.9309 27.5238 11.4071
102.7 26.618 27.5168 -0.8988
102.75 32.5677 27.5101 5.0576
102.8 29.8626 27.5033 2.3593
102.85 42.2987 27.4967 14.802
102.9 29.4282 27.49 1.9382
102.95 34.8077 27.4835 7.3242
103 31.0546 27.477 3.5776
103.05 26.9695 27.4706 -0.5011
103.1 26.2147 27.4642 -1.2495
103.15 29.7559 27.4579 2.298
103.2 27.6334 27.4516 0.1818
103.25 32.001 27.4454 4.5556
103.3 37.146 27.4393 9.7067
103.35 32.0824 27.4332 4.6492
103.4 35.2308 27.4272 7.8036
103.45 37.5947 27.4212 10.1735
103.5 37.0058 27.4153 9.5905
103.55 25.5865 27.4095 -1.823
103.6 33.6575 27.4037 6.2538
103.65 28.4113 27.398 1.0133
103.7 28.6715 27.3923 1.2792
103.75 30.3591 27.3867 2.9724
103.8 31.1963 27.3811 3.8152
103.85 30.0484 27.3756 2.6728
103.9 29.3654 27.3702 1.9952
103.95 29.8587 27.3648 2.4939
104 41.4604 27.3595 14.1009
104.05 25.9696 27.3543 -1.3847
104.1 31.0236 27.3491 3.6745
104.15 32.6464 27.344 5.3024
104.2 32.9065 27.3389 5.5676
104.25 23.9041 27.3339 -3.4298
104.3 35.291 27.329 7.962
104.35 38.8687 27.3241 11.5446
104.4 34.9704 27.3193 7.6511
104.45 28.4123 27.3146 1.0977
104.5 25.8658 27.3099 -1.4441
104.55 26.4823 27.3054 -0.8231
104.6 22.2484 27.3009 -5.0525
104.65 25.5278 27.2964 -1.7686
104.7 24.703 27.292 -2.589
104.75 32.7469 27.2878 5.4591
104.8 31.9336 27.2835 4.6501
104.85 33.1177 27.2794 5.8383
104.9 28.0957 27.2753 0.8204
104.95 36.1481 27.2714 8.8767
105 31.1772 27.2674 3.9098
105.05 30.5363 27.2636 3.2727
105.1 30.1952 27.2598 2.9354
105.15 32.3739 27.2562 5.1177
105.2 37.3158 27.2525 10.0633
105.25 24.663 27.249 -2.586
105.3 38.5941 27.2455 11.3486
105.35 25.4769 27.2422 -1.7653
105.4 29.3817 27.2389 2.1428
105.45 31.3122 27.2357 4.0765
105.5 33.8008 27.2325 6.5683
105.55 28.3368 27.2295 1.1073
105.6 32.5806 27.2265 5.3541
105.65 39.2811 27.2237 12.0574
105.7 33.1232 27.2208 5.9024
105.75 23.6666 27.2181 -3.5515
105.8 25.2488 27.2155 -1.9667
105.85 43.6271 27.213 16.4141
105.9 31.16 27.2104 3.9496
105.95 27.9705 27.2081 0.7624
106 33.6988 27.2057 6.4931
106.05 25.2417 27.2036 -1.9619
106.1 29.5538 27.2014 2.3524
106.15 35.0209 27.1994 7.8215
106.2 43.1619 27.1974 15.9645
106.25 30.6459 27.1955 3.4504
106.3 31.1901 27.1937 3.9964
106.35 27.2768 27.1921 0.0847
106.4 35.3614 27.1904 8.171
106.45 28.886 27.1889 1.6971
106.5 30.768 27.1874 3.5806
106.55 44.8399 27.1861 17.6538
106.6 32.6626 27.1848 5.4778
106.65 36.0877 27.1837 8.904
106.7 21.2861 27.1826 -5.8965
106.75 22.0756 27.1817 -5.1061
106.8 28.2454 27.1808 1.0646
106.85 30.0092 27.18 2.8292
106.9 26.6055 27.1793 -0.5738
106.95 35.9437 27.1787 8.765
107 26.5565 27.1782 -0.6217
107.05 27.1858 27.1779 0.0079
107.1 32.0371 27.1775 4.8596
107.15 30.0831 27.1774 2.9057
107.2 30.0645 27.1773 2.8872
107.25 27.1166 27.1773 -0.0607
107.3 21.4952 27.1774 -5.6822
107.35 37.6316 27.1777 10.4539
107.4 26.8561 27.178 -0.3219
107.45 33.711 27.1785 6.5325
107.5 24.8274 27.179 -2.3516
107.55 31.8923 27.1797 4.7126
107.6 35.8591 27.1804 8.6787
107.65 36.2622 27.1814 9.0808
107.7 32.9148 27.1823 5.7325
107.75 27.1012 27.1835 -0.0823
107.8 28.5068 27.1847 1.3221
107.85 38.9618 27.1861 11.7757
107.9 29.2809 27.1875 2.0934
107.95 32.8937 27.1891 5.7046
108 36.4715 27.1908 9.2807
108.05 36.7463 27.1927 9.5536
108.1 33.8125 27.1946 6.6179
108.15 26.8597 27.1967 -0.337
108.2 34.4153 27.1988 7.2165
108.25 44.5752 27.2012 17.374
108.3 29.9843 27.2036 2.7807
108.35 43.303 27.2062 16.0968
108.4 37.2245 27.2088 10.0157
108.45 27.2406 27.2117 0.0289
108.5 23.4595 27.2145 -3.755
108.55 27.7979 27.2176 0.5803
108.6 19.8227 27.2206 -7.3979
108.65 31.4268 27.2238 4.203
108.7 32.4803 27.227 5.2533
108.75 18.715 27.2303 -8.5153
108.8 31.7088 27.2337 4.4751
108.85 25.6842 27.2372 -1.553
108.9 38.6786 27.2407 11.4379
108.95 25.2915 27.2443 -1.9528
109 32.8115 27.2479 5.5636
109.05 21.2483 27.2517 -6.0034
109.1 20.1263 27.2555 -7.1292
109.15 34.2119 27.2595 6.9524
109.2 42.6473 27.2634 15.3839
109.25 31.3962 27.2675 4.1287
109.3 24.392 27.2715 -2.8795
109.35 29.7553 27.2758 2.4795
109.4 29.8807 27.28 2.6007
109.45 24.9604 27.2843 -2.3239
109.5 31.6073 27.2887 4.3186
109.55 31.4854 27.2932 4.1922
109.6 35.702 27.2977 8.4043
109.65 34.4635 27.3024 7.1611
109.7 30.8174 27.307 3.5104
109.75 36.0845 27.3118 8.7727
109.8 30.9982 27.3166 3.6816
109.85 22.0391 27.3215 -5.2824
109.9 38.8916 27.3265 11.5651
109.95 27.3302 27.3316 -0.0014
110 32.1985 27.3367 4.8618
110.05 34.2697 27.3419 6.9278
110.1 23.3305 27.3472 -4.0167
110.15 25.6413 27.3526 -1.7113
110.2 26.746 27.358 -0.612
110.25 25.8465 27.3635 -1.517
110.3 24.8872 27.3691 -2.4819
110.35 29.1583 27.3748 1.7835
110.4 45.2091 27.3805 17.8286
110.45 36.9894 27.3864 9.603
110.5 28.866 27.3922 1.4738
110.55 29.0471 27.3983 1.6488
110.6 24.5019 27.4043 -2.9024
110.65 35.1752 27.4106 7.7646
110.7 39.0493 27.4168 11.6325
110.75 36.8325 27.4232 9.4093
110.8 30.8308 27.4296 3.4012
110.85 39.7092 27.4361 12.2731
110.9 32.9704 27.4427 5.5277
110.95 40.4448 27.4495 12.9953
111 29.2165 27.4562 1.7603
111.05 31.9189 27.4632 4.4557
111.1 24.763 27.4702 -2.7072
111.15 29.7001 27.4773 2.2228
111.2 33.3059 27.4845 5.8214
111.25 29.6185 27.4918 2.1267
111.3 30.2234 27.4992 2.7242
111.35 37.884 27.5068 10.3772
111.4 28.1795 27.5143 0.6652
111.45 25.5413 27.5221 -1.9808
111.5 31.3572 27.5299 3.8273
111.55 31.6711 27.5379 4.1332
111.6 34.789 27.5459 7.2431
111.65 37.5663 27.5542 10.0121
111.7 29.3149 27.5625 1.7524
111.75 36.1164 27.571 8.5454
111.8 29.6008 27.5795 2.0213
111.85 28.985 27.5883 1.3967
111.9 28.3591 27.5971 0.762
111.95 34.2395 27.6061 6.6334
112 29.9006 27.6152 2.2854
112.05 30.9617 27.6246 3.3371
112.1 26.5541 27.634 -1.0799
112.15 29.7143 27.6437 2.0706
112.2 29.842 27.6534 2.1886
112.25 32.813 27.6635 5.1495
112.3 27.0289 27.6735 -0.6446
112.35 28.3483 27.684 0.6643
112.4 30.1767 27.6945 2.4822
112.45 39.0798 27.7054 11.3744
112.5 38.9717 27.7163 11.2554
112.55 27.023 27.7277 -0.7047
112.6 25.8348 27.7391 -1.9043
112.65 30.5923 27.751 2.8413
112.7 30.7218 27.7629 2.9589
112.75 39.4116 27.7754 11.6362
112.8 32.224 27.788 4.436
112.85 42.079 27.801 14.278
112.9 44.0844 27.8144 16.27
112.95 45.1424 27.8283 17.3141
113 38.7907 27.8425 10.9482
113.05 26.9629 27.8574 -0.8945
113.1 29.611 27.8723 1.7387
113.15 31.5398 27.8883 3.6515
113.2 30.3916 27.9043 2.4873
113.25 30.1883 27.9215 2.2668
113.3 28.5395 27.9387 0.6008
113.35 23.5066 27.9574 -4.4508
113.4 24.8966 27.976 -3.0794
113.45 39.835 27.9963 11.8387
113.5 27.8638 28.0167 -0.1529
113.55 31.9796 28.0391 3.9405
113.6 28.8931 28.0614 0.8317
113.65 37.1575 28.0862 9.0713
113.7 32.3428 28.111 4.2318
113.75 39.031 28.138 10.893
113.8 49.6244 28.1665 21.4579
113.85 39.7065 28.1969 11.5096
113.9 25.7659 28.2292 -2.4633
113.95 31.2821 28.265 3.0171
114 37.3755 28.3008 9.0747
114.05 30.4625 28.3422 2.1203
114.1 35.8149 28.3835 7.4314
114.15 27.6035 28.4319 -0.8284
114.2 27.0921 28.4803 -1.3882
114.25 51.9191 28.5353 23.3838
114.3 19.1557 28.5954 -9.4397
114.35 31.4695 28.6649 2.8046
114.4 30.2418 28.7344 1.5074
114.45 30.9085 28.8201 2.0884
114.5 40.6532 28.9058 11.7474
114.55 33.458 29.0141 4.4439
114.6 36.4661 29.1225 7.3436
114.65 22.702 29.2624 -6.5604
114.7 27.865 29.4022 -1.5372
114.75 39.4059 29.5821 9.8238
114.8 29.1443 29.762 -0.6177
114.85 35.7204 29.9926 5.7278
114.9 32.2683 30.2231 2.0452
114.95 45.1612 30.5277 14.6335
115 34.3558 30.8324 3.5234
115.05 30.3289 31.2514 -0.9225
115.1 33.2387 31.6704 1.5683
115.15 34.0538 32.2704 1.7834
115.2 31.0644 32.8703 -1.8059
115.25 35.7003 33.7681 1.9322
115.3 33.6219 34.6659 -1.044
115.35 33.2295 36.0808 -2.8513
115.4 55.8248 37.4958 18.329
115.45 43.6448 39.5435 4.1013
115.5 39.7551 42.2327 -2.4776
115.55 37.9362 45.8195 -7.8833
115.6 49.3184 50.6627 -1.3443
115.65 74.4572 57.2257 17.2315
115.7 60.2706 65.9869 -5.7163
115.75 79.2426 77.1573 2.0853
115.8 81.6428 89.8693 -8.2265
115.85 101.877 101.837 0.04
115.9 118.829 109.535 9.294
115.95 97.503 109.764 -12.261
116 100.972 102.685 -1.713
116.05 89.4036 90.9108 -1.5072
116.1 80.3185 78.1881 2.1304
116.15 72.231 66.9724 5.2586
116.2 54.7685 58.1043 -3.3358
116.25 52.2805 51.5385 0.742
116.3 48.9079 46.5177 2.3902
116.35 41.2913 42.8685 -1.5772
116.4 35.3882 40.1331 -4.7449
116.45 30.2564 38.2891 -8.0327
116.5 49.7367 36.4451 13.2916
116.55 37.0516 35.3146 1.737
116.6 30.153 34.1841 -4.0311
116.65 32.39 33.4533 -1.0633
116.7 26.3572 32.7225 -6.3653
116.75 30.9438 32.2286 -1.2848
116.8 38.6932 31.7348 6.9584
116.85 36.3118 31.388 4.9238
116.9 33.3629 31.0413 2.3216
116.95 29.4616 30.7887 -1.3271
117 19.9113 30.5361 -10.6248
117.05 23.675 30.3458 -6.6708
117.1 29.9324 30.1555 -0.2231
117.15 38.3409 30.0116 8.3293
117.2 32.8358 29.8678 2.968
117.25 36.705 29.7616 6.9434
117.3 21.8356 29.6553 -7.8197
117.35 34.2093 29.5769 4.6324
117.4 33.3538 29.4984 3.8554
117.45 40.7559 29.4397 11.3162
117.5 25.1388 29.381 -4.2422
117.55 24.5866 29.3366 -4.75
117.6 24.0921 29.2922 -5.2001
117.65 33.5709 29.2586 4.3123
117.7 34.6125 29.225 5.3875
117.75 32.0916 29.1996 2.892
117.8 24.7376 29.1742 -4.4366
117.85 33.2729 29.1553 4.1176
117.9 30.1758 29.1364 1.0394
117.95 38.7298 29.1226 9.6072
118 31.0568 29.1088 1.948
118.05 31.1785 29.0992 2.0793
118.1 35.6008 29.0895 6.5113
118.15 31.0237 29.0832 1.9405
118.2 32.1569 29.0768 3.0801
118.25 27.4893 29.0733 -1.584
118.3 24.2805 29.0697 -4.7892
118.35 30.2543 29.0684 1.1859
118.4 32.8023 29.0671 3.7352
118.45 37.1024 29.0677 8.0347
118.5 21.2243 29.0682 -7.8439
118.55 25.4839 29.0704 -3.5865
118.6 32.3481 29.0726 3.2755
118.65 33.5533 29.0761 4.4772
118.7 24.5056 29.0796 -4.574
118.75 31.8234 29.0843 2.7391
118.8 32.7469 29.0889 3.658
118.85 26.6296 29.0946 -2.465
118.9 24.3122 29.1002 -4.788
118.95 24.9474 29.1067 -4.1593
119 32.378 29.1132 3.2648
119.05 28.1703 29.1204 -0.9501
119.1 29.9354 29.1276 0.8078
119.15 27.3914 29.1354 -1.744
119.2 27.1188 29.1432 -2.0244
119.25 24.0213 29.1516 -5.1303
119.3 26.543 29.16 -2.617
119.35 20.7712 29.1688 -8.3976
119.4 37.4792 29.1777 8.3015
119.45 39.2151 29.1869 10.0282
119.5 33.2258 29.1962 4.0296
119.55 19.8031 29.2058 -9.4027
119.6 32.3225 29.2155 3.107
119.65 37.5695 29.2254 8.3441
119.7 23.5823 29.2354 -5.6531
119.75 21.7537 29.2456 -7.4919
119.8 27.9268 29.2559 -1.3291
119.85 26.9832 29.2664 -2.2832
119.9 36.6845 29.2769 7.4076
119.95 16.8563 29.2876 -12.4313
120 32.6819 29.2983 3.3836
120.05 27.1985 29.3093 -2.1108
120.1 30.8146 29.3202 1.4944
120.15 30.7747 29.3313 1.4434
120.2 34.4782 29.3425 5.1357
120.25 39.1303 29.3538 9.7765
120.3 25.6662 29.365 -3.6988
120.35 31.113 29.3765 1.7365
120.4 29.3578 29.3879 -0.0301
120.45 16.9658 29.3995 -12.4337
120.5 23.0097 29.4111 -6.4014
120.55 27.0928 29.4228 -2.33
120.6 36.8135 29.4345 7.379
120.65 24.6596 29.4463 -4.7867
120.7 24.1536 29.4582 -5.3046
120.75 23.482 29.4701 -5.9881
120.8 40.6412 29.482 11.1592
120.85 33.1216 29.4941 3.6275
120.9 30.1935 29.5061 0.6874
120.95 31.5257 29.5183 2.0074
121 29.684 29.5304 0.1536
121.05 31.2862 29.5426 1.7436
121.1 22.5385 29.5548 -7.0163
121.15 25.1658 29.5671 -4.4013
121.2 22.1158 29.5795 -7.4637
121.25 32.0473 29.5918 2.4555
121.3 29.9397 29.6042 0.3355
121.35 29.5874 29.6167 -0.0293
121.4 36.899 29.6291 7.2699
121.45 27.6722 29.6417 -1.9695
121.5 26.6143 29.6542 -3.0399
121.55 31.9514 29.6668 2.2846
121.6 31.5137 29.6794 1.8343
121.65 33.0762 29.692 3.3842
121.7 36.5659 29.7047 6.8612
121.75 29.5248 29.7174 -0.1926
121.8 40.8909 29.7301 11.1608
121.85 31.5557 29.7428 1.8129
121.9 41.7054 29.7556 11.9498
121.95 36.2427 29.7684 6.4743
122 29.7131 29.7812 -0.0681
122.05 35.9675 29.7941 6.1734
122.1 30.5372 29.8069 0.7303
122.15 31.9513 29.8198 2.1315
122.2 29.2117 29.8327 -0.621
122.25 27.2467 29.8456 -2.5989
122.3 25.8813 29.8586 -3.9773
122.35 32.6759 29.8715 2.8044
122.4 24.1485 29.8845 -5.736
122.45 39.88 29.8975 9.9825
122.5 24.8442 29.9105 -5.0663
122.55 39.9631 29.9235 10.0396
122.6 28.7646 29.9365 -1.1719
122.65 33.3626 29.9496 3.413
122.7 30.708 29.9626 0.7454
122.75 28.9667 29.9752 -1.0085
122.8 27.9858 29.9878 -2.002
122.85 25.8236 30.0009 -4.1773
122.9 27.8139 30.014 -2.2001
122.95 28.7485 30.0271 -1.2786
123 28.9709 30.0402 -1.0693
123.05 30.1397 30.0533 0.0864
123.1 15.5638 30.0664 -14.5026
123.15 33.2007 30.0795 3.1212
123.2 34.3958 30.0926 4.3032
123.25 30.459 30.1057 0.3533
123.3 40.0016 30.1188 9.8828
123.35 38.877 30.1319 8.7451
123.4 31.8913 30.145 1.7463
123.45 32.7575 30.1581 2.5994
123.5 31.7073 30.1712 1.5361
123.55 23.2944 30.1843 -6.8899
123.6 30.7151 30.1974 0.5177
123.65 26.5793 30.2105 -3.6312
123.7 31.6104 30.2236 1.3868
123.75 21.9736 30.2367 -8.2631
123.8 25.2214 30.2498 -5.0284
123.85 15.5187 30.2629 -14.7442
123.9 27.2481 30.276 -3.0279
123.95 32.5996 30.2891 2.3105
124 24.4923 30.3022 -5.8099
124.05 33.147 30.3152 2.8318
124.1 32.5973 30.3283 2.269
124.15 39.9085 30.3414 9.5671
124.2 30.2626 30.3545 -0.0919
124.25 31.4711 30.3676 1.1035
124.3 30.6225 30.3807 0.2418
124.35 27.0823 30.3937 -3.3114
124.4 35.1107 30.4068 4.7039
124.45 37.6464 30.4199 7.2265
124.5 29.8496 30.433 -0.5834
124.55 30.8672 30.446 0.4212
124.6 26.4082 30.4591 -4.0509
124.65 27.1267 30.4722 -3.3455
124.7 26.4011 30.4852 -4.0841
124.75 34.3192 30.4983 3.8209
124.8 30.4589 30.5114 -0.0525
124.85 33.5672 30.5244 3.0428
124.9 24.4133 30.5375 -6.1242
124.95 29.2228 30.5505 -1.3277
125 26.4875 30.5636 -4.0761
125.05 31.8644 30.5766 1.2878
125.1 30.2864 30.5897 -0.3033
125.15 30.755 30.6027 0.1523
125.2 43.1207 30.6158 12.5049
125.25 33.1864 30.6288 2.5576
125.3 33.3548 30.6418 2.713
125.35 31.963 30.6549 1.3081
125.4 29.2443 30.6679 -1.4236
125.45 33.7025 30.6809 3.0216
125.5 38.5183 30.6939 7.8244
125.55 31.6872 30.7069 0.9803
125.6 26.0699 30.7199 -4.65
125.65 32.4871 30.7329 1.7542
125.7 34.2031 30.7459 3.4572
125.75 28.3484 30.7589 -2.4105
125.8 24.8635 30.7719 -5.9084
125.85 34.8189 30.7848 4.0341
125.9 24.7222 30.7978 -6.0756
125.95 21.521 30.8107 -9.2897
126 31.2332 30.8237 0.4095
126.05 34.836 30.8366 3.9994
126.1 31.3905 30.8495 0.541
126.15 37.1614 30.8624 6.299
126.2 36.1742 30.8753 5.2989
126.25 25.8874 30.8882 -5.0008
126.3 22.3675 30.901 -8.5335
126.35 41.9807 30.9139 11.0668
126.4 33.5724 30.9267 2.6457
126.45 33.439 30.9395 2.4995
126.5 24.8206 30.9524 -6.1318
126.55 29.2314 30.9651 -1.7337
126.6 35.2919 30.9779 4.314
126.65 27.0133 30.9907 -3.9774
126.7 32.56 31.0034 1.5566
126.75 36.5329 31.0161 5.5168
126.8 19.5418 31.0289 -11.4871
126.85 32.8662 31.0415 1.8247
126.9 28.4793 31.0542 -2.5749
126.95 27.2355 31.0668 -3.8313
127 30.5634 31.0795 -0.5161
127.05 36.8179 31.0921 5.7258
127.1 27.9993 31.1047 -3.1054
127.15 30.4948 31.1172 -0.6224
127.2 28.8196 31.1298 -2.3102
127.25 30.3759 31.1423 -0.7664
127.3 20.7445 31.1548 -10.4103
127.35 39.0494 31.1673 7.8821
127.4 46.3063 31.1798 15.1265
127.45 32.8777 31.1922 1.6855
127.5 25.7011 31.2046 -5.5035
127.55 27.0789 31.217 -4.1381
127.6 39.9679 31.2294 8.7385
127.65 27.3803 31.2417 -3.8614
127.7 34.5171 31.254 3.2631
127.75 43.5673 31.2663 12.301
127.8 39.8068 31.2786 8.5282
127.85 27.5447 31.2908 -3.7461
127.9 37.2144 31.3031 5.9113
127.95 23.9951 31.3152 -7.3201
128 25.7339 31.3274 -5.5935
128.05 26.5129 31.3396 -4.8267
128.1 34.8037 31.3517 3.452
128.15 40.2043 31.3638 8.8405
128.2 32.0416 31.3759 0.6657
128.25 23.4857 31.388 -7.9023
128.3 29.9176 31.4 -1.4824
128.35 35.3098 31.412 3.8978
128.4 35.8883 31.424 4.4643
128.45 29.5264 31.436 -1.9096
128.5 26.8524 31.4479 -4.5955
128.55 35.9626 31.4598 4.5028
128.6 45.754 31.4717 14.2823
128.65 34.0805 31.4836 2.5969
128.7 26.9381 31.4954 -4.5573
128.75 30.0164 31.5072 -1.4908
128.8 30.4907 31.519 -1.0283
128.85 24.2321 31.5308 -7.2987
128.9 29.6064 31.5426 -1.9362
128.95 24.519 31.5543 -7.0353
129 26.3173 31.566 -5.2487
129.05 30.8144 31.5776 -0.7632
129.1 37.9438 31.5893 6.3545
129.15 24.6224 31.6009 -6.9785
129.2 37.4829 31.6125 5.8704
129.25 25.4971 31.6241 -6.127
129.3 28.1415 31.6356 -3.4941
129.35 32.3574 31.6471 0.7103
129.4 41.402 31.6587 9.7433
129.45 32.1841 31.6701 0.514
129.5 34.2156 31.6816 2.534
129.55 28.7665 31.693 -2.9265
129.6 34.657 31.7044 2.9526
129.65 26.8082 31.7157 -4.9075
129.7 38.7113 31.7271 6.9842
129.75 29.9506 31.7384 -1.7878
129.8 21.7854 31.7497 -9.9643
129.85 27.0111 31.7609 -4.7498
129.9 38.5864 31.7721 6.8143
129.95 30.0993 31.7844 -1.6851
130 32.7412 31.7966 0.9446
