
#Surface 0 of 1 surfaces

#IsoCurve 0, 1801 points
#x y z type
 40  25.2957  31.1072 i
 40.05  37.9833  31.1038 i
 40.1  35.5871  31.1005 i
 40.15  37.3764  31.0971 i
 40.2  24.3782  31.0937 i
 40.25  41.7844  31.0904 i
 40.3  40.7495  31.087 i
 40.35  53.8708  31.0836 i
 40.4  42.2324  31.0802 i
 40.45  37.7315  31.0768 i
 40.5  35.7025  31.0734 i
 40.55  39.7795  31.07 i
 40.6  48.5985  31.0666 i
 40.65  34.9289  31.0632 i
 40.7  37.3601  31.0598 i
 40.75  37.0629  31.0564 i
 40.8  36.795  31.053 i
 40.85  26.8824  31.0495 i
 40.9  36.4758  31.0461 i
 40.95  49.8512  31.0427 i
 41  40.1224  31.0392 i
 41.05  51.2621  31.0358 i
 41.1  30.076  31.0324 i
 41.15  48.2889  31.0289 i
 41.2  41.0521  31.0254 i
 41.25  44.8834  31.022 i
 41.3  32.733  31.0185 i
 41.35  48.192  31.0151 i
 41.4  55.3922  31.0116 i
 41.45  39.9454  31.0081 i
 41.5  40.0106  31.0046 i
 41.55  42.8857  31.0012 i
 41.6  41.4091  30.9977 i
 41.65  32.8836  30.9942 i
 41.7  37.1235  30.9907 i
 41.75  47.0807  30.9872 i
 41.8  30.3644  30.9837 i
 41.85  28.2611  30.9802 i
 41.9  34.0152  30.9767 i
 41.95  49.9192  30.9731 i
 42  42.9154  30.9696 i
 42.05  48.6284  30.9661 i
 42.1  37.0607  30.9626 i
 42.15  30.7486  30.959 i
 42.2  50.2337  30.9555 i
 42.25  31.2721  30.952 i
 42.3  31.0027  30.9484 i
 42.35  26.9322  30.9449 i
 42.4  39.9449  30.9413 i
 42.45  48.2925  30.9378 i
 42.5  38.872  30.9342 i
 42.55  40.7742  30.9307 i
 42.6  46.6312  30.9271 i
 42.65  30.5005  30.9235 i
 42.7  43.0374  30.92 i
 42.75  31.3911  30.9164 i
 42.8  31.2382  30.9128 i
 42.85  37.2316  30.9092 i
 42.9  42.0958  30.9056 i
 42.95  41.267  30.9021 i
 43  33.7665  30.8985 i
 43.05  38.1774  30.8949 i
 43.1  40.3369  30.8913 i
 43.15  42.4581  30.8877 i
 43.2  42.5018  30.8841 i
 43.25  34.003  30.8804 i
 43.3  37.4905  30.8768 i
 43.35  49.7251  30.8732 i
 43.4  36.1402  30.8696 i
 43.45  40.8593  30.866 i
 43.5  32.9778  30.8623 i
 43.55  56.2121  30.8587 i
 43.6  31.8406  30.8551 i
 43.65  50.2046  30.8514 i
 43.7  41.1164  30.8478 i
 43.75  40.0491  30.8442 i
 43.8  41.6839  30.8405 i
 43.85  33.7421  30.8369 i
 43.9  45.0002  30.8332 i
 43.95  58.251  30.8296 i
 44  71.0404  30.8259 i
 44.05  66.163  30.8222 i
 44.1  85.9424  30.8186 i
 44.15  96.8245  30.8149 i
 44.2  151.518  30.8112 i
 44.25  394.813  30.8075 i
 44.3  1254.88  30.8039 i
 44.35  2097.42  30.8002 i
 44.4  2351.34  30.7965 i
 44.45  1429.92  30.7928 i
 44.5  487.381  30.7891 i
 44.55  205.611  30.7854 i
 44.6  97.489  30.7817 i
 44.65  65.1813  30.778 i
 44.7  69.7432  30.7743 i
 44.75  52.662  30.7706 i
 44.8  33.0692  30.7669 i
 44.85  49.7394  30.7632 i
 44.9  41.9836  30.7595 i
 44.95  50.8668  30.7558 i
 45  41.2694  30.7521 i
 45.05  39.332  30.7483 i
 45.1  53.9819  30.7446 i
 45.15  26.8388  30.7409 i
 45.2  44.8243  30.7371 i
 45.25  33.4605  30.7334 i
 45.3  34.6026  30.7297 i
 45.35  37.9299  30.7259 i
 45.4  44.1911  30.7222 i
 45.45  32.7102  30.7184 i
 45.5  36.4211  30.7147 i
 45.55  29.4217  30.7109 i
 45.6  33.5469  30.7072 i
 45.65  30.8203  30.7034 i
 45.7  42.1216  30.6997 i
 45.75  39.503  30.6959 i
 45.8  51.1851  30.6921 i
 45.85  34.7235  30.6884 i
 45.9  30.5375  30.6846 i
 45.95  48.3024  30.6808 i
 46  31.7939  30.6771 i
 46.05  28.0065  30.6733 i
 46.1  29.2908  30.6695 i
 46.15  30.6729  30.6657 i
 46.2  37.1713  30.6619 i
 46.25  39.4329  30.6582 i
 46.3  37.3077  30.6544 i
 46.35  45.4028  30.6506 i
 46.4  32.7209  30.6468 i
 46.45  35.7602  30.643 i
 46.5  35.6727  30.6392 i
 46.55  48.0373  30.6354 i
 46.6  30.9848  30.6316 i
 46.65  36.985  30.6278 i
 46.7  25.6139  30.624 i
 46.75  21.4292  30.6202 i
 46.8  37.9971  30.6164 i
 46.85  35.2434  30.6125 i
 46.9  36.5146  30.6087 i
 46.95  28.242  30.6049 i
 47  21.9178  30.6011 i
 47.05  38.3327  30.5973 i
 47.1  34.9492  30.5934 i
 47.15  39.2454  30.5896 i
 47.2  41.171  30.5858 i
 47.25  32.5525  30.5819 i
 47.3  39.7725  30.5781 i
 47.35  29.5121  30.5743 i
 47.4  33.0508  30.5704 i
 47.45  32.7842  30.5666 i
 47.5  33.6075  30.5628 i
 47.55  38.0381  30.5589 i
 47.6  27.0241  30.5551 i
 47.65  37.6986  30.5512 i
 47.7  32.7871  30.5474 i
 47.75  23.378  30.5435 i
 47.8  43.3699  30.5397 i
 47.85  35.4363  30.5358 i
 47.9  39.6134  30.5319 i
 47.95  38.1257  30.5281 i
 48  27.8948  30.5242 i
 48.05  33.4101  30.5204 i
 48.1  33.8571  30.5165 i
 48.15  36.6781  30.5126 i
 48.2  31.5103  30.5088 i
 48.25  36.1506  30.5049 i
 48.3  39.034  30.501 i
 48.35  29.2118  30.4971 i
 48.4  29.825  30.4933 i
 48.45  39.9216  30.4894 i
 48.5  31.6189  30.4855 i
 48.55  32.616  30.4816 i
 48.6  36.6645  30.4778 i
 48.65  38.6251  30.4739 i
 48.7  38.8404  30.47 i
 48.75  28.7023  30.4661 i
 48.8  24.4141  30.4622 i
 48.85  27.0908  30.4583 i
 48.9  39.0582  30.4544 i
 48.95  41.0709  30.4505 i
 49  42.2778  30.4466 i
 49.05  37.3791  30.4427 i
 49.1  29.8777  30.4388 i
 49.15  27.5661  30.4349 i
 49.2  41.923  30.431 i
 49.25  39.4275  30.4271 i
 49.3  32.8727  30.4232 i
 49.35  30.6095  30.4193 i
 49.4  31.4959  30.4154 i
 49.45  24.2811  30.4115 i
 49.5  38.2006  30.4076 i
 49.55  37.339  30.4037 i
 49.6  37.5117  30.3998 i
 49.65  27.258  30.3959 i
 49.7  38.117  30.392 i
 49.75  40.0301  30.3881 i
 49.8  34.6009  30.3841 i
 49.85  30.7744  30.3802 i
 49.9  28.1844  30.3763 i
 49.95  41.0739  30.3724 i
 50  31.0408  30.3685 i
 50.05  30.3584  30.3645 i
 50.1  30.1229  30.3606 i
 50.15  30.5995  30.3567 i
 50.2  19.3862  30.3528 i
 50.25  34.9985  30.3488 i
 50.3  35.8106  30.3449 i
 50.35  37.7353  30.341 i
 50.4  34.107  30.337 i
 50.45  42.9134  30.3331 i
 50.5  23.3577  30.3292 i
 50.55  30.3017  30.3253 i
 50.6  27.5116  30.3213 i
 50.65  33.3188  30.3174 i
 50.7  33.153  30.3134 i
 50.75  31.9029  30.3095 i
 50.8  33.4812  30.3056 i
 50.85  31.2137  30.3016 i
 50.9  43.458  30.2977 i
 50.95  36.2812  30.2938 i
 51  33.2304  30.2898 i
 51.05  26.438  30.2859 i
 51.1  29.2601  30.2819 i
 51.15  33.289  30.278 i
 51.2  37.0046  30.274 i
 51.25  30.5132  30.2701 i
 51.3  27.743  30.2662 i
 51.35  35.6787  30.2622 i
 51.4  35.4384  30.2583 i
 51.45  31.7622  30.2543 i
 51.5  40.1175  30.2504 i
 51.55  18.4124  30.2464 i
 51.6  37.0564  30.2425 i
 51.65  30.269  30.2385 i
 51.7  30.8702  30.2346 i
 51.75  40.4713  30.2306 i
 51.8  38.7465  30.2267 i
 51.85  47.6878  30.2227 i
 51.9  46.1499  30.2188 i
 51.95  36.6497  30.2148 i
 52  25.5852  30.2108 i
 52.05  25.7452  30.2069 i
 52.1  40.548  30.2029 i
 52.15  39.4982  30.199 i
 52.2  34.8044  30.195 i
 52.25  32.2418  30.1911 i
 52.3  33.6291  30.1871 i
 52.35  23.3455  30.1832 i
 52.4  37.2457  30.1792 i
 52.45  30.0288  30.1752 i
 52.5  36.588  30.1713 i
 52.55  38.2141  30.1673 i
 52.6  33.6023  30.1634 i
 52.65  30.183  30.1594 i
 52.7  38.8026  30.1554 i
 52.75  42.8912  30.1515 i
 52.8  35.0249  30.1475 i
 52.85  28.0011  30.1436 i
 52.9  32.744  30.1396 i
 52.95  27.9863  30.1356 i
 53  35.5536  30.1317 i
 53.05  31.2709  30.1277 i
 53.1  35.0923  30.1238 i
 53.15  38.6243  30.1198 i
 53.2  27.5909  30.1158 i
 53.25  43.8489  30.1119 i
 53.3  30.8846  30.1079 i
 53.35  23.6557  30.104 i
 53.4  37.7533  30.1 i
 53.45  35.6583  30.096 i
 53.5  31.5859  30.0921 i
 53.55  42.6858  30.0881 i
 53.6  40.3908  30.0842 i
 53.65  30.2502  30.0802 i
 53.7  32.9216  30.0762 i
 53.75  30.0937  30.0723 i
 53.8  38.7999  30.0683 i
 53.85  31.9248  30.0644 i
 53.9  34.0064  30.0604 i
 53.95  46.6138  30.0564 i
 54  32.7247  30.0525 i
 54.05  31.9035  30.0485 i
 54.1  20.6441  30.0446 i
 54.15  40.304  30.0406 i
 54.2  29.554  30.0366 i
 54.25  29.887  30.0327 i
 54.3  28.1495  30.0287 i
 54.35  28.9472  30.0248 i
 54.4  32.5731  30.0208 i
 54.45  25.8593  30.0168 i
 54.5  36.1781  30.0129 i
 54.55  28.0082  30.0089 i
 54.6  35.099  30.005 i
 54.65  26.3864  30.001 i
 54.7  37.2509  29.9971 i
 54.75  27.2133  29.9931 i
 54.8  32.1582  29.9892 i
 54.85  41.1576  29.9852 i
 54.9  28.2886  29.9812 i
 54.95  28.0051  29.9773 i
 55  36.6458  29.9733 i
 55.05  37.9868  29.9694 i
 55.1  31.0377  29.9654 i
 55.15  30.3573  29.9615 i
 55.2  23.0939  29.9575 i
 55.25  29.7657  29.9536 i
 55.3  45.0679  29.9496 i
 55.35  44.9336  29.9457 i
 55.4  29.6534  29.9417 i
 55.45  42.0614  29.9378 i
 55.5  31.3447  29.9338 i
 55.55  32.0962  29.9299 i
 55.6  39.6761  29.926 i
 55.65  33.3658  29.922 i
 55.7  31.1718  29.9181 i
 55.75  33.41  29.9141 i
 55.8  25.8629  29.9102 i
 55.85  26.167  29.9062 i
 55.9  26.0003  29.9023 i
 55.95  36.0636  29.8984 i
 56  39.5969  29.8944 i
 56.05  33.9208  29.8905 i
 56.1  31.5561  29.8866 i
 56.15  33.3144  29.8826 i
 56.2  27.4786  29.8787 i
 56.25  32.9859  29.8747 i
 56.3  35.4079  29.8708 i
 56.35  35.9707  29.8669 i
 56.4  26.4024  29.863 i
 56.45  29.4037  29.859 i
 56.5  33.8859  29.8551 i
 56.55  27.0052  29.8512 i
 56.6  28.0881  29.8472 i
 56.65  25.6225  29.8433 i
 56.7  28.8671  29.8394 i
 56.75  24.3186  29.8355 i
 56.8  30.6301  29.8315 i
 56.85  36.6446  29.8276 i
 56.9  28.5768  29.8237 i
 56.95  36.6089  29.8198 i
 57  24.9373  29.8159 i
 57.05  32.6692  29.8119 i
 57.1  29.7761  29.808 i
 57.15  39.4265  29.8041 i
 57.2  39.801  29.8002 i
 57.25  31.5713  29.7963 i
 57.3  25.2403  29.7924 i
 57.35  33.8911  29.7885 i
 57.4  33.0955  29.7846 i
 57.45  31.7777  29.7807 i
 57.5  32.0968  29.7768 i
 57.55  29.8088  29.7729 i
 57.6  28.0768  29.769 i
 57.65  20.8006  29.7651 i
 57.7  30.5374  29.7612 i
 57.75  28.331  29.7573 i
 57.8  31.2802  29.7534 i
 57.85  29.222  29.7495 i
 57.9  31.7454  29.7456 i
 57.95  37.8673  29.7417 i
 58  38.4353  29.7378 i
 58.05  36.9994  29.7339 i
 58.1  28.542  29.73 i
 58.15  29.5456  29.7261 i
 58.2  26.7874  29.7222 i
 58.25  28.6004  29.7184 i
 58.3  34.1137  29.7145 i
 58.35  29.3538  29.7106 i
 58.4  30.6732  29.7067 i
 58.45  34.4773  29.7029 i
 58.5  41.2735  29.699 i
 58.55  37.515  29.6951 i
 58.6  29.5929  29.6912 i
 58.65  32.0379  29.6874 i
 58.7  30.8602  29.6835 i
 58.75  26.6054  29.6796 i
 58.8  37.8946  29.6758 i
 58.85  41.0238  29.6719 i
 58.9  37.8074  29.6681 i
 58.95  32.6229  29.6642 i
 59  28.953  29.6603 i
 59.05  36.533  29.6565 i
 59.1  35.0634  29.6526 i
 59.15  22.5247  29.6488 i
 59.2  26.4412  29.6449 i
 59.25  31.3608  29.6411 i
 59.3  32.2877  29.6372 i
 59.35  37.2207  29.6334 i
 59.4  30.0044  29.6296 i
 59.45  32.8724  29.6257 i
 59.5  26.5095  29.6219 i
 59.55  27.1033  29.6181 i
 59.6  29.7646  29.6142 i
 59.65  25.9979  29.6104 i
 59.7  31.6936  29.6066 i
 59.75  30.5299  29.6027 i
 59.8  29.8394  29.5989 i
 59.85  34.9129  29.5951 i
 59.9  35.2179  29.5913 i
 59.95  26.6443  29.5875 i
 60  25.102  29.5836 i
 60.05  31.5063  29.5798 i
 60.1  27.3424  29.576 i
 60.15  36.693  29.5722 i
 60.2  28.2459  29.5684 i
 60.25  38.2806  29.5646 i
 60.3  32.6884  29.5608 i
 60.35  31.764  29.557 i
 60.4  29.2293  29.5532 i
 60.45  27.4055  29.5494 i
 60.5  27.3633  29.5456 i
 60.55  25.2276  29.5418 i
 60.6  25.7199  29.5381 i
 60.65  31.6502  29.5343 i
 60.7  23.0907  29.5305 i
 60.75  32.0236  29.5267 i
 60.8  32.5693  29.5229 i
 60.85  38.4637  29.5192 i
 60.9  38.5279  29.5154 i
 60.95  26.9084  29.5116 i
 61  33.7994  29.5079 i
 61.05  31.1861  29.5041 i
 61.1  30.665  29.5003 i
 61.15  35.894  29.4966 i
 61.2  27.3674  29.4928 i
 61.25  31.0319  29.4891 i
 61.3  30.0985  29.4853 i
 61.35  33.3825  29.4816 i
 61.4  28.6355  29.4778 i
 61.45  31.9227  29.4741 i
 61.5  35.2559  29.4703 i
 61.55  27.4513  29.4666 i
 61.6  38.8747  29.4629 i
 61.65  26.5758  29.4591 i
 61.7  45.2813  29.4554 i
 61.75  36.4966  29.4517 i
 61.8  34.3542  29.4479 i
 61.85  29.1312  29.4442 i
 61.9  36.4196  29.4405 i
 61.95  34.7096  29.4368 i
 62  33.2204  29.4331 i
 62.05  27.4957  29.4294 i
 62.1  30.0006  29.4257 i
 62.15  33.0913  29.422 i
 62.2  29.8318  29.4183 i
 62.25  34.0003  29.4146 i
 62.3  26.6878  29.4109 i
 62.35  28.6934  29.4072 i
 62.4  31.534  29.4035 i
 62.45  31.0214  29.3998 i
 62.5  33.8128  29.3961 i
 62.55  24.4547  29.3925 i
 62.6  34.5626  29.3888 i
 62.65  27.8017  29.3851 i
 62.7  34.0073  29.3814 i
 62.75  40.0256  29.3778 i
 62.8  48.3044  29.3741 i
 62.85  33.5546  29.3704 i
 62.9  35.5846  29.3668 i
 62.95  28.8211  29.3631 i
 63  33.0406  29.3595 i
 63.05  34.425  29.3558 i
 63.1  34.2123  29.3522 i
 63.15  30.9036  29.3486 i
 63.2  24.5412  29.3449 i
 63.25  37.864  29.3413 i
 63.3  28.3638  29.3377 i
 63.35  31.1109  29.334 i
 63.4  35.2697  29.3304 i
 63.45  29.2208  29.3268 i
 63.5  38.4274  29.3232 i
 63.55  36.4233  29.3196 i
 63.6  37.5029  29.3159 i
 63.65  23.1356  29.3123 i
 63.7  24.9391  29.3087 i
 63.75  24.2739  29.3051 i
 63.8  26.8803  29.3015 i
 63.85  24.7827  29.2979 i
 63.9  30.0638  29.2944 i
 63.95  26.7157  29.2908 i
 64  33.0798  29.2872 i
 64.05  38.829  29.2836 i
 64.1  29.9635  29.28 i
 64.15  44.1214  29.2765 i
 64.2  29.2812  29.2729 i
 64.25  35.7478  29.2693 i
 64.3  26.8294  29.2658 i
 64.35  34.362  29.2622 i
 64.4  39.4308  29.2587 i
 64.45  40.8924  29.2551 i
 64.5  48.1777  29.2516 i
 64.55  70.3631  29.248 i
 64.6  113.605  29.2445 i
 64.65  139.529  29.241 i
 64.7  161.33  29.2374 i
 64.75  151.339  29.2339 i
 64.8  94.7833  29.2304 i
 64.85  69.9994  29.2269 i
 64.9  62.4341  29.2233 i
 64.95  42.4541  29.2198 i
 65  34.7454  29.2163 i
 65.05  31.6886  29.2128 i
 65.1  26.2669  29.2093 i
 65.15  31.5482  29.2058 i
 65.2  33.5363  29.2023 i
 65.25  34.5155  29.1988 i
 65.3  40.5033  29.1954 i
 65.35  22.2407  29.1919 i
 65.4  31.6904  29.1884 i
 65.45  30.7366  29.1849 i
 65.5  38.2176  29.1815 i
 65.55  38.7843  29.178 i
 65.6  30.0692  29.1746 i
 65.65  25.3518  29.1711 i
 65.7  37.2314  29.1676 i
 65.75  25.7177  29.1642 i
 65.8  32.075  29.1608 i
 65.85  24.181  29.1573 i
 65.9  26.2084  29.1539 i
 65.95  26.6818  29.1505 i
 66  33.1072  29.147 i
 66.05  42.2723  29.1436 i
 66.1  32.2402  29.1402 i
 66.15  35.9658  29.1368 i
 66.2  34.5775  29.1334 i
 66.25  23.359  29.13 i
 66.3  31.3724  29.1266 i
 66.35  24.0164  29.1232 i
 66.4  40.276  29.1198 i
 66.45  24.8573  29.1164 i
 66.5  27.4878  29.113 i
 66.55  39.1381  29.1096 i
 66.6  36.7542  29.1063 i
 66.65  31.1656  29.1029 i
 66.7  39.3646  29.0995 i
 66.75  30.4555  29.0962 i
 66.8  34.9501  29.0928 i
 66.85  28.7101  29.0895 i
 66.9  30.6822  29.0861 i
 66.95  32.4496  29.0828 i
 67  26.2366  29.0795 i
 67.05  19.2065  29.0761 i
 67.1  21.9825  29.0728 i
 67.15  26.9298  29.0695 i
 67.2  37.5367  29.0662 i
 67.25  27.0316  29.0628 i
 67.3  22.0275  29.0595 i
 67.35  21.5099  29.0562 i
 67.4  22.5971  29.0529 i
 67.45  29.0995  29.0496 i
 67.5  36.7494  29.0463 i
 67.55  18.1536  29.0431 i
 67.6  28.9923  29.0398 i
 67.65  39.5162  29.0365 i
 67.7  37.2883  29.0332 i
 67.75  27.6048  29.03 i
 67.8  22.6153  29.0267 i
 67.85  23.2134  29.0235 i
 67.9  35.4748  29.0202 i
 67.95  26.2768  29.017 i
 68  36.0828  29.0137 i
 68.05  33.5451  29.0105 i
 68.1  26.8946  29.0073 i
 68.15  34.3648  29.004 i
 68.2  36.0789  29.0008 i
 68.25  29.8914  28.9976 i
 68.3  27.9709  28.9944 i
 68.35  20.2402  28.9912 i
 68.4  27.1503  28.988 i
 68.45  39.0144  28.9848 i
 68.5  25.9197  28.9816 i
 68.55  36.2693  28.9784 i
 68.6  31.2591  28.9752 i
 68.65  34.2891  28.972 i
 68.7  26.4415  28.9689 i
 68.75  27.671  28.9657 i
 68.8  38.3671  28.9625 i
 68.85  30.4194  28.9594 i
 68.9  45.6141  28.9562 i
 68.95  40.3798  28.9531 i
 69  40.0975  28.95 i
 69.05  28.2996  28.9468 i
 69.1  38.5994  28.9437 i
 69.15  27.7719  28.9406 i
 69.2  23.9816  28.9375 i
 69.25  24.4863  28.9343 i
 69.3  17.9349  28.9312 i
 69.35  45.7117  28.9281 i
 69.4  36.4513  28.925 i
 69.45  28.8184  28.922 i
 69.5  30.5021  28.9189 i
 69.55  29.7696  28.9158 i
 69.6  36.2832  28.9127 i
 69.65  28.5881  28.9096 i
 69.7  29.2274  28.9066 i
 69.75  23.5608  28.9035 i
 69.8  38.2071  28.9005 i
 69.85  37.9633  28.8974 i
 69.9  22.0246  28.8944 i
 69.95  19.7338  28.8914 i
 70  34.7337  28.8883 i
 70.05  30.5765  28.8853 i
 70.1  15.3211  28.8823 i
 70.15  19.4055  28.8793 i
 70.2  29.6218  28.8763 i
 70.25  31.4909  28.8733 i
 70.3  24.0715  28.8703 i
 70.35  29.6459  28.8673 i
 70.4  29.8181  28.8643 i
 70.45  25.0652  28.8613 i
 70.5  37.9841  28.8583 i
 70.55  16.8672  28.8554 i
 70.6  25.9247  28.8524 i
 70.65  33.6895  28.8495 i
 70.7  28.257  28.8465 i
 70.75  19.2985  28.8436 i
 70.8  40.287  28.8406 i
 70.85  33.9529  28.8377 i
 70.9  22.6965  28.8348 i
 70.95  20.241  28.8318 i
 71  20.3784  28.8289 i
 71.05  28.9055  28.826 i
 71.1  20.654  28.8231 i
 71.15  24.122  28.8202 i
 71.2  35.8692  28.8173 i
 71.25  36.0121  28.8145 i
 71.3  29.5414  28.8116 i
 71.35  29.6389  28.8087 i
 71.4  36.7863  28.8058 i
 71.45  24.4934  28.803 i
 71.5  31.7297  28.8001 i
 71.55  25.1432  28.7973 i
 71.6  31.1051  28.7944 i
 71.65  25.0646  28.7916 i
 71.7  34.4043  28.7888 i
 71.75  25.3844  28.7859 i
 71.8  25.2346  28.7831 i
 71.85  35.6012  28.7803 i
 71.9  33.7342  28.7775 i
 71.95  28.6076  28.7747 i
 72  29.883  28.7719 i
 72.05  25.8899  28.7691 i
 72.1  37.7298  28.7664 i
 72.15  30.6327  28.7636 i
 72.2  32.9949  28.7608 i
 72.25  24.1412  28.7581 i
 72.3  33.3755  28.7553 i
 72.35  30.7448  28.7526 i
 72.4  32.179  28.7498 i
 72.45  30.8285  28.7471 i
 72.5  31.998  28.7444 i
 72.55  37.0789  28.7416 i
 72.6  33.5224  28.7389 i
 72.65  34.8037  28.7362 i
 72.7  33.2228  28.7335 i
 72.75  40.2662  28.7308 i
 72.8  37.0237  28.7281 i
 72.85  28.406  28.7255 i
 72.9  33.6016  28.7228 i
 72.95  31.5439  28.7201 i
 73  39.1977  28.7174 i
 73.05  30.6644  28.7148 i
 73.1  33.4607  28.7121 i
 73.15  40.2536  28.7095 i
 73.2  24.7184  28.7069 i
 73.25  38.6831  28.7042 i
 73.3  31.1091  28.7016 i
 73.35  22.5703  28.699 i
 73.4  35.214  28.6964 i
 73.45  22.7905  28.6938 i
 73.5  23.5375  28.6912 i
 73.55  26.6968  28.6886 i
 73.6  32.4258  28.686 i
 73.65  36.4803  28.6834 i
 73.7  31.8972  28.6809 i
 73.75  29.6914  28.6783 i
 73.8  36.1807  28.6758 i
 73.85  32.627  28.6732 i
 73.9  25.2997  28.6707 i
 73.95  29.3437  28.6681 i
 74  39.8823  28.6656 i
 74.05  29.3279  28.6631 i
 74.1  32.2316  28.6606 i
 74.15  25.7102  28.6581 i
 74.2  33.2404  28.6556 i
 74.25  37.5154  28.6531 i
 74.3  27.7176  28.6506 i
 74.35  27.0091  28.6481 i
 74.4  24.9996  28.6457 i
 74.45  35.1844  28.6432 i
 74.5  31.2984  28.6407 i
 74.55  35.1982  28.6383 i
 74.6  35.0033  28.6359 i
 74.65  31.3111  28.6334 i
 74.7  31.1926  28.631 i
 74.75  28.335  28.6286 i
 74.8  23.9296  28.6262 i
 74.85  28.6923  28.6238 i
 74.9  29.9745  28.6214 i
 74.95  26.4893  28.619 i
 75  32.5044  28.6166 i
 75.05  25.0707  28.6142 i
 75.1  40.791  28.6118 i
 75.15  35.9457  28.6095 i
 75.2  35.074  28.6071 i
 75.25  30.3972  28.6048 i
 75.3  39.7033  28.6024 i
 75.35  34.3014  28.6001 i
 75.4  28.1091  28.5978 i
 75.45  32.6007  28.5955 i
 75.5  28.9081  28.5932 i
 75.55  37.2939  28.5909 i
 75.6  27.2252  28.5886 i
 75.65  42.7373  28.5863 i
 75.7  29.9694  28.584 i
 75.75  37.3915  28.5817 i
 75.8  21.8295  28.5795 i
 75.85  27.7535  28.5772 i
 75.9  33.2615  28.575 i
 75.95  33.4144  28.5727 i
 76  37.4092  28.5705 i
 76.05  25.7572  28.5683 i
 76.1  26.85  28.566 i
 76.15  32.9605  28.5638 i
 76.2  29.2696  28.5616 i
 76.25  24.2078  28.5594 i
 76.3  28.4354  28.5572 i
 76.35  30.4031  28.5551 i
 76.4  27.9366  28.5529 i
 76.45  25.5976  28.5507 i
 76.5  37.3278  28.5486 i
 76.55  23.6003  28.5464 i
 76.6  27.0364  28.5443 i
 76.65  34.4156  28.5422 i
 76.7  25.4785  28.54 i
 76.75  32.9521  28.5379 i
 76.8  35.0502  28.5358 i
 76.85  28.4245  28.5337 i
 76.9  21.3986  28.5316 i
 76.95  28.7834  28.5295 i
 77  26.6533  28.5274 i
 77.05  32.4866  28.5254 i
 77.1  36.0506  28.5233 i
 77.15  30.0265  28.5213 i
 77.2  30.7038  28.5192 i
 77.25  29.7864  28.5172 i
 77.3  30.7637  28.5152 i
 77.35  33.1464  28.5131 i
 77.4  32.9878  28.5111 i
 77.45  34.2283  28.5091 i
 77.5  29.8943  28.5071 i
 77.55  27.3592  28.5051 i
 77.6  29.5717  28.5032 i
 77.65  30.0762  28.5012 i
 77.7  27.5957  28.4992 i
 77.75  30.1792  28.4973 i
 77.8  27.5884  28.4954 i
 77.85  31.9176  28.4935 i
 77.9  36.9996  28.4917 i
 77.95  34.5551  28.4899 i
 78  30.5467  28.4882 i
 78.05  23.1547  28.4865 i
 78.1  34.7394  28.4848 i
 78.15  40.5054  28.4831 i
 78.2  33.1428  28.4815 i
 78.25  28.9936  28.4799 i
 78.3  28.8324  28.4784 i
 78.35  29.002  28.4769 i
 78.4  30.9528  28.4754 i
 78.45  20.5326  28.474 i
 78.5  31.2367  28.4726 i
 78.55  23.8954  28.4712 i
 78.6  36.5032  28.4699 i
 78.65  33.3669  28.4685 i
 78.7  21.9172  28.4673 i
 78.75  36.2871  28.466 i
 78.8  31.4165  28.4648 i
 78.85  22.073  28.4636 i
 78.9  35.4551  28.4625 i
 78.95  25.7958  28.4613 i
 79  27.5131  28.4603 i
 79.05  28.0682  28.4592 i
 79.1  31.5029  28.4582 i
 79.15  39.879  28.4572 i
 79.2  27.4991  28.4562 i
 79.25  33.928  28.4553 i
 79.3  29.535  28.4544 i
 79.35  23.2889  28.4535 i
 79.4  18.6752  28.4526 i
 79.45  26.0893  28.4518 i
 79.5  37.2065  28.451 i
 79.55  41.9095  28.4503 i
 79.6  30.2527  28.4495 i
 79.65  40.3468  28.4488 i
 79.7  22.6687  28.4481 i
 79.75  34.5964  28.4475 i
 79.8  17.2611  28.4468 i
 79.85  27.7021  28.4462 i
 79.9  30.895  28.4457 i
 79.95  34.2979  28.4451 i
 80  28.0594  28.4446 i
 80.05  21.9576  28.4441 i
 80.1  37.0509  28.4437 i
 80.15  38.8428  28.4432 i
 80.2  32.4435  28.4428 i
 80.25  31.9517  28.4424 i
 80.3  27.8259  28.442 i
 80.35  28.3573  28.4417 i
 80.4  31.6527  28.4414 i
 80.45  28.3673  28.4411 i
 80.5  36.7464  28.4408 i
 80.55  43.7772  28.4406 i
 80.6  31.3962  28.4404 i
 80.65  28.7506  28.4402 i
 80.7  29.2579  28.44 i
 80.75  22.5721  28.4399 i
 80.8  32.5615  28.4397 i
 80.85  31.469  28.4396 i
 80.9  29.2708  28.4395 i
 80.95  27.6782  28.4395 i
 81  24.9869  28.4394 i
 81.05  27.0499  28.4394 i
 81.1  35.3501  28.4394 i
 81.15  24.3674  28.4395 i
 81.2  37.3007  28.4395 i
 81.25  32.0097  28.4396 i
 81.3  25.9783  28.4397 i
 81.35  37.2593  28.4398 i
 81.4  17.0525  28.4399 i
 81.45  26.9117  28.4401 i
 81.5  36.4772  28.4402 i
 81.55  32.7384  28.4404 i
 81.6  40.2174  28.4406 i
 81.65  35.1423  28.4409 i
 81.7  48.6767  28.4411 i
 81.75  71.0365  28.4414 i
 81.8  57.6699  28.4416 i
 81.85  124.041  28.4419 i
 81.9  211.572  28.4423 i
 81.95  274.324  28.4426 i
 82  272.444  28.443 i
 82.05  201.675  28.4433 i
 82.1  128.8  28.4437 i
 82.15  87.1861  28.4441 i
 82.2  69.5812  28.4445 i
 82.25  50.0199  28.445 i
 82.3  45.6873  28.4454 i
 82.35  38.0479  28.4459 i
 82.4  37.9385  28.4464 i
 82.45  26.8698  28.4469 i
 82.5  26.4854  28.4474 i
 82.55  33.2866  28.4479 i
 82.6  36.119  28.4485 i
 82.65  32.6348  28.449 i
 82.7  42.3803  28.4496 i
 82.75  32.9185  28.4502 i
 82.8  28.639  28.4508 i
 82.85  27.8473  28.4514 i
 82.9  27.1883  28.452 i
 82.95  35.2226  28.4527 i
 83  30.5293  28.4533 i
 83.05  29.5365  28.454 i
 83.1  28.1584  28.4547 i
 83.15  39.1423  28.4554 i
 83.2  37.0334  28.4561 i
 83.25  23.7828  28.4568 i
 83.3  28.7334  28.4575 i
 83.35  36.3477  28.4583 i
 83.4  34.6283  28.459 i
 83.45  25.3683  28.4598 i
 83.5  38.0367  28.4605 i
 83.55  27.1691  28.4613 i
 83.6  38.2445  28.4621 i
 83.65  34.3673  28.4629 i
 83.7  33.1204  28.4637 i
 83.75  32.0348  28.4646 i
 83.8  25.6127  28.4654 i
 83.85  29.8267  28.4662 i
 83.9  29.6936  28.4671 i
 83.95  32.6538  28.4679 i
 84  26.8454  28.4688 i
 84.05  27.1351  28.4697 i
 84.1  36.2391  28.4706 i
 84.15  33.2477  28.4714 i
 84.2  22.3906  28.4723 i
 84.25  33.4992  28.4732 i
 84.3  35.1572  28.4742 i
 84.35  35.7614  28.4751 i
 84.4  27.707  28.476 i
 84.45  30.4716  28.4769 i
 84.5  27.0307  28.4779 i
 84.55  31.1132  28.4788 i
 84.6  28.8934  28.4798 i
 84.65  31.5523  28.4807 i
 84.7  26.1715  28.4817 i
 84.75  36.9001  28.4826 i
 84.8  25.2257  28.4836 i
 84.85  22.6584  28.4846 i
 84.9  26.8159  28.4856 i
 84.95  27.6791  28.4865 i
 85  36.2017  28.4875 i
 85.05  20.9369  28.4885 i
 85.1  29.8284  28.4895 i
 85.15  32.6056  28.4905 i
 85.2  35.19  28.4915 i
 85.25  32.9854  28.4925 i
 85.3  36.3112  28.4935 i
 85.35  31.3867  28.4945 i
 85.4  35.188  28.4955 i
 85.45  17.416  28.4966 i
 85.5  28.8435  28.4976 i
 85.55  27.8013  28.4986 i
 85.6  36.2691  28.4996 i
 85.65  33.6553  28.5006 i
 85.7  35.1658  28.5016 i
 85.75  25.9058  28.5026 i
 85.8  36.2622  28.5037 i
 85.85  36.4176  28.5047 i
 85.9  36.0655  28.5057 i
 85.95  38.8131  28.5067 i
 86  36.1462  28.5077 i
 86.05  23.3639  28.5088 i
 86.1  29.7184  28.5098 i
 86.15  34.925  28.5108 i
 86.2  26.2778  28.5118 i
 86.25  28.5102  28.5128 i
 86.3  31.7226  28.5138 i
 86.35  28.201  28.5148 i
 86.4  30.9146  28.5158 i
 86.45  27.7381  28.5168 i
 86.5  24.6614  28.5178 i
 86.55  33.913  28.5188 i
 86.6  35.0733  28.5198 i
 86.65  32.9589  28.5208 i
 86.7  35.9638  28.5218 i
 86.75  24.6098  28.5228 i
 86.8  33.6419  28.5238 i
 86.85  21.5219  28.5247 i
 86.9  33.3274  28.5257 i
 86.95  32.9869  28.5267 i
 87  30.223  28.5276 i
 87.05  28.6583  28.5286 i
 87.1  30.9052  28.5295 i
 87.15  36.0641  28.5305 i
 87.2  31.0265  28.5314 i
 87.25  24.1314  28.5323 i
 87.3  31.5663  28.5333 i
 87.35  34.0196  28.5342 i
 87.4  35.2206  28.5351 i
 87.45  25.0671  28.536 i
 87.5  38.6107  28.5369 i
 87.55  31.8675  28.5378 i
 87.6  32.8394  28.5387 i
 87.65  27.7574  28.5395 i
 87.7  34.268  28.5404 i
 87.75  28.886  28.5412 i
 87.8  28.7749  28.5421 i
 87.85  24.1792  28.5429 i
 87.9  19.9265  28.5438 i
 87.95  30.6824  28.5446 i
 88  39.5082  28.5454 i
 88.05  31.8784  28.5462 i
 88.1  30.4029  28.547 i
 88.15  29.7545  28.5478 i
 88.2  32.7624  28.5485 i
 88.25  31.7384  28.5493 i
 88.3  26.2335  28.55 i
 88.35  24.0612  28.5508 i
 88.4  24.5312  28.5515 i
 88.45  27.871  28.5522 i
 88.5  22.3094  28.5529 i
 88.55  26.6266  28.5536 i
 88.6  29.3341  28.5543 i
 88.65  31.3785  28.5549 i
 88.7  34.9008  28.5556 i
 88.75  25.9556  28.5562 i
 88.8  30.6071  28.5569 i
 88.85  30.4442  28.5575 i
 88.9  27.0373  28.5581 i
 88.95  45.6095  28.5587 i
 89  29.9661  28.5592 i
 89.05  35.5587  28.5598 i
 89.1  25.166  28.5603 i
 89.15  34.3827  28.5609 i
 89.2  36.1387  28.5614 i
 89.25  24.5297  28.5619 i
 89.3  25.3659  28.5623 i
 89.35  22.0657  28.5628 i
 89.4  30.0834  28.5633 i
 89.45  34.1929  28.5637 i
 89.5  29.9514  28.5641 i
 89.55  36.6841  28.5645 i
 89.6  23.7142  28.5649 i
 89.65  39.1769  28.5653 i
 89.7  27.2923  28.5656 i
 89.75  37.9169  28.566 i
 89.8  33.836  28.5663 i
 89.85  36.3688  28.5666 i
 89.9  40.9608  28.5668 i
 89.95  21.7311  28.5671 i
 90  24.7522  28.5673 i
 90.05  32.858  28.5676 i
 90.1  35.9327  28.5678 i
 90.15  33.0191  28.568 i
 90.2  26.7044  28.5681 i
 90.25  21.5287  28.5683 i
 90.3  38.0374  28.5684 i
 90.35  29.1018  28.5685 i
 90.4  28.8679  28.5686 i
 90.45  44.2432  28.5686 i
 90.5  30.1378  28.5687 i
 90.55  21.2376  28.5687 i
 90.6  27.4313  28.5687 i
 90.65  29.9583  28.5687 i
 90.7  34.2642  28.5687 i
 90.75  32.596  28.5686 i
 90.8  33.5168  28.5685 i
 90.85  34.4845  28.5684 i
 90.9  28.3078  28.5683 i
 90.95  27.4997  28.5681 i
 91  32.8308  28.5679 i
 91.05  27.7723  28.5677 i
 91.1  29.8054  28.5675 i
 91.15  36.8697  28.5673 i
 91.2  24.1189  28.567 i
 91.25  28.3184  28.5667 i
 91.3  27.4462  28.5664 i
 91.35  26.2132  28.566 i
 91.4  37.2214  28.5657 i
 91.45  32.0165  28.5653 i
 91.5  30.529  28.5648 i
 91.55  19.0869  28.5644 i
 91.6  42.3971  28.5639 i
 91.65  34.8698  28.5634 i
 91.7  35.492  28.5629 i
 91.75  33.3149  28.5624 i
 91.8  34.056  28.5618 i
 91.85  36.7564  28.5612 i
 91.9  27.0021  28.5605 i
 91.95  27.0124  28.5599 i
 92  29.7854  28.5592 i
 92.05  30.4804  28.5585 i
 92.1  36.1095  28.5577 i
 92.15  29.0584  28.557 i
 92.2  31.5899  28.5562 i
 92.25  33.9493  28.5554 i
 92.3  34.6499  28.5545 i
 92.35  40.795  28.5536 i
 92.4  30.4167  28.5527 i
 92.45  26.1425  28.5518 i
 92.5  33.2576  28.5508 i
 92.55  30.5224  28.5498 i
 92.6  27.8599  28.5487 i
 92.65  25.4455  28.5477 i
 92.7  27.2147  28.5466 i
 92.75  23.3517  28.5455 i
 92.8  29.0857  28.5443 i
 92.85  28.6039  28.5431 i
 92.9  32.2089  28.5419 i
 92.95  36.3357  28.5406 i
 93  24.6372  28.5393 i
 93.05  25.7423  28.538 i
 93.1  39.5645  28.5367 i
 93.15  24.3292  28.5353 i
 93.2  28.9285  28.5339 i
 93.25  31.9305  28.5324 i
 93.3  31.277  28.5309 i
 93.35  28.5891  28.5294 i
 93.4  23.3882  28.5279 i
 93.45  31.1496  28.5263 i
 93.5  40.6952  28.5247 i
 93.55  30.9215  28.523 i
 93.6  26.7552  28.5213 i
 93.65  28.3397  28.5196 i
 93.7  39.4571  28.5179 i
 93.75  37.0819  28.5161 i
 93.8  31.9632  28.5142 i
 93.85  40.4791  28.5124 i
 93.9  25.6272  28.5105 i
 93.95  26.0155  28.5085 i
 94  25.5622  28.5066 i
 94.05  40.6123  28.5046 i
 94.1  32.0774  28.5025 i
 94.15  36.1216  28.5004 i
 94.2  27.0311  28.4983 i
 94.25  31.0834  28.4961 i
 94.3  29.9148  28.4938 i
 94.35  46.2743  28.4914 i
 94.4  30.5481  28.4889 i
 94.45  28.9564  28.4864 i
 94.5  34.0978  28.4837 i
 94.55  36.041  28.481 i
 94.6  28.5318  28.4782 i
 94.65  29.5807  28.4753 i
 94.7  36.0644  28.4724 i
 94.75  27.2646  28.4694 i
 94.8  36.7429  28.4663 i
 94.85  23.8122  28.4631 i
 94.9  27.2233  28.4598 i
 94.95  30.8032  28.4565 i
 95  25.7377  28.4531 i
 95.05  34.2412  28.4496 i
 95.1  34.0619  28.4461 i
 95.15  25.2879  28.4425 i
 95.2  29.7423  28.4388 i
 95.25  26.5673  28.435 i
 95.3  31.1127  28.4312 i
 95.35  26.504  28.4273 i
 95.4  23.9304  28.4233 i
 95.45  28.7203  28.4193 i
 95.5  24.7123  28.4152 i
 95.55  33.2723  28.411 i
 95.6  29.3525  28.4068 i
 95.65  29.7068  28.4025 i
 95.7  26.141  28.3982 i
 95.75  28.1509  28.3937 i
 95.8  29.8115  28.3893 i
 95.85  28.7251  28.3847 i
 95.9  35.0652  28.3801 i
 95.95  31.7753  28.3755 i
 96  31.0175  28.3707 i
 96.05  31.1967  28.3659 i
 96.1  32.2577  28.3611 i
 96.15  29.1024  28.3562 i
 96.2  32.9207  28.3512 i
 96.25  36.2014  28.3462 i
 96.3  28.2385  28.3412 i
 96.35  27.7974  28.3361 i
 96.4  30.961  28.3309 i
 96.45  46.9273  28.3256 i
 96.5  31.7865  28.3204 i
 96.55  21.5119  28.315 i
 96.6  27.7209  28.3097 i
 96.65  22.8959  28.3042 i
 96.7  27.9347  28.2987 i
 96.75  30.5292  28.2932 i
 96.8  26.338  28.2876 i
 96.85  36.8954  28.282 i
 96.9  32.4071  28.2763 i
 96.95  29.8767  28.2706 i
 97  19.8543  28.2649 i
 97.05  26.8133  28.259 i
 97.1  30.404  28.2532 i
 97.15  27.0206  28.2473 i
 97.2  29.4362  28.2414 i
 97.25  32.4515  28.2354 i
 97.3  38.7845  28.2294 i
 97.35  36.9999  28.2233 i
 97.4  32.9192  28.2172 i
 97.45  42.5007  28.2111 i
 97.5  23.1758  28.2049 i
 97.55  26.385  28.1987 i
 97.6  19.5023  28.1924 i
 97.65  29.0615  28.1861 i
 97.7  34.6025  28.1798 i
 97.75  26.028  28.1735 i
 97.8  36.2463  28.1671 i
 97.85  35.3435  28.1607 i
 97.9  28.964  28.1542 i
 97.95  29.1877  28.1477 i
 98  24.2194  28.1412 i
 98.05  36.6981  28.1346 i
 98.1  40.8221  28.1281 i
 98.15  39.9159  28.1215 i
 98.2  35.8879  28.1148 i
 98.25  51.0372  28.1082 i
 98.3  36.8575  28.1015 i
 98.35  54.52  28.0948 i
 98.4  93.2919  28.088 i
 98.45  118.632  28.0813 i
 98.5  150.804  28.0745 i
 98.55  175.772  28.0677 i
 98.6  129.706  28.0608 i
 98.65  96.1533  28.054 i
 98.7  79.1705  28.0471 i
 98.75  58.7037  28.0402 i
 98.8  45.6273  28.0333 i
 98.85  43.3937  28.0263 i
 98.9  39.3144  28.0194 i
 98.95  39.9411  28.0124 i
 99  36.9524  28.0054 i
 99.05  44.3207  27.9984 i
 99.1  27.9664  27.9914 i
 99.15  27.7141  27.9844 i
 99.2  25.0977  27.9773 i
 99.25  32.3797  27.9703 i
 99.3  36.36  27.9632 i
 99.35  29.0658  27.9561 i
 99.4  34.2204  27.949 i
 99.45  19.5832  27.9419 i
 99.5  29.8014  27.9348 i
 99.55  32.7013  27.9277 i
 99.6  25.4916  27.9205 i
 99.65  34.8062  27.9134 i
 99.7  43.2006  27.9063 i
 99.75  25.2617  27.8991 i
 99.8  34.6489  27.892 i
 99.85  33.9305  27.8848 i
 99.9  30.605  27.8776 i
 99.95  25.0017  27.8705 i
 100  31.1446  27.8633 i
 100.05  29.9632  27.8561 i
 100.1  28.0817  27.8489 i
 100.15  28.0564  27.8418 i
 100.2  19.3096  27.8346 i
 100.25  32.3704  27.8274 i
 100.3  26.5023  27.8202 i
 100.35  33.4933  27.8131 i
 100.4  34.5906  27.8059 i
 100.45  32.582  27.7987 i
 100.5  28.0705  27.7916 i
 100.55  31.8167  27.7844 i
 100.6  29.156  27.7773 i
 100.65  14.3018  27.7701 i
 100.7  33.9702  27.763 i
 100.75  26.9626  27.7559 i
 100.8  21.4514  27.7488 i
 100.85  29.0597  27.7417 i
 100.9  26.7542  27.7346 i
 100.95  29.8541  27.7275 i
 101  27.9514  27.7204 i
 101.05  25.7069  27.7134 i
 101.1  36.8918  27.7063 i
 101.15  32.2777  27.6993 i
 101.2  29.174  27.6923 i
 101.25  16.7829  27.6853 i
 101.3  20.2419  27.6783 i
 101.35  37.8631  27.6713 i
 101.4  28.9831  27.6644 i
 101.45  32.9964  27.6574 i
 101.5  41.2091  27.6505 i
 101.55  30.0907  27.6436 i
 101.6  39.8353  27.6367 i
 101.65  36.9898  27.6299 i
 101.7  20.5324  27.6231 i
 101.75  28.8752  27.6163 i
 101.8  28.6392  27.6095 i
 101.85  31.9879  27.6027 i
 101.9  26.3306  27.596 i
 101.95  22.5744  27.5893 i
 102  37.068  27.5826 i
 102.05  42.278  27.5759 i
 102.1  25.6335  27.5693 i
 102.15  42.0859  27.5627 i
 102.2  26.3613  27.5561 i
 102.25  29.0518  27.5496 i
 102.3  25.0946  27.543 i
 102.35  31.5018  27.5366 i
 102.4  30.7181  27.5301 i
 102.45  35.0588  27.5237 i
 102.5  24.8804  27.5173 i
 102.55  34.4034  27.5109 i
 102.6  34.8995  27.5046 i
 102.65  38.9309  27.4983 i
 102.7  26.618  27.4921 i
 102.75  32.5677  27.4859 i
 102.8  29.8626  27.4797 i
 102.85  42.2987  27.4736 i
 102.9  29.4282  27.4675 i
 102.95  34.8077  27.4614 i
 103  31.0546  27.4554 i
 103.05  26.9695  27.4494 i
 103.1  26.2147  27.4435 i
 103.15  29.7559  27.4376 i
 103.2  27.6334  27.4318 i
 103.25  32.001  27.4259 i
 103.3  37.146  27.4202 i
 103.35  32.0824  27.4145 i
 103.4  35.2308  27.4088 i
 103.45  37.5947  27.4032 i
 103.5  37.0058  27.3976 i
 103.55  25.5865  27.3921 i
 103.6  33.6575  27.3866 i
 103.65  28.4113  27.3812 i
 103.7  28.6715  27.3758 i
 103.75  30.3591  27.3705 i
 103.8  31.1963  27.3652 i
 103.85  30.0484  27.36 i
 103.9  29.3654  27.3548 i
 103.95  29.8587  27.3497 i
 104  41.4604  27.3446 i
 104.05  25.9696  27.3396 i
 104.1  31.0236  27.3347 i
 104.15  32.6464  27.3298 i
 104.2  32.9065  27.3249 i
 104.25  23.9041  27.3202 i
 104.3  35.291  27.3154 i
 104.35  38.8687  27.3108 i
 104.4  34.9704  27.3062 i
 104.45  28.4123  27.3016 i
 104.5  25.8658  27.2972 i
 104.55  26.4823  27.2927 i
 104.6  22.2484  27.2884 i
 104.65  25.5278  27.2841 i
 104.7  24.703  27.2799 i
 104.75  32.7469  27.2757 i
 104.8  31.9336  27.2716 i
 104.85  33.1177  27.2676 i
 104.9  28.0957  27.2636 i
 104.95  36.1481  27.2598 i
 105  31.1772  27.2559 i
 105.05  30.5363  27.2522 i
 105.1  30.1952  27.2485 i
 105.15  32.3739  27.2449 i
 105.2  37.3158  27.2413 i
 105.25  24.663  27.2379 i
 105.3  38.5941  27.2345 i
 105.35  25.4769  27.2312 i
 105.4  29.3817  27.2279 i
 105.45  31.3122  27.2247 i
 105.5  33.8008  27.2216 i
 105.55  28.3368  27.2186 i
 105.6  32.5806  27.2157 i
 105.65  39.2811  27.2128 i
 105.7  33.1232  27.21 i
 105.75  23.6666  27.2073 i
 105.8  25.2488  27.2047 i
 105.85  43.6271  27.2022 i
 105.9  31.16  27.1997 i
 105.95  27.9705  27.1973 i
 106  33.6988  27.195 i
 106.05  25.2417  27.1928 i
 106.1  29.5538  27.1907 i
 106.15  35.0209  27.1886 i
 106.2  43.1619  27.1867 i
 106.25  30.6459  27.1848 i
 106.3  31.1901  27.183 i
 106.35  27.2768  27.1813 i
 106.4  35.3614  27.1797 i
 106.45  28.886  27.1782 i
 106.5  30.768  27.1768 i
 106.55  44.8399  27.1754 i
 106.6  32.6626  27.1742 i
 106.65  36.0877  27.173 i
 106.7  21.2861  27.172 i
 106.75  22.0756  27.171 i
 106.8  28.2454  27.1701 i
 106.85  30.0092  27.1693 i
 106.9  26.6055  27.1687 i
 106.95  35.9437  27.1681 i
 107  26.5565  27.1676 i
 107.05  27.1858  27.1672 i
 107.1  32.0371  27.1669 i
 107.15  30.0831  27.1667 i
 107.2  30.0645  27.1666 i
 107.25  27.1166  27.1666 i
 107.3  21.4952  27.1667 i
 107.35  37.6316  27.1669 i
 107.4  26.8561  27.1673 i
 107.45  33.711  27.1677 i
 107.5  24.8274  27.1682 i
 107.55  31.8923  27.1688 i
 107.6  35.8591  27.1696 i
 107.65  36.2622  27.1704 i
 107.7  32.9148  27.1714 i
 107.75  27.1012  27.1724 i
 107.8  28.5068  27.1736 i
 107.85  38.9618  27.1748 i
 107.9  29.2809  27.1762 i
 107.95  32.8937  27.1777 i
 108  36.4715  27.1793 i
 108.05  36.7463  27.181 i
 108.1  33.8125  27.1829 i
 108.15  26.8597  27.1848 i
 108.2  34.4153  27.1869 i
 108.25  44.5752  27.1891 i
 108.3  29.9843  27.1913 i
 108.35  43.303  27.1937 i
 108.4  37.2245  27.1963 i
 108.45  27.2406  27.1989 i
 108.5  23.4595  27.2017 i
 108.55  27.7979  27.2045 i
 108.6  19.8227  27.2074 i
 108.65  31.4268  27.2104 i
 108.7  32.4803  27.2134 i
 108.75  18.715  27.2165 i
 108.8  31.7088  27.2197 i
 108.85  25.6842  27.2229 i
 108.9  38.6786  27.2262 i
 108.95  25.2915  27.2296 i
 109  32.8115  27.2331 i
 109.05  21.2483  27.2366 i
 109.1  20.1263  27.2402 i
 109.15  34.2119  27.2439 i
 109.2  42.6473  27.2476 i
 109.25  31.3962  27.2514 i
 109.3  24.392  27.2552 i
 109.35  29.7553  27.2592 i
 109.4  29.8807  27.2632 i
 109.45  24.9604  27.2672 i
 109.5  31.6073  27.2714 i
 109.55  31.4854  27.2756 i
 109.6  35.702  27.2798 i
 109.65  34.4635  27.2842 i
 109.7  30.8174  27.2886 i
 109.75  36.0845  27.293 i
 109.8  30.9982  27.2976 i
 109.85  22.0391  27.3022 i
 109.9  38.8916  27.3068 i
 109.95  27.3302  27.3115 i
 110  32.1985  27.3163 i
 110.05  34.2697  27.3212 i
 110.1  23.3305  27.3261 i
 110.15  25.6413  27.3311 i
 110.2  26.746  27.3361 i
 110.25  25.8465  27.3412 i
 110.3  24.8872  27.3464 i
 110.35  29.1583  27.3516 i
 110.4  45.2091  27.3569 i
 110.45  36.9894  27.3622 i
 110.5  28.866  27.3676 i
 110.55  29.0471  27.3731 i
 110.6  24.5019  27.3787 i
 110.65  35.1752  27.3843 i
 110.7  39.0493  27.3899 i
 110.75  36.8325  27.3956 i
 110.8  30.8308  27.4014 i
 110.85  39.7092  27.4073 i
 110.9  32.9704  27.4132 i
 110.95  40.4448  27.4191 i
 111  29.2165  27.4251 i
 111.05  31.9189  27.4312 i
 111.1  24.763  27.4374 i
 111.15  29.7001  27.4435 i
 111.2  33.3059  27.4498 i
 111.25  29.6185  27.4561 i
 111.3  30.2234  27.4625 i
 111.35  37.884  27.4689 i
 111.4  28.1795  27.4754 i
 111.45  25.5413  27.4819 i
 111.5  31.3572  27.4885 i
 111.55  31.6711  27.4952 i
 111.6  34.789  27.5019 i
 111.65  37.5663  27.5087 i
 111.7  29.3149  27.5155 i
 111.75  36.1164  27.5224 i
 111.8  29.6008  27.5293 i
 111.85  28.985  27.5363 i
 111.9  28.3591  27.5434 i
 111.95  34.2395  27.5505 i
 112  29.9006  27.5576 i
 112.05  30.9617  27.5648 i
 112.1  26.5541  27.5721 i
 112.15  29.7143  27.5794 i
 112.2  29.842  27.5868 i
 112.25  32.813  27.5942 i
 112.3  27.0289  27.6017 i
 112.35  28.3483  27.6092 i
 112.4  30.1767  27.6168 i
 112.45  39.0798  27.6244 i
 112.5  38.9717  27.6321 i
 112.55  27.023  27.6399 i
 112.6  25.8348  27.6477 i
 112.65  30.5923  27.6555 i
 112.7  30.7218  27.6634 i
 112.75  39.4116  27.6713 i
 112.8  32.224  27.6793 i
 112.85  42.079  27.6874 i
 112.9  44.0844  27.6955 i
 112.95  45.1424  27.7036 i
 113  38.7907  27.7118 i
 113.05  26.9629  27.7201 i
 113.1  29.611  27.7284 i
 113.15  31.5398  27.7367 i
 113.2  30.3916  27.7451 i
 113.25  30.1883  27.7536 i
 113.3  28.5395  27.762 i
 113.35  23.5066  27.7706 i
 113.4  24.8966  27.7792 i
 113.45  39.835  27.7878 i
 113.5  27.8638  27.7965 i
 113.55  31.9796  27.8052 i
 113.6  28.8931  27.814 i
 113.65  37.1575  27.8228 i
 113.7  32.3428  27.8317 i
 113.75  39.031  27.8406 i
 113.8  49.6244  27.8496 i
 113.85  39.7065  27.8586 i
 113.9  25.7659  27.8676 i
 113.95  31.2821  27.8767 i
 114  37.3755  27.8859 i
 114.05  30.4625  27.895 i
 114.1  35.8149  27.9043 i
 114.15  27.6035  27.9135 i
 114.2  27.0921  27.9229 i
 114.25  51.9191  27.9322 i
 114.3  19.1557  27.9416 i
 114.35  31.4695  27.9511 i
 114.4  30.2418  27.9606 i
 114.45  30.9085  27.9701 i
 114.5  40.6532  27.9797 i
 114.55  33.458  27.9893 i
 114.6  36.4661  27.999 i
 114.65  22.702  28.0087 i
 114.7  27.865  28.0184 i
 114.75  39.4059  28.0282 i
 114.8  29.1443  28.038 i
 114.85  35.7204  28.0479 i
 114.9  32.2683  28.0578 i
 114.95  45.1612  28.0678 i
 115  34.3558  28.0778 i
 115.05  30.3289  28.0878 i
 115.1  33.2387  28.0979 i
 115.15  34.0538  28.108 i
 115.2  31.0644  28.1181 i
 115.25  35.7003  28.1283 i
 115.3  33.6219  28.1385 i
 115.35  33.2295  28.1488 i
 115.4  55.8248  28.1591 i
 115.45  43.6448  28.1694 i
 115.5  39.7551  28.1798 i
 115.55  37.9362  28.1902 i
 115.6  49.3184  28.2007 i
 115.65  74.4572  28.2112 i
 115.7  60.2706  28.2217 i
 115.75  79.2426  28.2323 i
 115.8  81.6428  28.2429 i
 115.85  101.877  28.2535 i
 115.9  118.829  28.2642 i
 115.95  97.503  28.2749 i
 116  100.972  28.2856 i
 116.05  89.4036  28.2964 i
 116.1  80.3185  28.3072 i
 116.15  72.231  28.318 i
 116.2  54.7685  28.3289 i
 116.25  52.2805  28.3398 i
 116.3  48.9079  28.3508 i
 116.35  41.2913  28.3618 i
 116.4  35.3882  28.3728 i
 116.45  30.2564  28.3838 i
 116.5  49.7367  28.3949 i
 116.55  37.0516  28.406 i
 116.6  30.153  28.4172 i
 116.65  32.39  28.4284 i
 116.7  26.3572  28.4396 i
 116.75  30.9438  28.4508 i
 116.8  38.6932  28.4621 i
 116.85  36.3118  28.4734 i
 116.9  33.3629  28.4847 i
 116.95  29.4616  28.4961 i
 117  19.9113  28.5075 i
 117.05  23.675  28.5189 i
 117.1  29.9324  28.5304 i
 117.15  38.3409  28.5419 i
 117.2  32.8358  28.5534 i
 117.25  36.705  28.5649 i
 117.3  21.8356  28.5765 i
 117.35  34.2093  28.5881 i
 117.4  33.3538  28.5997 i
 117.45  40.7559  28.6114 i
 117.5  25.1388  28.6231 i
 117.55  24.5866  28.6348 i
 117.6  24.0921  28.6466 i
 117.65  33.5709  28.6583 i
 117.7  34.6125  28.6701 i
 117.75  32.0916  28.682 i
 117.8  24.7376  28.6938 i
 117.85  33.2729  28.7057 i
 117.9  30.1758  28.7176 i
 117.95  38.7298  28.7295 i
 118  31.0568  28.7415 i
 118.05  31.1785  28.7535 i
 118.1  35.6008  28.7655 i
 118.15  31.0237  28.7775 i
 118.2  32.1569  28.7896 i
 118.25  27.4893  28.8016 i
 118.3  24.2805  28.8137 i
 118.35  30.2543  28.8259 i
 118.4  32.8023  28.838 i
 118.45  37.1024  28.8502 i
 118.5  21.2243  28.8624 i
 118.55  25.4839  28.8746 i
 118.6  32.3481  28.8869 i
 118.65  33.5533  28.8991 i
 118.7  24.5056  28.9114 i
 118.75  31.8234  28.9237 i
 118.8  32.7469  28.9361 i
 118.85  26.6296  28.9484 i
 118.9  24.3122  28.9608 i
 118.95  24.9474  28.9732 i
 119  32.378  28.9856 i
 119.05  28.1703  28.9981 i
 119.1  29.9354  29.0105 i
 119.15  27.3914  29.023 i
 119.2  27.1188  29.0355 i
 119.25  24.0213  29.048 i
 119.3  26.543  29.0606 i
 119.35  20.7712  29.0731 i
 119.4  37.4792  29.0857 i
 119.45  39.2151  29.0983 i
 119.5  33.2258  29.1109 i
 119.55  19.8031  29.1236 i
 119.6  32.3225  29.1362 i
 119.65  37.5695  29.1489 i
 119.7  23.5823  29.1616 i
 119.75  21.7537  29.1743 i
 119.8  27.9268  29.187 i
 119.85  26.9832  29.1997 i
 119.9  36.6845  29.2125 i
 119.95  16.8563  29.2253 i
 120  32.6819  29.238 i
 120.05  27.1985  29.2508 i
 120.1  30.8146  29.2637 i
 120.15  30.7747  29.2765 i
 120.2  34.4782  29.2893 i
 120.25  39.1303  29.3022 i
 120.3  25.6662  29.3151 i
 120.35  31.113  29.328 i
 120.4  29.3578  29.3409 i
 120.45  16.9658  29.3538 i
 120.5  23.0097  29.3667 i
 120.55  27.0928  29.3797 i
 120.6  36.8135  29.3926 i
 120.65  24.6596  29.4056 i
 120.7  24.1536  29.4186 i
 120.75  23.482  29.4316 i
 120.8  40.6412  29.4446 i
 120.85  33.1216  29.4576 i
 120.9  30.1935  29.4707 i
 120.95  31.5257  29.4837 i
 121  29.684  29.4968 i
 121.05  31.2862  29.5098 i
 121.1  22.5385  29.5229 i
 121.15  25.1658  29.536 i
 121.2  22.1158  29.5491 i
 121.25  32.0473  29.5622 i
 121.3  29.9397  29.5753 i
 121.35  29.5874  29.5885 i
 121.4  36.899  29.6016 i
 121.45  27.6722  29.6147 i
 121.5  26.6143  29.6279 i
 121.55  31.9514  29.6411 i
 121.6  31.5137  29.6542 i
 121.65  33.0762  29.6674 i
 121.7  36.5659  29.6806 i
 121.75  29.5248  29.6938 i
 121.8  40.8909  29.707 i
 121.85  31.5557  29.7202 i
 121.9  41.7054  29.7334 i
 121.95  36.2427  29.7466 i
 122  29.7131  29.7599 i
 122.05  35.9675  29.7731 i
 122.1  30.5372  29.7864 i
 122.15  31.9513  29.7996 i
 122.2  29.2117  29.8129 i
 122.25  27.2467  29.8261 i
 122.3  25.8813  29.8394 i
 122.35  32.6759  29.8526 i
 122.4  24.1485  29.8659 i
 122.45  39.88  29.8792 i
 122.5  24.8442  29.8925 i
 122.55  39.9631  29.9058 i
 122.6  28.7646  29.9191 i
 122.65  33.3626  29.9323 i
 122.7  30.708  29.9456 i
 122.75  28.9667  29.9589 i
 122.8  27.9858  29.9722 i
 122.85  25.8236  29.9855 i
 122.9  27.8139  29.9988 i
 122.95  28.7485  30.0121 i
 123  28.9709  30.0255 i
 123.05  30.1397  30.0388 i
 123.1  15.5638  30.0521 i
 123.15  33.2007  30.0654 i
 123.2  34.3958  30.0787 i
 123.25  30.459  30.092 i
 123.3  40.0016  30.1053 i
 123.35  38.877  30.1186 i
 123.4  31.8913  30.1319 i
 123.45  32.7575  30.1453 i
 123.5  31.7073  30.1586 i
 123.55  23.2944  30.1719 i
 123.6  30.7151  30.1852 i
 123.65  26.5793  30.1985 i
 123.7  31.6104  30.2118 i
 123.75  21.9736  30.2251 i
 123.8  25.2214  30.2384 i
 123.85  15.5187  30.2517 i
 123.9  27.2481  30.265 i
 123.95  32.5996  30.2783 i
 124  24.4923  30.2916 i
 124.05  33.147  30.3049 i
 124.1  32.5973  30.3181 i
 124.15  39.9085  30.3314 i
 124.2  30.2626  30.3447 i
 124.25  31.4711  30.358 i
 124.3  30.6225  30.3712 i
 124.35  27.0823  30.3845 i
 124.4  35.1107  30.3977 i
 124.45  37.6464  30.411 i
 124.5  29.8496  30.4242 i
 124.55  30.8672  30.4375 i
 124.6  26.4082  30.4507 i
 124.65  27.1267  30.4639 i
 124.7  26.4011  30.4772 i
 124.75  34.3192  30.4904 i
 124.8  30.4589  30.5036 i
 124.85  33.5672  30.5168 i
 124.9  24.4133  30.53 i
 124.95  29.2228  30.5431 i
 125  26.4875  30.5563 i
 125.05  31.8644  30.5695 i
 125.1  30.2864  30.5826 i
 125.15  30.755  30.5958 i
 125.2  43.1207  30.6089 i
 125.25  33.1864  30.6221 i
 125.3  33.3548  30.6352 i
 125.35  31.963  30.6483 i
 125.4  29.2443  30.6614 i
 125.45  33.7025  30.6745 i
 125.5  38.5183  30.6876 i
 125.55  31.6872  30.7006 i
 125.6  26.0699  30.7137 i
 125.65  32.4871  30.7267 i
 125.7  34.2031  30.7398 i
 125.75  28.3484  30.7528 i
 125.8  24.8635  30.7658 i
 125.85  34.8189  30.7788 i
 125.9  24.7222  30.7918 i
 125.95  21.521  30.8048 i
 126  31.2332  30.8177 i
 126.05  34.836  30.8307 i
 126.1  31.3905  30.8436 i
 126.15  37.1614  30.8565 i
 126.2  36.1742  30.8694 i
 126.25  25.8874  30.8823 i
 126.3  22.3675  30.8952 i
 126.35  41.9807  30.9081 i
 126.4  33.5724  30.9209 i
 126.45  33.439  30.9338 i
 126.5  24.8206  30.9466 i
 126.55  29.2314  30.9594 i
 126.6  35.2919  30.9722 i
 126.65  27.0133  30.985 i
 126.7  32.56  30.9977 i
 126.75  36.5329  31.0105 i
 126.8  19.5418  31.0232 i
 126.85  32.8662  31.0359 i
 126.9  28.4793  31.0486 i
 126.95  27.2355  31.0613 i
 127  30.5634  31.0739 i
 127.05  36.8179  31.0865 i
 127.1  27.9993  31.0992 i
 127.15  30.4948  31.1118 i
 127.2  28.8196  31.1243 i
 127.25  30.3759  31.1369 i
 127.3  20.7445  31.1495 i
 127.35  39.0494  31.162 i
 127.4  46.3063  31.1745 i
 127.45  32.8777  31.187 i
 127.5  25.7011  31.1994 i
 127.55  27.0789  31.2119 i
 127.6  39.9679  31.2243 i
 127.65  27.3803  31.2367 i
 127.7  34.5171  31.2491 i
 127.75  43.5673  31.2614 i
 127.8  39.8068  31.2738 i
 127.85  27.5447  31.2861 i
 127.9  37.2144  31.2984 i
 127.95  23.9951  31.3107 i
 128  25.7339  31.3229 i
 128.05  26.5129  31.3352 i
 128.1  34.8037  31.3474 i
 128.15  40.2043  31.3595 i
 128.2  32.0416  31.3717 i
 128.25  23.4857  31.3838 i
 128.3  29.9176  31.3959 i
 128.35  35.3098  31.408 i
 128.4  35.8883  31.4201 i
 128.45  29.5264  31.4321 i
 128.5  26.8524  31.4441 i
 128.55  35.9626  31.4561 i
 128.6  45.754  31.4681 i
 128.65  34.0805  31.48 i
 128.7  26.9381  31.4919 i
 128.75  30.0164  31.5038 i
 128.8  30.4907  31.5157 i
 128.85  24.2321  31.5275 i
 128.9  29.6064  31.5393 i
 128.95  24.519  31.5511 i
 129  26.3173  31.5628 i
 129.05  30.8144  31.5746 i
 129.1  37.9438  31.5863 i
 129.15  24.6224  31.5979 i
 129.2  37.4829  31.6096 i
 129.25  25.4971  31.6212 i
 129.3  28.1415  31.6328 i
 129.35  32.3574  31.6443 i
 129.4  41.402  31.6558 i
 129.45  32.1841  31.6673 i
 129.5  34.2156  31.6788 i
 129.55  28.7665  31.6902 i
 129.6  34.657  31.7016 i
 129.65  26.8082  31.713 i
 129.7  38.7113  31.7243 i
 129.75  29.9506  31.7357 i
 129.8  21.7854  31.7469 i
 129.85  27.0111  31.7582 i
 129.9  38.5864  31.7694 i
 129.95  30.0993  31.7806 i
 130  32.7412  31.7917 i

