
#Surface 0 of 1 surfaces

#IsoCurve 0, 1801 points
#x y z type
 40  25.2957  0 i
 40.05  37.9833  0 i
 40.1  35.5871  0 i
 40.15  37.3764  0 i
 40.2  24.3782  0 i
 40.25  41.7844  0 i
 40.3  40.7495  0 i
 40.35  53.8708  0 i
 40.4  42.2324  0 i
 40.45  37.7315  0 i
 40.5  35.7025  0 i
 40.55  39.7795  0 i
 40.6  48.5985  0 i
 40.65  34.9289  0 i
 40.7  37.3601  0 i
 40.75  37.0629  0 i
 40.8  36.795  0 i
 40.85  26.8824  0 i
 40.9  36.4758  0 i
 40.95  49.8512  0 i
 41  40.1224  0 i
 41.05  51.2621  0 i
 41.1  30.076  0 i
 41.15  48.2889  0 i
 41.2  41.0521  0 i
 41.25  44.8834  0 i
 41.3  32.733  0 i
 41.35  48.192  0 i
 41.4  55.3922  0 i
 41.45  39.9454  0 i
 41.5  40.0106  0 i
 41.55  42.8857  0 i
 41.6  41.4091  0 i
 41.65  32.8836  0 i
 41.7  37.1235  0 i
 41.75  47.0807  0 i
 41.8  30.3644  0 i
 41.85  28.2611  0 i
 41.9  34.0152  0 i
 41.95  49.9192  0 i
 42  42.9154  0 i
 42.05  48.6284  0 i
 42.1  37.0607  0 i
 42.15  30.7486  0 i
 42.2  50.2337  0 i
 42.25  31.2721  0 i
 42.3  31.0027  0 i
 42.35  26.9322  0 i
 42.4  39.9449  0 i
 42.45  48.2925  0 i
 42.5  38.872  0 i
 42.55  40.7742  0 i
 42.6  46.6312  0 i
 42.65  30.5005  0 i
 42.7  43.0374  0 i
 42.75  31.3911  0 i
 42.8  31.2382  0 i
 42.85  37.2316  0 i
 42.9  42.0958  0 i
 42.95  41.267  0 i
 43  33.7665  0 i
 43.05  38.1774  0 i
 43.1  40.3369  0 i
 43.15  42.4581  0 i
 43.2  42.5018  0 i
 43.25  34.003  0 i
 43.3  37.4905  0 i
 43.35  49.7251  0 i
 43.4  36.1402  0 i
 43.45  40.8593  0 i
 43.5  32.9778  0 i
 43.55  56.2121  0 i
 43.6  31.8406  0 i
 43.65  50.2046  0 i
 43.7  41.1164  0 i
 43.75  40.0491  0 i
 43.8  41.6839  0 i
 43.85  33.7421  0 i
 43.9  45.0002  0 i
 43.95  58.251  0 i
 44  71.0404  0 i
 44.05  66.163  0 i
 44.1  85.9424  0 i
 44.15  96.8245  0 i
 44.2  151.518  0 i
 44.25  394.813  0 i
 44.3  1254.88  0 i
 44.35  2097.42  0 i
 44.4  2351.34  0 i
 44.45  1429.92  0 i
 44.5  487.381  0 i
 44.55  205.611  0 i
 44.6  97.489  0 i
 44.65  65.1813  0 i
 44.7  69.7432  0 i
 44.75  52.662  0 i
 44.8  33.0692  0 i
 44.85  49.7394  0 i
 44.9  41.9836  0 i
 44.95  50.8668  0 i
 45  41.2694  0 i
 45.05  39.332  0 i
 45.1  53.9819  0 i
 45.15  26.8388  0 i
 45.2  44.8243  0 i
 45.25  33.4605  0 i
 45.3  34.6026  0 i
 45.35  37.9299  0 i
 45.4  44.1911  0 i
 45.45  32.7102  0 i
 45.5  36.4211  0 i
 45.55  29.4217  0 i
 45.6  33.5469  0 i
 45.65  30.8203  0 i
 45.7  42.1216  0 i
 45.75  39.503  0 i
 45.8  51.1851  0 i
 45.85  34.7235  0 i
 45.9  30.5375  0 i
 45.95  48.3024  0 i
 46  31.7939  0 i
 46.05  28.0065  0 i
 46.1  29.2908  0 i
 46.15  30.6729  0 i
 46.2  37.1713  0 i
 46.25  39.4329  0 i
 46.3  37.3077  0 i
 46.35  45.4028  0 i
 46.4  32.7209  0 i
 46.45  35.7602  0 i
 46.5  35.6727  0 i
 46.55  48.0373  0 i
 46.6  30.9848  0 i
 46.65  36.985  0 i
 46.7  25.6139  0 i
 46.75  21.4292  0 i
 46.8  37.9971  0 i
 46.85  35.2434  0 i
 46.9  36.5146  0 i
 46.95  28.242  0 i
 47  21.9178  0 i
 47.05  38.3327  0 i
 47.1  34.9492  0 i
 47.15  39.2454  0 i
 47.2  41.171  0 i
 47.25  32.5525  0 i
 47.3  39.7725  0 i
 47.35  29.5121  0 i
 47.4  33.0508  0 i
 47.45  32.7842  0 i
 47.5  33.6075  0 i
 47.55  38.0381  0 i
 47.6  27.0241  0 i
 47.65  37.6986  0 i
 47.7  32.7871  0 i
 47.75  23.378  0 i
 47.8  43.3699  0 i
 47.85  35.4363  0 i
 47.9  39.6134  0 i
 47.95  38.1257  0 i
 48  27.8948  0 i
 48.05  33.4101  0 i
 48.1  33.8571  0 i
 48.15  36.6781  0 i
 48.2  31.5103  0 i
 48.25  36.1506  0 i
 48.3  39.034  0 i
 48.35  29.2118  0 i
 48.4  29.825  0 i
 48.45  39.9216  0 i
 48.5  31.6189  0 i
 48.55  32.616  0 i
 48.6  36.6645  0 i
 48.65  38.6251  0 i
 48.7  38.8404  0 i
 48.75  28.7023  0 i
 48.8  24.4141  0 i
 48.85  27.0908  0 i
 48.9  39.0582  0 i
 48.95  41.0709  0 i
 49  42.2778  0 i
 49.05  37.3791  0 i
 49.1  29.8777  0 i
 49.15  27.5661  0 i
 49.2  41.923  0 i
 49.25  39.4275  0 i
 49.3  32.8727  0 i
 49.35  30.6095  0 i
 49.4  31.4959  0 i
 49.45  24.2811  0 i
 49.5  38.2006  0 i
 49.55  37.339  0 i
 49.6  37.5117  0 i
 49.65  27.258  0 i
 49.7  38.117  0 i
 49.75  40.0301  0 i
 49.8  34.6009  0 i
 49.85  30.7744  0 i
 49.9  28.1844  0 i
 49.95  41.0739  0 i
 50  31.0408  0 i
 50.05  30.3584  0 i
 50.1  30.1229  0 i
 50.15  30.5995  0 i
 50.2  19.3862  0 i
 50.25  34.9985  0 i
 50.3  35.8106  0 i
 50.35  37.7353  0 i
 50.4  34.107  0 i
 50.45  42.9134  0 i
 50.5  23.3577  0 i
 50.55  30.3017  0 i
 50.6  27.5116  0 i
 50.65  33.3188  0 i
 50.7  33.153  0 i
 50.75  31.9029  0 i
 50.8  33.4812  0 i
 50.85  31.2137  0 i
 50.9  43.458  0 i
 50.95  36.2812  0 i
 51  33.2304  0 i
 51.05  26.438  0 i
 51.1  29.2601  0 i
 51.15  33.289  0 i
 51.2  37.0046  0 i
 51.25  30.5132  0 i
 51.3  27.743  0 i
 51.35  35.6787  0 i
 51.4  35.4384  0 i
 51.45  31.7622  0 i
 51.5  40.1175  0 i
 51.55  18.4124  0 i
 51.6  37.0564  0 i
 51.65  30.269  0 i
 51.7  30.8702  0 i
 51.75  40.4713  0 i
 51.8  38.7465  0 i
 51.85  47.6878  0 i
 51.9  46.1499  0 i
 51.95  36.6497  0 i
 52  25.5852  0 i
 52.05  25.7452  0 i
 52.1  40.548  0 i
 52.15  39.4982  0 i
 52.2  34.8044  0 i
 52.25  32.2418  0 i
 52.3  33.6291  0 i
 52.35  23.3455  0 i
 52.4  37.2457  0 i
 52.45  30.0288  0 i
 52.5  36.588  0 i
 52.55  38.2141  0 i
 52.6  33.6023  0 i
 52.65  30.183  0 i
 52.7  38.8026  0 i
 52.75  42.8912  0 i
 52.8  35.0249  0 i
 52.85  28.0011  0 i
 52.9  32.744  0 i
 52.95  27.9863  0 i
 53  35.5536  0 i
 53.05  31.2709  0 i
 53.1  35.0923  0 i
 53.15  38.6243  0 i
 53.2  27.5909  0 i
 53.25  43.8489  0 i
 53.3  30.8846  0 i
 53.35  23.6557  0 i
 53.4  37.7533  0 i
 53.45  35.6583  0 i
 53.5  31.5859  0 i
 53.55  42.6858  0 i
 53.6  40.3908  0 i
 53.65  30.2502  0 i
 53.7  32.9216  0 i
 53.75  30.0937  0 i
 53.8  38.7999  0 i
 53.85  31.9248  0 i
 53.9  34.0064  0 i
 53.95  46.6138  0 i
 54  32.7247  0 i
 54.05  31.9035  0 i
 54.1  20.6441  0 i
 54.15  40.304  0 i
 54.2  29.554  0 i
 54.25  29.887  0 i
 54.3  28.1495  0 i
 54.35  28.9472  0 i
 54.4  32.5731  0 i
 54.45  25.8593  0 i
 54.5  36.1781  0 i
 54.55  28.0082  0 i
 54.6  35.099  0 i
 54.65  26.3864  0 i
 54.7  37.2509  0 i
 54.75  27.2133  0 i
 54.8  32.1582  0 i
 54.85  41.1576  0 i
 54.9  28.2886  0 i
 54.95  28.0051  0 i
 55  36.6458  0 i
 55.05  37.9868  0 i
 55.1  31.0377  0 i
 55.15  30.3573  0 i
 55.2  23.0939  0 i
 55.25  29.7657  0 i
 55.3  45.0679  0 i
 55.35  44.9336  0 i
 55.4  29.6534  0 i
 55.45  42.0614  0 i
 55.5  31.3447  0 i
 55.55  32.0962  0 i
 55.6  39.6761  0 i
 55.65  33.3658  0 i
 55.7  31.1718  0 i
 55.75  33.41  0 i
 55.8  25.8629  0 i
 55.85  26.167  0 i
 55.9  26.0003  0 i
 55.95  36.0636  0 i
 56  39.5969  0 i
 56.05  33.9208  0 i
 56.1  31.5561  0 i
 56.15  33.3144  0 i
 56.2  27.4786  0 i
 56.25  32.9859  0 i
 56.3  35.4079  0 i
 56.35  35.9707  0 i
 56.4  26.4024  0 i
 56.45  29.4037  0 i
 56.5  33.8859  0 i
 56.55  27.0052  0 i
 56.6  28.0881  0 i
 56.65  25.6225  0 i
 56.7  28.8671  0 i
 56.75  24.3186  0 i
 56.8  30.6301  0 i
 56.85  36.6446  0 i
 56.9  28.5768  0 i
 56.95  36.6089  0 i
 57  24.9373  0 i
 57.05  32.6692  0 i
 57.1  29.7761  0 i
 57.15  39.4265  0 i
 57.2  39.801  0 i
 57.25  31.5713  0 i
 57.3  25.2403  0 i
 57.35  33.8911  0 i
 57.4  33.0955  0 i
 57.45  31.7777  0 i
 57.5  32.0968  0 i
 57.55  29.8088  0 i
 57.6  28.0768  0 i
 57.65  20.8006  0 i
 57.7  30.5374  0 i
 57.75  28.331  0 i
 57.8  31.2802  0 i
 57.85  29.222  0 i
 57.9  31.7454  0 i
 57.95  37.8673  0 i
 58  38.4353  0 i
 58.05  36.9994  0 i
 58.1  28.542  0 i
 58.15  29.5456  0 i
 58.2  26.7874  0 i
 58.25  28.6004  0 i
 58.3  34.1137  0 i
 58.35  29.3538  0 i
 58.4  30.6732  0 i
 58.45  34.4773  0 i
 58.5  41.2735  0 i
 58.55  37.515  0 i
 58.6  29.5929  0 i
 58.65  32.0379  0 i
 58.7  30.8602  0 i
 58.75  26.6054  0 i
 58.8  37.8946  0 i
 58.85  41.0238  0 i
 58.9  37.8074  0 i
 58.95  32.6229  0 i
 59  28.953  0 i
 59.05  36.533  0 i
 59.1  35.0634  0 i
 59.15  22.5247  0 i
 59.2  26.4412  0 i
 59.25  31.3608  0 i
 59.3  32.2877  0 i
 59.35  37.2207  0 i
 59.4  30.0044  0 i
 59.45  32.8724  0 i
 59.5  26.5095  0 i
 59.55  27.1033  0 i
 59.6  29.7646  0 i
 59.65  25.9979  0 i
 59.7  31.6936  0 i
 59.75  30.5299  0 i
 59.8  29.8394  0 i
 59.85  34.9129  0 i
 59.9  35.2179  0 i
 59.95  26.6443  0 i
 60  25.102  0 i
 60.05  31.5063  0 i
 60.1  27.3424  0 i
 60.15  36.693  0 i
 60.2  28.2459  0 i
 60.25  38.2806  0 i
 60.3  32.6884  0 i
 60.35  31.764  0 i
 60.4  29.2293  0 i
 60.45  27.4055  0 i
 60.5  27.3633  0 i
 60.55  25.2276  0 i
 60.6  25.7199  0 i
 60.65  31.6502  0 i
 60.7  23.0907  0 i
 60.75  32.0236  0 i
 60.8  32.5693  0 i
 60.85  38.4637  0 i
 60.9  38.5279  0 i
 60.95  26.9084  0 i
 61  33.7994  0 i
 61.05  31.1861  0 i
 61.1  30.665  0 i
 61.15  35.894  0 i
 61.2  27.3674  0 i
 61.25  31.0319  0 i
 61.3  30.0985  0 i
 61.35  33.3825  0 i
 61.4  28.6355  0 i
 61.45  31.9227  0 i
 61.5  35.2559  0 i
 61.55  27.4513  0 i
 61.6  38.8747  0 i
 61.65  26.5758  0 i
 61.7  45.2813  0 i
 61.75  36.4966  0 i
 61.8  34.3542  0 i
 61.85  29.1312  0 i
 61.9  36.4196  0 i
 61.95  34.7096  0 i
 62  33.2204  0 i
 62.05  27.4957  0 i
 62.1  30.0006  0 i
 62.15  33.0913  0 i
 62.2  29.8318  0 i
 62.25  34.0003  0 i
 62.3  26.6878  0 i
 62.35  28.6934  0 i
 62.4  31.534  0 i
 62.45  31.0214  0 i
 62.5  33.8128  0 i
 62.55  24.4547  0 i
 62.6  34.5626  0 i
 62.65  27.8017  0 i
 62.7  34.0073  0 i
 62.75  40.0256  0 i
 62.8  48.3044  0 i
 62.85  33.5546  0 i
 62.9  35.5846  0 i
 62.95  28.8211  0 i
 63  33.0406  0 i
 63.05  34.425  0 i
 63.1  34.2123  0 i
 63.15  30.9036  0 i
 63.2  24.5412  0 i
 63.25  37.864  0 i
 63.3  28.3638  0 i
 63.35  31.1109  0 i
 63.4  35.2697  0 i
 63.45  29.2208  0 i
 63.5  38.4274  0 i
 63.55  36.4233  0 i
 63.6  37.5029  0 i
 63.65  23.1356  0 i
 63.7  24.9391  0 i
 63.75  24.2739  0 i
 63.8  26.8803  0 i
 63.85  24.7827  0 i
 63.9  30.0638  0 i
 63.95  26.7157  0 i
 64  33.0798  0 i
 64.05  38.829  0 i
 64.1  29.9635  0 i
 64.15  44.1214  0 i
 64.2  29.2812  0 i
 64.25  35.7478  0 i
 64.3  26.8294  0 i
 64.35  34.362  0 i
 64.4  39.4308  0 i
 64.45  40.8924  0 i
 64.5  48.1777  0 i
 64.55  70.3631  0 i
 64.6  113.605  0 i
 64.65  139.529  0 i
 64.7  161.33  0 i
 64.75  151.339  0 i
 64.8  94.7833  0 i
 64.85  69.9994  0 i
 64.9  62.4341  0 i
 64.95  42.4541  0 i
 65  34.7454  0 i
 65.05  31.6886  0 i
 65.1  26.2669  0 i
 65.15  31.5482  0 i
 65.2  33.5363  0 i
 65.25  34.5155  0 i
 65.3  40.5033  0 i
 65.35  22.2407  0 i
 65.4  31.6904  0 i
 65.45  30.7366  0 i
 65.5  38.2176  0 i
 65.55  38.7843  0 i
 65.6  30.0692  0 i
 65.65  25.3518  0 i
 65.7  37.2314  0 i
 65.75  25.7177  0 i
 65.8  32.075  0 i
 65.85  24.181  0 i
 65.9  26.2084  0 i
 65.95  26.6818  0 i
 66  33.1072  0 i
 66.05  42.2723  0 i
 66.1  32.2402  0 i
 66.15  35.9658  0 i
 66.2  34.5775  0 i
 66.25  23.359  0 i
 66.3  31.3724  0 i
 66.35  24.0164  0 i
 66.4  40.276  0 i
 66.45  24.8573  0 i
 66.5  27.4878  0 i
 66.55  39.1381  0 i
 66.6  36.7542  0 i
 66.65  31.1656  0 i
 66.7  39.3646  0 i
 66.75  30.4555  0 i
 66.8  34.9501  0 i
 66.85  28.7101  0 i
 66.9  30.6822  0 i
 66.95  32.4496  0 i
 67  26.2366  0 i
 67.05  19.2065  0 i
 67.1  21.9825  0 i
 67.15  26.9298  0 i
 67.2  37.5367  0 i
 67.25  27.0316  0 i
 67.3  22.0275  0 i
 67.35  21.5099  0 i
 67.4  22.5971  0 i
 67.45  29.0995  0 i
 67.5  36.7494  0 i
 67.55  18.1536  0 i
 67.6  28.9923  0 i
 67.65  39.5162  0 i
 67.7  37.2883  0 i
 67.75  27.6048  0 i
 67.8  22.6153  0 i
 67.85  23.2134  0 i
 67.9  35.4748  0 i
 67.95  26.2768  0 i
 68  36.0828  0 i
 68.05  33.5451  0 i
 68.1  26.8946  0 i
 68.15  34.3648  0 i
 68.2  36.0789  0 i
 68.25  29.8914  0 i
 68.3  27.9709  0 i
 68.35  20.2402  0 i
 68.4  27.1503  0 i
 68.45  39.0144  0 i
 68.5  25.9197  0 i
 68.55  36.2693  0 i
 68.6  31.2591  0 i
 68.65  34.2891  0 i
 68.7  26.4415  0 i
 68.75  27.671  0 i
 68.8  38.3671  0 i
 68.85  30.4194  0 i
 68.9  45.6141  0 i
 68.95  40.3798  0 i
 69  40.0975  0 i
 69.05  28.2996  0 i
 69.1  38.5994  0 i
 69.15  27.7719  0 i
 69.2  23.9816  0 i
 69.25  24.4863  0 i
 69.3  17.9349  0 i
 69.35  45.7117  0 i
 69.4  36.4513  0 i
 69.45  28.8184  0 i
 69.5  30.5021  0 i
 69.55  29.7696  0 i
 69.6  36.2832  0 i
 69.65  28.5881  0 i
 69.7  29.2274  0 i
 69.75  23.5608  0 i
 69.8  38.2071  0 i
 69.85  37.9633  0 i
 69.9  22.0246  0 i
 69.95  19.7338  0 i
 70  34.7337  0 i
 70.05  30.5765  0 i
 70.1  15.3211  0 i
 70.15  19.4055  0 i
 70.2  29.6218  0 i
 70.25  31.4909  0 i
 70.3  24.0715  0 i
 70.35  29.6459  0 i
 70.4  29.8181  0 i
 70.45  25.0652  0 i
 70.5  37.9841  0 i
 70.55  16.8672  0 i
 70.6  25.9247  0 i
 70.65  33.6895  0 i
 70.7  28.257  0 i
 70.75  19.2985  0 i
 70.8  40.287  0 i
 70.85  33.9529  0 i
 70.9  22.6965  0 i
 70.95  20.241  0 i
 71  20.3784  0 i
 71.05  28.9055  0 i
 71.1  20.654  0 i
 71.15  24.122  0 i
 71.2  35.8692  0 i
 71.25  36.0121  0 i
 71.3  29.5414  0 i
 71.35  29.6389  0 i
 71.4  36.7863  0 i
 71.45  24.4934  0 i
 71.5  31.7297  0 i
 71.55  25.1432  0 i
 71.6  31.1051  0 i
 71.65  25.0646  0 i
 71.7  34.4043  0 i
 71.75  25.3844  0 i
 71.8  25.2346  0 i
 71.85  35.6012  0 i
 71.9  33.7342  0 i
 71.95  28.6076  0 i
 72  29.883  0 i
 72.05  25.8899  0 i
 72.1  37.7298  0 i
 72.15  30.6327  0 i
 72.2  32.9949  0 i
 72.25  24.1412  0 i
 72.3  33.3755  0 i
 72.35  30.7448  0 i
 72.4  32.179  0 i
 72.45  30.8285  0 i
 72.5  31.998  0 i
 72.55  37.0789  0 i
 72.6  33.5224  0 i
 72.65  34.8037  0 i
 72.7  33.2228  0 i
 72.75  40.2662  0 i
 72.8  37.0237  0 i
 72.85  28.406  0 i
 72.9  33.6016  0 i
 72.95  31.5439  0 i
 73  39.1977  0 i
 73.05  30.6644  0 i
 73.1  33.4607  0 i
 73.15  40.2536  0 i
 73.2  24.7184  0 i
 73.25  38.6831  0 i
 73.3  31.1091  0 i
 73.35  22.5703  0 i
 73.4  35.214  0 i
 73.45  22.7905  0 i
 73.5  23.5375  0 i
 73.55  26.6968  0 i
 73.6  32.4258  0 i
 73.65  36.4803  0 i
 73.7  31.8972  0 i
 73.75  29.6914  0 i
 73.8  36.1807  0 i
 73.85  32.627  0 i
 73.9  25.2997  0 i
 73.95  29.3437  0 i
 74  39.8823  0 i
 74.05  29.3279  0 i
 74.1  32.2316  0 i
 74.15  25.7102  0 i
 74.2  33.2404  0 i
 74.25  37.5154  0 i
 74.3  27.7176  0 i
 74.35  27.0091  0 i
 74.4  24.9996  0 i
 74.45  35.1844  0 i
 74.5  31.2984  0 i
 74.55  35.1982  0 i
 74.6  35.0033  0 i
 74.65  31.3111  0 i
 74.7  31.1926  0 i
 74.75  28.335  0 i
 74.8  23.9296  0 i
 74.85  28.6923  0 i
 74.9  29.9745  0 i
 74.95  26.4893  0 i
 75  32.5044  0 i
 75.05  25.0707  0 i
 75.1  40.791  0 i
 75.15  35.9457  0 i
 75.2  35.074  0 i
 75.25  30.3972  0 i
 75.3  39.7033  0 i
 75.35  34.3014  0 i
 75.4  28.1091  0 i
 75.45  32.6007  0 i
 75.5  28.9081  0 i
 75.55  37.2939  0 i
 75.6  27.2252  0 i
 75.65  42.7373  0 i
 75.7  29.9694  0 i
 75.75  37.3915  0 i
 75.8  21.8295  0 i
 75.85  27.7535  0 i
 75.9  33.2615  0 i
 75.95  33.4144  0 i
 76  37.4092  0 i
 76.05  25.7572  0 i
 76.1  26.85  0 i
 76.15  32.9605  0 i
 76.2  29.2696  0 i
 76.25  24.2078  0 i
 76.3  28.4354  0 i
 76.35  30.4031  0 i
 76.4  27.9366  0 i
 76.45  25.5976  0 i
 76.5  37.3278  0 i
 76.55  23.6003  0 i
 76.6  27.0364  0 i
 76.65  34.4156  0 i
 76.7  25.4785  0 i
 76.75  32.9521  0 i
 76.8  35.0502  0 i
 76.85  28.4245  0 i
 76.9  21.3986  0 i
 76.95  28.7834  0 i
 77  26.6533  0 i
 77.05  32.4866  0 i
 77.1  36.0506  0 i
 77.15  30.0265  0 i
 77.2  30.7038  0 i
 77.25  29.7864  0 i
 77.3  30.7637  0 i
 77.35  33.1464  0 i
 77.4  32.9878  0 i
 77.45  34.2283  0 i
 77.5  29.8943  0 i
 77.55  27.3592  0 i
 77.6  29.5717  0 i
 77.65  30.0762  0 i
 77.7  27.5957  0 i
 77.75  30.1792  0 i
 77.8  27.5884  0 i
 77.85  31.9176  0 i
 77.9  36.9996  0 i
 77.95  34.5551  0 i
 78  30.5467  0 i
 78.05  23.1547  0 i
 78.1  34.7394  0 i
 78.15  40.5054  0 i
 78.2  33.1428  0 i
 78.25  28.9936  0 i
 78.3  28.8324  0 i
 78.35  29.002  0 i
 78.4  30.9528  0 i
 78.45  20.5326  0 i
 78.5  31.2367  0 i
 78.55  23.8954  0 i
 78.6  36.5032  0 i
 78.65  33.3669  0 i
 78.7  21.9172  0 i
 78.75  36.2871  0 i
 78.8  31.4165  0 i
 78.85  22.073  0 i
 78.9  35.4551  0 i
 78.95  25.7958  0 i
 79  27.5131  0 i
 79.05  28.0682  0 i
 79.1  31.5029  0 i
 79.15  39.879  0 i
 79.2  27.4991  0 i
 79.25  33.928  0 i
 79.3  29.535  0 i
 79.35  23.2889  0 i
 79.4  18.6752  0 i
 79.45  26.0893  0 i
 79.5  37.2065  0 i
 79.55  41.9095  0 i
 79.6  30.2527  0 i
 79.65  40.3468  0 i
 79.7  22.6687  0 i
 79.75  34.5964  0 i
 79.8  17.2611  0 i
 79.85  27.7021  0 i
 79.9  30.895  0 i
 79.95  34.2979  0 i
 80  28.0594  0 i
 80.05  21.9576  0 i
 80.1  37.0509  0 i
 80.15  38.8428  0 i
 80.2  32.4435  0 i
 80.25  31.9517  0 i
 80.3  27.8259  0 i
 80.35  28.3573  0 i
 80.4  31.6527  0 i
 80.45  28.3673  0 i
 80.5  36.7464  0 i
 80.55  43.7772  0 i
 80.6  31.3962  0 i
 80.65  28.7506  0 i
 80.7  29.2579  0 i
 80.75  22.5721  0 i
 80.8  32.5615  0 i
 80.85  31.469  0 i
 80.9  29.2708  0 i
 80.95  27.6782  0 i
 81  24.9869  0 i
 81.05  27.0499  0 i
 81.1  35.3501  0 i
 81.15  24.3674  0 i
 81.2  37.3007  0 i
 81.25  32.0097  0 i
 81.3  25.9783  0 i
 81.35  37.2593  0 i
 81.4  17.0525  0 i
 81.45  26.9117  0 i
 81.5  36.4772  0 i
 81.55  32.7384  0 i
 81.6  40.2174  0 i
 81.65  35.1423  0 i
 81.7  48.6767  0 i
 81.75  71.0365  0 i
 81.8  57.6699  0 i
 81.85  124.041  0 i
 81.9  211.572  0 i
 81.95  274.324  0 i
 82  272.444  0 i
 82.05  201.675  0 i
 82.1  128.8  0 i
 82.15  87.1861  0 i
 82.2  69.5812  0 i
 82.25  50.0199  0 i
 82.3  45.6873  0 i
 82.35  38.0479  0 i
 82.4  37.9385  0 i
 82.45  26.8698  0 i
 82.5  26.4854  0 i
 82.55  33.2866  0 i
 82.6  36.119  0 i
 82.65  32.6348  0 i
 82.7  42.3803  0 i
 82.75  32.9185  0 i
 82.8  28.639  0 i
 82.85  27.8473  0 i
 82.9  27.1883  0 i
 82.95  35.2226  0 i
 83  30.5293  0 i
 83.05  29.5365  0 i
 83.1  28.1584  0 i
 83.15  39.1423  0 i
 83.2  37.0334  0 i
 83.25  23.7828  0 i
 83.3  28.7334  0 i
 83.35  36.3477  0 i
 83.4  34.6283  0 i
 83.45  25.3683  0 i
 83.5  38.0367  0 i
 83.55  27.1691  0 i
 83.6  38.2445  0 i
 83.65  34.3673  0 i
 83.7  33.1204  0 i
 83.75  32.0348  0 i
 83.8  25.6127  0 i
 83.85  29.8267  0 i
 83.9  29.6936  0 i
 83.95  32.6538  0 i
 84  26.8454  0 i
 84.05  27.1351  0 i
 84.1  36.2391  0 i
 84.15  33.2477  0 i
 84.2  22.3906  0 i
 84.25  33.4992  0 i
 84.3  35.1572  0 i
 84.35  35.7614  0 i
 84.4  27.707  0 i
 84.45  30.4716  0 i
 84.5  27.0307  0 i
 84.55  31.1132  0 i
 84.6  28.8934  0 i
 84.65  31.5523  0 i
 84.7  26.1715  0 i
 84.75  36.9001  0 i
 84.8  25.2257  0 i
 84.85  22.6584  0 i
 84.9  26.8159  0 i
 84.95  27.6791  0 i
 85  36.2017  0 i
 85.05  20.9369  0 i
 85.1  29.8284  0 i
 85.15  32.6056  0 i
 85.2  35.19  0 i
 85.25  32.9854  0 i
 85.3  36.3112  0 i
 85.35  31.3867  0 i
 85.4  35.188  0 i
 85.45  17.416  0 i
 85.5  28.8435  0 i
 85.55  27.8013  0 i
 85.6  36.2691  0 i
 85.65  33.6553  0 i
 85.7  35.1658  0 i
 85.75  25.9058  0 i
 85.8  36.2622  0 i
 85.85  36.4176  0 i
 85.9  36.0655  0 i
 85.95  38.8131  0 i
 86  36.1462  0 i
 86.05  23.3639  0 i
 86.1  29.7184  0 i
 86.15  34.925  0 i
 86.2  26.2778  0 i
 86.25  28.5102  0 i
 86.3  31.7226  0 i
 86.35  28.201  0 i
 86.4  30.9146  0 i
 86.45  27.7381  0 i
 86.5  24.6614  0 i
 86.55  33.913  0 i
 86.6  35.0733  0 i
 86.65  32.9589  0 i
 86.7  35.9638  0 i
 86.75  24.6098  0 i
 86.8  33.6419  0 i
 86.85  21.5219  0 i
 86.9  33.3274  0 i
 86.95  32.9869  0 i
 87  30.223  0 i
 87.05  28.6583  0 i
 87.1  30.9052  0 i
 87.15  36.0641  0 i
 87.2  31.0265  0 i
 87.25  24.1314  0 i
 87.3  31.5663  0 i
 87.35  34.0196  0 i
 87.4  35.2206  0 i
 87.45  25.0671  0 i
 87.5  38.6107  0 i
 87.55  31.8675  0 i
 87.6  32.8394  0 i
 87.65  27.7574  0 i
 87.7  34.268  0 i
 87.75  28.886  0 i
 87.8  28.7749  0 i
 87.85  24.1792  0 i
 87.9  19.9265  0 i
 87.95  30.6824  0 i
 88  39.5082  0 i
 88.05  31.8784  0 i
 88.1  30.4029  0 i
 88.15  29.7545  0 i
 88.2  32.7624  0 i
 88.25  31.7384  0 i
 88.3  26.2335  0 i
 88.35  24.0612  0 i
 88.4  24.5312  0 i
 88.45  27.871  0 i
 88.5  22.3094  0 i
 88.55  26.6266  0 i
 88.6  29.3341  0 i
 88.65  31.3785  0 i
 88.7  34.9008  0 i
 88.75  25.9556  0 i
 88.8  30.6071  0 i
 88.85  30.4442  0 i
 88.9  27.0373  0 i
 88.95  45.6095  0 i
 89  29.9661  0 i
 89.05  35.5587  0 i
 89.1  25.166  0 i
 89.15  34.3827  0 i
 89.2  36.1387  0 i
 89.25  24.5297  0 i
 89.3  25.3659  0 i
 89.35  22.0657  0 i
 89.4  30.0834  0 i
 89.45  34.1929  0 i
 89.5  29.9514  0 i
 89.55  36.6841  0 i
 89.6  23.7142  0 i
 89.65  39.1769  0 i
 89.7  27.2923  0 i
 89.75  37.9169  0 i
 89.8  33.836  0 i
 89.85  36.3688  0 i
 89.9  40.9608  0 i
 89.95  21.7311  0 i
 90  24.7522  0 i
 90.05  32.858  0 i
 90.1  35.9327  0 i
 90.15  33.0191  0 i
 90.2  26.7044  0 i
 90.25  21.5287  0 i
 90.3  38.0374  0 i
 90.35  29.1018  0 i
 90.4  28.8679  0 i
 90.45  44.2432  0 i
 90.5  30.1378  0 i
 90.55  21.2376  0 i
 90.6  27.4313  0 i
 90.65  29.9583  0 i
 90.7  34.2642  0 i
 90.75  32.596  0 i
 90.8  33.5168  0 i
 90.85  34.4845  0 i
 90.9  28.3078  0 i
 90.95  27.4997  0 i
 91  32.8308  0 i
 91.05  27.7723  0 i
 91.1  29.8054  0 i
 91.15  36.8697  0 i
 91.2  24.1189  0 i
 91.25  28.3184  0 i
 91.3  27.4462  0 i
 91.35  26.2132  0 i
 91.4  37.2214  0 i
 91.45  32.0165  0 i
 91.5  30.529  0 i
 91.55  19.0869  0 i
 91.6  42.3971  0 i
 91.65  34.8698  0 i
 91.7  35.492  0 i
 91.75  33.3149  0 i
 91.8  34.056  0 i
 91.85  36.7564  0 i
 91.9  27.0021  0 i
 91.95  27.0124  0 i
 92  29.7854  0 i
 92.05  30.4804  0 i
 92.1  36.1095  0 i
 92.15  29.0584  0 i
 92.2  31.5899  0 i
 92.25  33.9493  0 i
 92.3  34.6499  0 i
 92.35  40.795  0 i
 92.4  30.4167  0 i
 92.45  26.1425  0 i
 92.5  33.2576  0 i
 92.55  30.5224  0 i
 92.6  27.8599  0 i
 92.65  25.4455  0 i
 92.7  27.2147  0 i
 92.75  23.3517  0 i
 92.8  29.0857  0 i
 92.85  28.6039  0 i
 92.9  32.2089  0 i
 92.95  36.3357  0 i
 93  24.6372  0 i
 93.05  25.7423  0 i
 93.1  39.5645  0 i
 93.15  24.3292  0 i
 93.2  28.9285  0 i
 93.25  31.9305  0 i
 93.3  31.277  0 i
 93.35  28.5891  0 i
 93.4  23.3882  0 i
 93.45  31.1496  0 i
 93.5  40.6952  0 i
 93.55  30.9215  0 i
 93.6  26.7552  0 i
 93.65  28.3397  0 i
 93.7  39.4571  0 i
 93.75  37.0819  0 i
 93.8  31.9632  0 i
 93.85  40.4791  0 i
 93.9  25.6272  0 i
 93.95  26.0155  0 i
 94  25.5622  0 i
 94.05  40.6123  0 i
 94.1  32.0774  0 i
 94.15  36.1216  0 i
 94.2  27.0311  0 i
 94.25  31.0834  0 i
 94.3  29.9148  0 i
 94.35  46.2743  0 i
 94.4  30.5481  0 i
 94.45  28.9564  0 i
 94.5  34.0978  0 i
 94.55  36.041  0 i
 94.6  28.5318  0 i
 94.65  29.5807  0 i
 94.7  36.0644  0 i
 94.75  27.2646  0 i
 94.8  36.7429  0 i
 94.85  23.8122  0 i
 94.9  27.2233  0 i
 94.95  30.8032  0 i
 95  25.7377  0 i
 95.05  34.2412  0 i
 95.1  34.0619  0 i
 95.15  25.2879  0 i
 95.2  29.7423  0 i
 95.25  26.5673  0 i
 95.3  31.1127  0 i
 95.35  26.504  0 i
 95.4  23.9304  0 i
 95.45  28.7203  0 i
 95.5  24.7123  0 i
 95.55  33.2723  0 i
 95.6  29.3525  0 i
 95.65  29.7068  0 i
 95.7  26.141  0 i
 95.75  28.1509  0 i
 95.8  29.8115  0 i
 95.85  28.7251  0 i
 95.9  35.0652  0 i
 95.95  31.7753  0 i
 96  31.0175  0 i
 96.05  31.1967  0 i
 96.1  32.2577  0 i
 96.15  29.1024  0 i
 96.2  32.9207  0 i
 96.25  36.2014  0 i
 96.3  28.2385  0 i
 96.35  27.7974  0 i
 96.4  30.961  0 i
 96.45  46.9273  0 i
 96.5  31.7865  0 i
 96.55  21.5119  0 i
 96.6  27.7209  0 i
 96.65  22.8959  0 i
 96.7  27.9347  0 i
 96.75  30.5292  0 i
 96.8  26.338  0 i
 96.85  36.8954  0 i
 96.9  32.4071  0 i
 96.95  29.8767  0 i
 97  19.8543  0 i
 97.05  26.8133  0 i
 97.1  30.404  0 i
 97.15  27.0206  0 i
 97.2  29.4362  0 i
 97.25  32.4515  0 i
 97.3  38.7845  0 i
 97.35  36.9999  0 i
 97.4  32.9192  0 i
 97.45  42.5007  0 i
 97.5  23.1758  0 i
 97.55  26.385  0 i
 97.6  19.5023  0 i
 97.65  29.0615  0 i
 97.7  34.6025  0 i
 97.75  26.028  0 i
 97.8  36.2463  0 i
 97.85  35.3435  0 i
 97.9  28.964  0 i
 97.95  29.1877  0 i
 98  24.2194  0 i
 98.05  36.6981  0 i
 98.1  40.8221  0 i
 98.15  39.9159  0 i
 98.2  35.8879  0 i
 98.25  51.0372  0 i
 98.3  36.8575  0 i
 98.35  54.52  0 i
 98.4  93.2919  0 i
 98.45  118.632  0 i
 98.5  150.804  0 i
 98.55  175.772  0 i
 98.6  129.706  0 i
 98.65  96.1533  0 i
 98.7  79.1705  0 i
 98.75  58.7037  0 i
 98.8  45.6273  0 i
 98.85  43.3937  0 i
 98.9  39.3144  0 i
 98.95  39.9411  0 i
 99  36.9524  0 i
 99.05  44.3207  0 i
 99.1  27.9664  0 i
 99.15  27.7141  0 i
 99.2  25.0977  0 i
 99.25  32.3797  0 i
 99.3  36.36  0 i
 99.35  29.0658  0 i
 99.4  34.2204  0 i
 99.45  19.5832  0 i
 99.5  29.8014  0 i
 99.55  32.7013  0 i
 99.6  25.4916  0 i
 99.65  34.8062  0 i
 99.7  43.2006  0 i
 99.75  25.2617  0 i
 99.8  34.6489  0 i
 99.85  33.9305  0 i
 99.9  30.605  0 i
 99.95  25.0017  0 i
 100  31.1446  0 i
 100.05  29.9632  0 i
 100.1  28.0817  0 i
 100.15  28.0564  0 i
 100.2  19.3096  0 i
 100.25  32.3704  0 i
 100.3  26.5023  0 i
 100.35  33.4933  0 i
 100.4  34.5906  0 i
 100.45  32.582  0 i
 100.5  28.0705  0 i
 100.55  31.8167  0 i
 100.6  29.156  0 i
 100.65  14.3018  0 i
 100.7  33.9702  0 i
 100.75  26.9626  0 i
 100.8  21.4514  0 i
 100.85  29.0597  0 i
 100.9  26.7542  0 i
 100.95  29.8541  0 i
 101  27.9514  0 i
 101.05  25.7069  0 i
 101.1  36.8918  0 i
 101.15  32.2777  0 i
 101.2  29.174  0 i
 101.25  16.7829  0 i
 101.3  20.2419  0 i
 101.35  37.8631  0 i
 101.4  28.9831  0 i
 101.45  32.9964  0 i
 101.5  41.2091  0 i
 101.55  30.0907  0 i
 101.6  39.8353  0 i
 101.65  36.9898  0 i
 101.7  20.5324  0 i
 101.75  28.8752  0 i
 101.8  28.6392  0 i
 101.85  31.9879  0 i
 101.9  26.3306  0 i
 101.95  22.5744  0 i
 102  37.068  0 i
 102.05  42.278  0 i
 102.1  25.6335  0 i
 102.15  42.0859  0 i
 102.2  26.3613  0 i
 102.25  29.0518  0 i
 102.3  25.0946  0 i
 102.35  31.5018  0 i
 102.4  30.7181  0 i
 102.45  35.0588  0 i
 102.5  24.8804  0 i
 102.55  34.4034  0 i
 102.6  34.8995  0 i
 102.65  38.9309  0 i
 102.7  26.618  0 i
 102.75  32.5677  0 i
 102.8  29.8626  0 i
 102.85  42.2987  0 i
 102.9  29.4282  0 i
 102.95  34.8077  0 i
 103  31.0546  0 i
 103.05  26.9695  0 i
 103.1  26.2147  0 i
 103.15  29.7559  0 i
 103.2  27.6334  0 i
 103.25  32.001  0 i
 103.3  37.146  0 i
 103.35  32.0824  0 i
 103.4  35.2308  0 i
 103.45  37.5947  0 i
 103.5  37.0058  0 i
 103.55  25.5865  0 i
 103.6  33.6575  0 i
 103.65  28.4113  0 i
 103.7  28.6715  0 i
 103.75  30.3591  0 i
 103.8  31.1963  0 i
 103.85  30.0484  0 i
 103.9  29.3654  0 i
 103.95  29.8587  0 i
 104  41.4604  0 i
 104.05  25.9696  0 i
 104.1  31.0236  0 i
 104.15  32.6464  0 i
 104.2  32.9065  0 i
 104.25  23.9041  0 i
 104.3  35.291  0 i
 104.35  38.8687  0 i
 104.4  34.9704  0 i
 104.45  28.4123  0 i
 104.5  25.8658  0 i
 104.55  26.4823  0 i
 104.6  22.2484  0 i
 104.65  25.5278  0 i
 104.7  24.703  0 i
 104.75  32.7469  0 i
 104.8  31.9336  0 i
 104.85  33.1177  0 i
 104.9  28.0957  0 i
 104.95  36.1481  0 i
 105  31.1772  0 i
 105.05  30.5363  0 i
 105.1  30.1952  0 i
 105.15  32.3739  0 i
 105.2  37.3158  0 i
 105.25  24.663  0 i
 105.3  38.5941  0 i
 105.35  25.4769  0 i
 105.4  29.3817  0 i
 105.45  31.3122  0 i
 105.5  33.8008  0 i
 105.55  28.3368  0 i
 105.6  32.5806  0 i
 105.65  39.2811  0 i
 105.7  33.1232  0 i
 105.75  23.6666  0 i
 105.8  25.2488  0 i
 105.85  43.6271  0 i
 105.9  31.16  0 i
 105.95  27.9705  0 i
 106  33.6988  0 i
 106.05  25.2417  0 i
 106.1  29.5538  0 i
 106.15  35.0209  0 i
 106.2  43.1619  0 i
 106.25  30.6459  0 i
 106.3  31.1901  0 i
 106.35  27.2768  0 i
 106.4  35.3614  0 i
 106.45  28.886  0 i
 106.5  30.768  0 i
 106.55  44.8399  0 i
 106.6  32.6626  0 i
 106.65  36.0877  0 i
 106.7  21.2861  0 i
 106.75  22.0756  0 i
 106.8  28.2454  0 i
 106.85  30.0092  0 i
 106.9  26.6055  0 i
 106.95  35.9437  0 i
 107  26.5565  0 i
 107.05  27.1858  0 i
 107.1  32.0371  0 i
 107.15  30.0831  0 i
 107.2  30.0645  0 i
 107.25  27.1166  0 i
 107.3  21.4952  0 i
 107.35  37.6316  0 i
 107.4  26.8561  0 i
 107.45  33.711  0 i
 107.5  24.8274  0 i
 107.55  31.8923  0 i
 107.6  35.8591  0 i
 107.65  36.2622  0 i
 107.7  32.9148  0 i
 107.75  27.1012  0 i
 107.8  28.5068  0 i
 107.85  38.9618  0 i
 107.9  29.2809  0 i
 107.95  32.8937  0 i
 108  36.4715  0 i
 108.05  36.7463  0 i
 108.1  33.8125  0 i
 108.15  26.8597  0 i
 108.2  34.4153  0 i
 108.25  44.5752  0 i
 108.3  29.9843  0 i
 108.35  43.303  0 i
 108.4  37.2245  0 i
 108.45  27.2406  0 i
 108.5  23.4595  0 i
 108.55  27.7979  0 i
 108.6  19.8227  0 i
 108.65  31.4268  0 i
 108.7  32.4803  0 i
 108.75  18.715  0 i
 108.8  31.7088  0 i
 108.85  25.6842  0 i
 108.9  38.6786  0 i
 108.95  25.2915  0 i
 109  32.8115  0 i
 109.05  21.2483  0 i
 109.1  20.1263  0 i
 109.15  34.2119  0 i
 109.2  42.6473  0 i
 109.25  31.3962  0 i
 109.3  24.392  0 i
 109.35  29.7553  0 i
 109.4  29.8807  0 i
 109.45  24.9604  0 i
 109.5  31.6073  0 i
 109.55  31.4854  0 i
 109.6  35.702  0 i
 109.65  34.4635  0 i
 109.7  30.8174  0 i
 109.75  36.0845  0 i
 109.8  30.9982  0 i
 109.85  22.0391  0 i
 109.9  38.8916  0 i
 109.95  27.3302  0 i
 110  32.1985  0 i
 110.05  34.2697  0 i
 110.1  23.3305  0 i
 110.15  25.6413  0 i
 110.2  26.746  0 i
 110.25  25.8465  0 i
 110.3  24.8872  0 i
 110.35  29.1583  0 i
 110.4  45.2091  0 i
 110.45  36.9894  0 i
 110.5  28.866  0 i
 110.55  29.0471  0 i
 110.6  24.5019  0 i
 110.65  35.1752  0 i
 110.7  39.0493  0 i
 110.75  36.8325  0 i
 110.8  30.8308  0 i
 110.85  39.7092  0 i
 110.9  32.9704  0 i
 110.95  40.4448  0 i
 111  29.2165  0 i
 111.05  31.9189  0 i
 111.1  24.763  0 i
 111.15  29.7001  0 i
 111.2  33.3059  0 i
 111.25  29.6185  0 i
 111.3  30.2234  0 i
 111.35  37.884  0 i
 111.4  28.1795  0 i
 111.45  25.5413  0 i
 111.5  31.3572  0 i
 111.55  31.6711  0 i
 111.6  34.789  0 i
 111.65  37.5663  0 i
 111.7  29.3149  0 i
 111.75  36.1164  0 i
 111.8  29.6008  0 i
 111.85  28.985  0 i
 111.9  28.3591  0 i
 111.95  34.2395  0 i
 112  29.9006  0 i
 112.05  30.9617  0 i
 112.1  26.5541  0 i
 112.15  29.7143  0 i
 112.2  29.842  0 i
 112.25  32.813  0 i
 112.3  27.0289  0 i
 112.35  28.3483  0 i
 112.4  30.1767  0 i
 112.45  39.0798  0 i
 112.5  38.9717  0 i
 112.55  27.023  0 i
 112.6  25.8348  0 i
 112.65  30.5923  0 i
 112.7  30.7218  0 i
 112.75  39.4116  0 i
 112.8  32.224  0 i
 112.85  42.079  0 i
 112.9  44.0844  0 i
 112.95  45.1424  0 i
 113  38.7907  0 i
 113.05  26.9629  0 i
 113.1  29.611  0 i
 113.15  31.5398  0 i
 113.2  30.3916  0 i
 113.25  30.1883  0 i
 113.3  28.5395  0 i
 113.35  23.5066  0 i
 113.4  24.8966  0 i
 113.45  39.835  0 i
 113.5  27.8638  0 i
 113.55  31.9796  0 i
 113.6  28.8931  0 i
 113.65  37.1575  0 i
 113.7  32.3428  0 i
 113.75  39.031  0 i
 113.8  49.6244  0 i
 113.85  39.7065  0 i
 113.9  25.7659  0 i
 113.95  31.2821  0 i
 114  37.3755  0 i
 114.05  30.4625  0 i
 114.1  35.8149  0 i
 114.15  27.6035  0 i
 114.2  27.0921  0 i
 114.25  51.9191  0 i
 114.3  19.1557  0 i
 114.35  31.4695  0 i
 114.4  30.2418  0 i
 114.45  30.9085  0 i
 114.5  40.6532  0 i
 114.55  33.458  0 i
 114.6  36.4661  0 i
 114.65  22.702  0 i
 114.7  27.865  0 i
 114.75  39.4059  0 i
 114.8  29.1443  0 i
 114.85  35.7204  0 i
 114.9  32.2683  0 i
 114.95  45.1612  0 i
 115  34.3558  0 i
 115.05  30.3289  0 i
 115.1  33.2387  0 i
 115.15  34.0538  0 i
 115.2  31.0644  0 i
 115.25  35.7003  0 i
 115.3  33.6219  0 i
 115.35  33.2295  0 i
 115.4  55.8248  0 i
 115.45  43.6448  0 i
 115.5  39.7551  0 i
 115.55  37.9362  0 i
 115.6  49.3184  0 i
 115.65  74.4572  0 i
 115.7  60.2706  0 i
 115.75  79.2426  0 i
 115.8  81.6428  0 i
 115.85  101.877  0 i
 115.9  118.829  0 i
 115.95  97.503  0 i
 116  100.972  0 i
 116.05  89.4036  0 i
 116.1  80.3185  0 i
 116.15  72.231  0 i
 116.2  54.7685  0 i
 116.25  52.2805  0 i
 116.3  48.9079  0 i
 116.35  41.2913  0 i
 116.4  35.3882  0 i
 116.45  30.2564  0 i
 116.5  49.7367  0 i
 116.55  37.0516  0 i
 116.6  30.153  0 i
 116.65  32.39  0 i
 116.7  26.3572  0 i
 116.75  30.9438  0 i
 116.8  38.6932  0 i
 116.85  36.3118  0 i
 116.9  33.3629  0 i
 116.95  29.4616  0 i
 117  19.9113  0 i
 117.05  23.675  0 i
 117.1  29.9324  0 i
 117.15  38.3409  0 i
 117.2  32.8358  0 i
 117.25  36.705  0 i
 117.3  21.8356  0 i
 117.35  34.2093  0 i
 117.4  33.3538  0 i
 117.45  40.7559  0 i
 117.5  25.1388  0 i
 117.55  24.5866  0 i
 117.6  24.0921  0 i
 117.65  33.5709  0 i
 117.7  34.6125  0 i
 117.75  32.0916  0 i
 117.8  24.7376  0 i
 117.85  33.2729  0 i
 117.9  30.1758  0 i
 117.95  38.7298  0 i
 118  31.0568  0 i
 118.05  31.1785  0 i
 118.1  35.6008  0 i
 118.15  31.0237  0 i
 118.2  32.1569  0 i
 118.25  27.4893  0 i
 118.3  24.2805  0 i
 118.35  30.2543  0 i
 118.4  32.8023  0 i
 118.45  37.1024  0 i
 118.5  21.2243  0 i
 118.55  25.4839  0 i
 118.6  32.3481  0 i
 118.65  33.5533  0 i
 118.7  24.5056  0 i
 118.75  31.8234  0 i
 118.8  32.7469  0 i
 118.85  26.6296  0 i
 118.9  24.3122  0 i
 118.95  24.9474  0 i
 119  32.378  0 i
 119.05  28.1703  0 i
 119.1  29.9354  0 i
 119.15  27.3914  0 i
 119.2  27.1188  0 i
 119.25  24.0213  0 i
 119.3  26.543  0 i
 119.35  20.7712  0 i
 119.4  37.4792  0 i
 119.45  39.2151  0 i
 119.5  33.2258  0 i
 119.55  19.8031  0 i
 119.6  32.3225  0 i
 119.65  37.5695  0 i
 119.7  23.5823  0 i
 119.75  21.7537  0 i
 119.8  27.9268  0 i
 119.85  26.9832  0 i
 119.9  36.6845  0 i
 119.95  16.8563  0 i
 120  32.6819  0 i
 120.05  27.1985  0 i
 120.1  30.8146  0 i
 120.15  30.7747  0 i
 120.2  34.4782  0 i
 120.25  39.1303  0 i
 120.3  25.6662  0 i
 120.35  31.113  0 i
 120.4  29.3578  0 i
 120.45  16.9658  0 i
 120.5  23.0097  0 i
 120.55  27.0928  0 i
 120.6  36.8135  0 i
 120.65  24.6596  0 i
 120.7  24.1536  0 i
 120.75  23.482  0 i
 120.8  40.6412  0 i
 120.85  33.1216  0 i
 120.9  30.1935  0 i
 120.95  31.5257  0 i
 121  29.684  0 i
 121.05  31.2862  0 i
 121.1  22.5385  0 i
 121.15  25.1658  0 i
 121.2  22.1158  0 i
 121.25  32.0473  0 i
 121.3  29.9397  0 i
 121.35  29.5874  0 i
 121.4  36.899  0 i
 121.45  27.6722  0 i
 121.5  26.6143  0 i
 121.55  31.9514  0 i
 121.6  31.5137  0 i
 121.65  33.0762  0 i
 121.7  36.5659  0 i
 121.75  29.5248  0 i
 121.8  40.8909  0 i
 121.85  31.5557  0 i
 121.9  41.7054  0 i
 121.95  36.2427  0 i
 122  29.7131  0 i
 122.05  35.9675  0 i
 122.1  30.5372  0 i
 122.15  31.9513  0 i
 122.2  29.2117  0 i
 122.25  27.2467  0 i
 122.3  25.8813  0 i
 122.35  32.6759  0 i
 122.4  24.1485  0 i
 122.45  39.88  0 i
 122.5  24.8442  0 i
 122.55  39.9631  0 i
 122.6  28.7646  0 i
 122.65  33.3626  0 i
 122.7  30.708  0 i
 122.75  28.9667  0 i
 122.8  27.9858  0 i
 122.85  25.8236  0 i
 122.9  27.8139  0 i
 122.95  28.7485  0 i
 123  28.9709  0 i
 123.05  30.1397  0 i
 123.1  15.5638  0 i
 123.15  33.2007  0 i
 123.2  34.3958  0 i
 123.25  30.459  0 i
 123.3  40.0016  0 i
 123.35  38.877  0 i
 123.4  31.8913  0 i
 123.45  32.7575  0 i
 123.5  31.7073  0 i
 123.55  23.2944  0 i
 123.6  30.7151  0 i
 123.65  26.5793  0 i
 123.7  31.6104  0 i
 123.75  21.9736  0 i
 123.8  25.2214  0 i
 123.85  15.5187  0 i
 123.9  27.2481  0 i
 123.95  32.5996  0 i
 124  24.4923  0 i
 124.05  33.147  0 i
 124.1  32.5973  0 i
 124.15  39.9085  0 i
 124.2  30.2626  0 i
 124.25  31.4711  0 i
 124.3  30.6225  0 i
 124.35  27.0823  0 i
 124.4  35.1107  0 i
 124.45  37.6464  0 i
 124.5  29.8496  0 i
 124.55  30.8672  0 i
 124.6  26.4082  0 i
 124.65  27.1267  0 i
 124.7  26.4011  0 i
 124.75  34.3192  0 i
 124.8  30.4589  0 i
 124.85  33.5672  0 i
 124.9  24.4133  0 i
 124.95  29.2228  0 i
 125  26.4875  0 i
 125.05  31.8644  0 i
 125.1  30.2864  0 i
 125.15  30.755  0 i
 125.2  43.1207  0 i
 125.25  33.1864  0 i
 125.3  33.3548  0 i
 125.35  31.963  0 i
 125.4  29.2443  0 i
 125.45  33.7025  0 i
 125.5  38.5183  0 i
 125.55  31.6872  0 i
 125.6  26.0699  0 i
 125.65  32.4871  0 i
 125.7  34.2031  0 i
 125.75  28.3484  0 i
 125.8  24.8635  0 i
 125.85  34.8189  0 i
 125.9  24.7222  0 i
 125.95  21.521  0 i
 126  31.2332  0 i
 126.05  34.836  0 i
 126.1  31.3905  0 i
 126.15  37.1614  0 i
 126.2  36.1742  0 i
 126.25  25.8874  0 i
 126.3  22.3675  0 i
 126.35  41.9807  0 i
 126.4  33.5724  0 i
 126.45  33.439  0 i
 126.5  24.8206  0 i
 126.55  29.2314  0 i
 126.6  35.2919  0 i
 126.65  27.0133  0 i
 126.7  32.56  0 i
 126.75  36.5329  0 i
 126.8  19.5418  0 i
 126.85  32.8662  0 i
 126.9  28.4793  0 i
 126.95  27.2355  0 i
 127  30.5634  0 i
 127.05  36.8179  0 i
 127.1  27.9993  0 i
 127.15  30.4948  0 i
 127.2  28.8196  0 i
 127.25  30.3759  0 i
 127.3  20.7445  0 i
 127.35  39.0494  0 i
 127.4  46.3063  0 i
 127.45  32.8777  0 i
 127.5  25.7011  0 i
 127.55  27.0789  0 i
 127.6  39.9679  0 i
 127.65  27.3803  0 i
 127.7  34.5171  0 i
 127.75  43.5673  0 i
 127.8  39.8068  0 i
 127.85  27.5447  0 i
 127.9  37.2144  0 i
 127.95  23.9951  0 i
 128  25.7339  0 i
 128.05  26.5129  0 i
 128.1  34.8037  0 i
 128.15  40.2043  0 i
 128.2  32.0416  0 i
 128.25  23.4857  0 i
 128.3  29.9176  0 i
 128.35  35.3098  0 i
 128.4  35.8883  0 i
 128.45  29.5264  0 i
 128.5  26.8524  0 i
 128.55  35.9626  0 i
 128.6  45.754  0 i
 128.65  34.0805  0 i
 128.7  26.9381  0 i
 128.75  30.0164  0 i
 128.8  30.4907  0 i
 128.85  24.2321  0 i
 128.9  29.6064  0 i
 128.95  24.519  0 i
 129  26.3173  0 i
 129.05  30.8144  0 i
 129.1  37.9438  0 i
 129.15  24.6224  0 i
 129.2  37.4829  0 i
 129.25  25.4971  0 i
 129.3  28.1415  0 i
 129.35  32.3574  0 i
 129.4  41.402  0 i
 129.45  32.1841  0 i
 129.5  34.2156  0 i
 129.55  28.7665  0 i
 129.6  34.657  0 i
 129.65  26.8082  0 i
 129.7  38.7113  0 i
 129.75  29.9506  0 i
 129.8  21.7854  0 i
 129.85  27.0111  0 i
 129.9  38.5864  0 i
 129.95  30.0993  0 i
 130  32.7412  0 i

