
#Surface 0 of 1 surfaces

#IsoCurve 0, 1801 points
#x y z type
 40  50.7235  0 i
 40.05  35.7195  0 i
 40.1  36.6107  0 i
 40.15  42.9065  0 i
 40.2  51.4472  0 i
 40.25  39.2176  0 i
 40.3  29.9567  0 i
 40.35  40.7031  0 i
 40.4  46.8372  0 i
 40.45  38.9941  0 i
 40.5  41.7132  0 i
 40.55  51.1196  0 i
 40.6  48.5026  0 i
 40.65  29.3652  0 i
 40.7  50.7736  0 i
 40.75  31.2875  0 i
 40.8  38.2531  0 i
 40.85  41.3348  0 i
 40.9  36.5867  0 i
 40.95  41.2502  0 i
 41  35.8815  0 i
 41.05  28.4532  0 i
 41.1  48.5037  0 i
 41.15  40.5417  0 i
 41.2  38.3916  0 i
 41.25  40.8609  0 i
 41.3  47.1289  0 i
 41.35  40.3064  0 i
 41.4  36.404  0 i
 41.45  37.3068  0 i
 41.5  48.1195  0 i
 41.55  53.3234  0 i
 41.6  40.6202  0 i
 41.65  42.7608  0 i
 41.7  38.8621  0 i
 41.75  38.11  0 i
 41.8  32.7515  0 i
 41.85  41.5264  0 i
 41.9  42.4114  0 i
 41.95  41.7303  0 i
 42  28.4715  0 i
 42.05  29.3696  0 i
 42.1  51.7648  0 i
 42.15  35.2806  0 i
 42.2  41.5152  0 i
 42.25  46.9456  0 i
 42.3  38.5119  0 i
 42.35  30.5712  0 i
 42.4  40.2478  0 i
 42.45  37.3807  0 i
 42.5  54.675  0 i
 42.55  30.4323  0 i
 42.6  40.2051  0 i
 42.65  47.872  0 i
 42.7  34.4596  0 i
 42.75  52.9674  0 i
 42.8  26.536  0 i
 42.85  41.3628  0 i
 42.9  45.8549  0 i
 42.95  35.584  0 i
 43  28.517  0 i
 43.05  36.2768  0 i
 43.1  43.4313  0 i
 43.15  42.702  0 i
 43.2  34.1289  0 i
 43.25  21.9082  0 i
 43.3  38.4487  0 i
 43.35  37.2306  0 i
 43.4  35.6685  0 i
 43.45  32.0462  0 i
 43.5  35.8189  0 i
 43.55  42.7836  0 i
 43.6  38.7263  0 i
 43.65  37.1543  0 i
 43.7  40.2948  0 i
 43.75  31.0009  0 i
 43.8  50.2734  0 i
 43.85  47.7775  0 i
 43.9  47.6713  0 i
 43.95  54.5193  0 i
 44  47.8606  0 i
 44.05  57.8365  0 i
 44.1  66.59  0 i
 44.15  80.0948  0 i
 44.2  153.713  0 i
 44.25  397.243  0 i
 44.3  1177.89  0 i
 44.35  2144.98  0 i
 44.4  2153.2  0 i
 44.45  1483.26  0 i
 44.5  455.712  0 i
 44.55  180.586  0 i
 44.6  97.3006  0 i
 44.65  53.6389  0 i
 44.7  51.9447  0 i
 44.75  44.9185  0 i
 44.8  58.0337  0 i
 44.85  53.9055  0 i
 44.9  35.7089  0 i
 44.95  43.3616  0 i
 45  43.8763  0 i
 45.05  42.0378  0 i
 45.1  35.425  0 i
 45.15  33.6855  0 i
 45.2  36.1929  0 i
 45.25  37.3962  0 i
 45.3  34.3311  0 i
 45.35  40.4343  0 i
 45.4  36.5236  0 i
 45.45  33.6632  0 i
 45.5  39.8882  0 i
 45.55  31.8967  0 i
 45.6  36.7583  0 i
 45.65  32.7971  0 i
 45.7  41.1595  0 i
 45.75  30.8159  0 i
 45.8  39.7391  0 i
 45.85  22.4957  0 i
 45.9  35.1374  0 i
 45.95  29.2703  0 i
 46  36.7122  0 i
 46.05  31.2945  0 i
 46.1  38.3935  0 i
 46.15  41.0473  0 i
 46.2  34.6532  0 i
 46.25  46.5974  0 i
 46.3  40.6423  0 i
 46.35  40.0324  0 i
 46.4  33.6587  0 i
 46.45  26.9195  0 i
 46.5  31.6513  0 i
 46.55  32.3161  0 i
 46.6  42.3375  0 i
 46.65  31.5939  0 i
 46.7  24.8587  0 i
 46.75  46.235  0 i
 46.8  36.8945  0 i
 46.85  43.9272  0 i
 46.9  42.9045  0 i
 46.95  44.6086  0 i
 47  32.1098  0 i
 47.05  38.972  0 i
 47.1  30.5589  0 i
 47.15  31.2657  0 i
 47.2  38.6354  0 i
 47.25  35.4585  0 i
 47.3  26.8478  0 i
 47.35  26.4418  0 i
 47.4  30.8504  0 i
 47.45  46.5424  0 i
 47.5  41.1079  0 i
 47.55  44.8682  0 i
 47.6  40.4389  0 i
 47.65  30.973  0 i
 47.7  40.4736  0 i
 47.75  33.7535  0 i
 47.8  32.5171  0 i
 47.85  45.585  0 i
 47.9  27.6175  0 i
 47.95  29.1723  0 i
 48  24.8622  0 i
 48.05  51.1698  0 i
 48.1  38.5575  0 i
 48.15  35.1808  0 i
 48.2  31.4937  0 i
 48.25  37.6298  0 i
 48.3  29.1737  0 i
 48.35  27.5326  0 i
 48.4  30.4545  0 i
 48.45  32.8442  0 i
 48.5  37.6318  0 i
 48.55  39.6253  0 i
 48.6  32.6178  0 i
 48.65  41.4623  0 i
 48.7  31.1592  0 i
 48.75  30.2723  0 i
 48.8  31.4736  0 i
 48.85  34.6223  0 i
 48.9  45.3742  0 i
 48.95  30.6036  0 i
 49  47.7892  0 i
 49.05  30.1691  0 i
 49.1  41.3882  0 i
 49.15  30.9548  0 i
 49.2  27.0189  0 i
 49.25  27.2574  0 i
 49.3  29.9994  0 i
 49.35  30.3127  0 i
 49.4  43.6651  0 i
 49.45  33.476  0 i
 49.5  37.92  0 i
 49.55  32.4155  0 i
 49.6  24.8726  0 i
 49.65  29.4255  0 i
 49.7  33.29  0 i
 49.75  36.4682  0 i
 49.8  39.1728  0 i
 49.85  23.5228  0 i
 49.9  19.2086  0 i
 49.95  40.8822  0 i
 50  30.3188  0 i
 50.05  40.9449  0 i
 50.1  23.3757  0 i
 50.15  31.3989  0 i
 50.2  39.2526  0 i
 50.25  26.248  0 i
 50.3  50.4649  0 i
 50.35  31.5996  0 i
 50.4  44.8345  0 i
 50.45  39.8039  0 i
 50.5  28.7671  0 i
 50.55  43.0851  0 i
 50.6  31.972  0 i
 50.65  35.1683  0 i
 50.7  34.7507  0 i
 50.75  30.5096  0 i
 50.8  39.7421  0 i
 50.85  35.7845  0 i
 50.9  32.1673  0 i
 50.95  28.9499  0 i
 51  37.2462  0 i
 51.05  33.6658  0 i
 51.1  44.3443  0 i
 51.15  23.7639  0 i
 51.2  32.7894  0 i
 51.25  33.5352  0 i
 51.3  35.9474  0 i
 51.35  32.0828  0 i
 51.4  43.0781  0 i
 51.45  25.6985  0 i
 51.5  32.407  0 i
 51.55  35.7371  0 i
 51.6  39.0023  0 i
 51.65  31.2909  0 i
 51.7  25.9223  0 i
 51.75  47.1821  0 i
 51.8  37.9218  0 i
 51.85  38.2968  0 i
 51.9  28.8898  0 i
 51.95  32.7013  0 i
 52  40.1023  0 i
 52.05  36.1397  0 i
 52.1  40.3245  0 i
 52.15  32.8784  0 i
 52.2  34.578  0 i
 52.25  42.766  0 i
 52.3  31.097  0 i
 52.35  33.2841  0 i
 52.4  41.7871  0 i
 52.45  24.3598  0 i
 52.5  17.5641  0 i
 52.55  33.4531  0 i
 52.6  30.4814  0 i
 52.65  30.1743  0 i
 52.7  40.2151  0 i
 52.75  31.0334  0 i
 52.8  29.8282  0 i
 52.85  44.2658  0 i
 52.9  41.0196  0 i
 52.95  24.1301  0 i
 53  29.5207  0 i
 53.05  27.4621  0 i
 53.1  36.2064  0 i
 53.15  26.9629  0 i
 53.2  27.5241  0 i
 53.25  30.5396  0 i
 53.3  34.4888  0 i
 53.35  29.8324  0 i
 53.4  31.1939  0 i
 53.45  39.0342  0 i
 53.5  32.4382  0 i
 53.55  20.4983  0 i
 53.6  37.5927  0 i
 53.65  38.41  0 i
 53.7  31.9299  0 i
 53.75  30.4187  0 i
 53.8  35.8827  0 i
 53.85  29.2013  0 i
 53.9  31.7742  0 i
 53.95  39.5422  0 i
 54  25.3528  0 i
 54.05  35.4469  0 i
 54.1  28.8606  0 i
 54.15  28.2268  0 i
 54.2  33.2323  0 i
 54.25  28.0274  0 i
 54.3  36.9586  0 i
 54.35  33.0161  0 i
 54.4  30.7936  0 i
 54.45  37.1658  0 i
 54.5  38.5995  0 i
 54.55  35.5749  0 i
 54.6  43.3774  0 i
 54.65  41.5415  0 i
 54.7  21.3748  0 i
 54.75  30.3301  0 i
 54.8  35.612  0 i
 54.85  24.2053  0 i
 54.9  34.5942  0 i
 54.95  31.6572  0 i
 55  42.2791  0 i
 55.05  29.0922  0 i
 55.1  36.5517  0 i
 55.15  27.3821  0 i
 55.2  28.6154  0 i
 55.25  29.2622  0 i
 55.3  28.0316  0 i
 55.35  24.4768  0 i
 55.4  41.4162  0 i
 55.45  28.7629  0 i
 55.5  28.7527  0 i
 55.55  36.1811  0 i
 55.6  41.8162  0 i
 55.65  39.2394  0 i
 55.7  28.562  0 i
 55.75  34.2761  0 i
 55.8  25.6836  0 i
 55.85  35.867  0 i
 55.9  32.7848  0 i
 55.95  16.6079  0 i
 56  35.7767  0 i
 56.05  27.8847  0 i
 56.1  23.9967  0 i
 56.15  37.5073  0 i
 56.2  32.057  0 i
 56.25  33.8127  0 i
 56.3  30.1121  0 i
 56.35  37.4665  0 i
 56.4  47.49  0 i
 56.45  31.1174  0 i
 56.5  25.6725  0 i
 56.55  29.5011  0 i
 56.6  32.9871  0 i
 56.65  30.0006  0 i
 56.7  33.4723  0 i
 56.75  33.0475  0 i
 56.8  26.6109  0 i
 56.85  32.492  0 i
 56.9  24.1929  0 i
 56.95  29.2602  0 i
 57  36.0186  0 i
 57.05  28.4605  0 i
 57.1  41.4072  0 i
 57.15  39.0304  0 i
 57.2  32.5231  0 i
 57.25  40.8966  0 i
 57.3  27.0518  0 i
 57.35  36.1245  0 i
 57.4  32.6263  0 i
 57.45  31.5762  0 i
 57.5  38.9785  0 i
 57.55  32.9864  0 i
 57.6  32.7366  0 i
 57.65  34.028  0 i
 57.7  34.0935  0 i
 57.75  38.0879  0 i
 57.8  29.3439  0 i
 57.85  34.1753  0 i
 57.9  25.1099  0 i
 57.95  38.2936  0 i
 58  33.1379  0 i
 58.05  32.292  0 i
 58.1  35.3274  0 i
 58.15  31.1708  0 i
 58.2  29.4875  0 i
 58.25  31.9988  0 i
 58.3  29.541  0 i
 58.35  30.9733  0 i
 58.4  32.742  0 i
 58.45  28.8589  0 i
 58.5  34.2887  0 i
 58.55  37.1103  0 i
 58.6  34.5396  0 i
 58.65  38.3738  0 i
 58.7  30.907  0 i
 58.75  34.1753  0 i
 58.8  39.5301  0 i
 58.85  32.8976  0 i
 58.9  20.3952  0 i
 58.95  32.819  0 i
 59  33.6804  0 i
 59.05  26.2686  0 i
 59.1  31.6296  0 i
 59.15  36.3233  0 i
 59.2  40.3435  0 i
 59.25  31.2076  0 i
 59.3  31.1124  0 i
 59.35  35.9336  0 i
 59.4  23.3084  0 i
 59.45  33.0174  0 i
 59.5  25.0874  0 i
 59.55  30.5775  0 i
 59.6  39.4499  0 i
 59.65  33.1308  0 i
 59.7  27.7434  0 i
 59.75  32.7967  0 i
 59.8  32.5809  0 i
 59.85  27.9034  0 i
 59.9  41.9148  0 i
 59.95  33.4958  0 i
 60  25.8724  0 i
 60.05  40.1532  0 i
 60.1  34.1279  0 i
 60.15  27.5528  0 i
 60.2  25.4639  0 i
 60.25  36.7966  0 i
 60.3  19.5533  0 i
 60.35  17.5556  0 i
 60.4  40.3863  0 i
 60.45  30.2177  0 i
 60.5  32.4584  0 i
 60.55  21.5544  0 i
 60.6  31.0363  0 i
 60.65  28.9096  0 i
 60.7  29.2374  0 i
 60.75  33.4665  0 i
 60.8  33.7464  0 i
 60.85  22.5188  0 i
 60.9  36.7225  0 i
 60.95  36.4678  0 i
 61  28.783  0 i
 61.05  26.6979  0 i
 61.1  31.5333  0 i
 61.15  31.8937  0 i
 61.2  33.6607  0 i
 61.25  23.4027  0 i
 61.3  37.7696  0 i
 61.35  32.9482  0 i
 61.4  31.1716  0 i
 61.45  32.699  0 i
 61.5  28.211  0 i
 61.55  34.2505  0 i
 61.6  30.6664  0 i
 61.65  34.1475  0 i
 61.7  26.2024  0 i
 61.75  35.2023  0 i
 61.8  35.9451  0 i
 61.85  37.2428  0 i
 61.9  28.2426  0 i
 61.95  27.6337  0 i
 62  38.7783  0 i
 62.05  27.5836  0 i
 62.1  26.3596  0 i
 62.15  27.7781  0 i
 62.2  21.7069  0 i
 62.25  31.969  0 i
 62.3  36.1543  0 i
 62.35  33.6645  0 i
 62.4  30.1181  0 i
 62.45  35.2111  0 i
 62.5  30.2056  0 i
 62.55  23.5109  0 i
 62.6  28.2633  0 i
 62.65  34.3096  0 i
 62.7  36.1583  0 i
 62.75  32.5645  0 i
 62.8  29.1444  0 i
 62.85  26.8752  0 i
 62.9  38.6065  0 i
 62.95  50.4541  0 i
 63  35.0239  0 i
 63.05  32.1654  0 i
 63.1  27.937  0 i
 63.15  30.6127  0 i
 63.2  26.3697  0 i
 63.25  28.0664  0 i
 63.3  25.7904  0 i
 63.35  30.2116  0 i
 63.4  27.0687  0 i
 63.45  30.194  0 i
 63.5  30.651  0 i
 63.55  22.5178  0 i
 63.6  32.4508  0 i
 63.65  31.156  0 i
 63.7  31.1307  0 i
 63.75  39.1001  0 i
 63.8  38.7128  0 i
 63.85  39.1677  0 i
 63.9  32.2242  0 i
 63.95  33.7547  0 i
 64  34.7141  0 i
 64.05  28.6315  0 i
 64.1  31.7203  0 i
 64.15  26.9011  0 i
 64.2  32.506  0 i
 64.25  39.7914  0 i
 64.3  37.3945  0 i
 64.35  38.7741  0 i
 64.4  53.2173  0 i
 64.45  51.2772  0 i
 64.5  50.1539  0 i
 64.55  79.4052  0 i
 64.6  96.3876  0 i
 64.65  127.217  0 i
 64.7  168.728  0 i
 64.75  152.934  0 i
 64.8  101.305  0 i
 64.85  73.3293  0 i
 64.9  55.4854  0 i
 64.95  45.9311  0 i
 65  45.5515  0 i
 65.05  29.2714  0 i
 65.1  39.5897  0 i
 65.15  33.6103  0 i
 65.2  38.2783  0 i
 65.25  38.8238  0 i
 65.3  32.7066  0 i
 65.35  26.8738  0 i
 65.4  36.8482  0 i
 65.45  29.8403  0 i
 65.5  30.0638  0 i
 65.55  24.5047  0 i
 65.6  32.6642  0 i
 65.65  32.1126  0 i
 65.7  33.2294  0 i
 65.75  32.8024  0 i
 65.8  28.4533  0 i
 65.85  39.763  0 i
 65.9  31.9762  0 i
 65.95  30.2249  0 i
 66  28.6592  0 i
 66.05  25.0138  0 i
 66.1  34.0748  0 i
 66.15  27.576  0 i
 66.2  29.8576  0 i
 66.25  28.534  0 i
 66.3  29.7049  0 i
 66.35  27.4478  0 i
 66.4  31.8205  0 i
 66.45  36.0481  0 i
 66.5  33.2414  0 i
 66.55  22.45  0 i
 66.6  31.1052  0 i
 66.65  38.3237  0 i
 66.7  24.1134  0 i
 66.75  38.352  0 i
 66.8  35.3151  0 i
 66.85  30.5933  0 i
 66.9  27.564  0 i
 66.95  21.2787  0 i
 67  34.5742  0 i
 67.05  27.8477  0 i
 67.1  22.8795  0 i
 67.15  28.0836  0 i
 67.2  33.4622  0 i
 67.25  35.7285  0 i
 67.3  35.1134  0 i
 67.35  26.3669  0 i
 67.4  27.4633  0 i
 67.45  31.809  0 i
 67.5  23.1234  0 i
 67.55  26.4473  0 i
 67.6  34.1666  0 i
 67.65  32.5273  0 i
 67.7  40.5214  0 i
 67.75  29.394  0 i
 67.8  29.173  0 i
 67.85  31.7949  0 i
 67.9  32.0011  0 i
 67.95  34.8868  0 i
 68  26.5753  0 i
 68.05  31.3641  0 i
 68.1  22.8798  0 i
 68.15  50.0788  0 i
 68.2  38.6237  0 i
 68.25  31.0624  0 i
 68.3  28.4785  0 i
 68.35  29.5017  0 i
 68.4  33.4673  0 i
 68.45  30.9656  0 i
 68.5  34.5699  0 i
 68.55  29.6573  0 i
 68.6  28.1566  0 i
 68.65  33.0476  0 i
 68.7  41.7836  0 i
 68.75  36.4017  0 i
 68.8  36.0094  0 i
 68.85  25.1443  0 i
 68.9  33.7141  0 i
 68.95  28.7253  0 i
 69  27.4325  0 i
 69.05  24.4929  0 i
 69.1  25.0319  0 i
 69.15  26.4814  0 i
 69.2  32.9031  0 i
 69.25  29.5387  0 i
 69.3  24.4013  0 i
 69.35  22.8418  0 i
 69.4  32.9282  0 i
 69.45  28.7423  0 i
 69.5  22.0931  0 i
 69.55  24.6217  0 i
 69.6  27.3142  0 i
 69.65  30.5191  0 i
 69.7  37.4517  0 i
 69.75  29.4547  0 i
 69.8  32.1406  0 i
 69.85  28.957  0 i
 69.9  31.8697  0 i
 69.95  34.0611  0 i
 70  27.8928  0 i
 70.05  32.5299  0 i
 70.1  26.0272  0 i
 70.15  29.3684  0 i
 70.2  31.6462  0 i
 70.25  30.6805  0 i
 70.3  51.2856  0 i
 70.35  26.2114  0 i
 70.4  28.2729  0 i
 70.45  30.4981  0 i
 70.5  29.2562  0 i
 70.55  26.8003  0 i
 70.6  26.0262  0 i
 70.65  24.2183  0 i
 70.7  36.6395  0 i
 70.75  29.1932  0 i
 70.8  37.0335  0 i
 70.85  25.8095  0 i
 70.9  29.5807  0 i
 70.95  22.7791  0 i
 71  23.282  0 i
 71.05  30.2598  0 i
 71.1  49.412  0 i
 71.15  35.538  0 i
 71.2  36.3842  0 i
 71.25  31.0976  0 i
 71.3  26.6844  0 i
 71.35  36.931  0 i
 71.4  30.0349  0 i
 71.45  38.306  0 i
 71.5  33.4494  0 i
 71.55  35.6328  0 i
 71.6  37.5048  0 i
 71.65  30.3577  0 i
 71.7  23.2875  0 i
 71.75  37.8476  0 i
 71.8  31.8011  0 i
 71.85  36.5782  0 i
 71.9  36.3322  0 i
 71.95  34.0258  0 i
 72  32.9925  0 i
 72.05  35.3241  0 i
 72.1  32.765  0 i
 72.15  40.1017  0 i
 72.2  33.0599  0 i
 72.25  26.1385  0 i
 72.3  29.46  0 i
 72.35  31.0294  0 i
 72.4  23.6847  0 i
 72.45  27.2303  0 i
 72.5  30.7826  0 i
 72.55  33.8573  0 i
 72.6  30.0968  0 i
 72.65  30.5658  0 i
 72.7  26.495  0 i
 72.75  24.7451  0 i
 72.8  21.9999  0 i
 72.85  26.8803  0 i
 72.9  37.4351  0 i
 72.95  28.522  0 i
 73  33.8021  0 i
 73.05  38.7167  0 i
 73.1  29.251  0 i
 73.15  25.1455  0 i
 73.2  38.2  0 i
 73.25  41.865  0 i
 73.3  18.6606  0 i
 73.35  24.3515  0 i
 73.4  23.507  0 i
 73.45  20.8249  0 i
 73.5  24.5962  0 i
 73.55  30.4508  0 i
 73.6  32.3039  0 i
 73.65  27.4785  0 i
 73.7  30.9359  0 i
 73.75  15.775  0 i
 73.8  36.8152  0 i
 73.85  32.2402  0 i
 73.9  29.2433  0 i
 73.95  31.9737  0 i
 74  33.0427  0 i
 74.05  22.2045  0 i
 74.1  26.4934  0 i
 74.15  17.2339  0 i
 74.2  35.934  0 i
 74.25  30.7588  0 i
 74.3  23.2515  0 i
 74.35  30.1596  0 i
 74.4  35.5712  0 i
 74.45  30.3572  0 i
 74.5  34.9055  0 i
 74.55  23.0298  0 i
 74.6  37.0166  0 i
 74.65  36.87  0 i
 74.7  25.5598  0 i
 74.75  28.5422  0 i
 74.8  27.5686  0 i
 74.85  33.2841  0 i
 74.9  26.5428  0 i
 74.95  30.0922  0 i
 75  40.9629  0 i
 75.05  25.1007  0 i
 75.1  44.9889  0 i
 75.15  25.8037  0 i
 75.2  33.6339  0 i
 75.25  26.8233  0 i
 75.3  30.8819  0 i
 75.35  31.4646  0 i
 75.4  37.1758  0 i
 75.45  30.6738  0 i
 75.5  34.8474  0 i
 75.55  37.6794  0 i
 75.6  40.8462  0 i
 75.65  32.1471  0 i
 75.7  28.9746  0 i
 75.75  38.3071  0 i
 75.8  35.2267  0 i
 75.85  31.6027  0 i
 75.9  23.7148  0 i
 75.95  27.1784  0 i
 76  25.4101  0 i
 76.05  28.8736  0 i
 76.1  34.153  0 i
 76.15  23.7066  0 i
 76.2  29.885  0 i
 76.25  29.9605  0 i
 76.3  34.6728  0 i
 76.35  38.2133  0 i
 76.4  30.2561  0 i
 76.45  31.8147  0 i
 76.5  24.1679  0 i
 76.55  26.8062  0 i
 76.6  20.2848  0 i
 76.65  27.6787  0 i
 76.7  36.6604  0 i
 76.75  29.8308  0 i
 76.8  41.075  0 i
 76.85  28.4492  0 i
 76.9  27.1107  0 i
 76.95  36.0638  0 i
 77  28.0513  0 i
 77.05  27.4544  0 i
 77.1  33.5477  0 i
 77.15  31.1979  0 i
 77.2  28.9195  0 i
 77.25  29.1684  0 i
 77.3  35.1596  0 i
 77.35  36.2369  0 i
 77.4  34.1521  0 i
 77.45  29.0384  0 i
 77.5  37.8016  0 i
 77.55  29.9808  0 i
 77.6  26.7339  0 i
 77.65  30.6662  0 i
 77.7  32.7165  0 i
 77.75  32.6407  0 i
 77.8  40.0778  0 i
 77.85  35.5954  0 i
 77.9  30.9597  0 i
 77.95  27.838  0 i
 78  28.2089  0 i
 78.05  29.2552  0 i
 78.1  36.8708  0 i
 78.15  38.162  0 i
 78.2  34.5385  0 i
 78.25  38.0983  0 i
 78.3  32.0574  0 i
 78.35  35.9545  0 i
 78.4  33.005  0 i
 78.45  24.2292  0 i
 78.5  22.085  0 i
 78.55  26.3548  0 i
 78.6  29.2479  0 i
 78.65  34.7111  0 i
 78.7  41.7506  0 i
 78.75  35.2951  0 i
 78.8  36.1866  0 i
 78.85  23.1955  0 i
 78.9  25.0901  0 i
 78.95  28.4483  0 i
 79  33.3762  0 i
 79.05  17.8447  0 i
 79.1  30.8879  0 i
 79.15  23.5672  0 i
 79.2  27.4329  0 i
 79.25  34.0129  0 i
 79.3  29.0821  0 i
 79.35  42.539  0 i
 79.4  30.9751  0 i
 79.45  33.3507  0 i
 79.5  32.6984  0 i
 79.55  33.5952  0 i
 79.6  28.7101  0 i
 79.65  23.8903  0 i
 79.7  39.4976  0 i
 79.75  26.3753  0 i
 79.8  28.4604  0 i
 79.85  37.0939  0 i
 79.9  28.1653  0 i
 79.95  34.5919  0 i
 80  31.6499  0 i
 80.05  24.2973  0 i
 80.1  29.2719  0 i
 80.15  34.0157  0 i
 80.2  31.3777  0 i
 80.25  31.1594  0 i
 80.3  37.739  0 i
 80.35  35.5585  0 i
 80.4  30.6371  0 i
 80.45  26.2365  0 i
 80.5  29.631  0 i
 80.55  38.5924  0 i
 80.6  27.8314  0 i
 80.65  28.8642  0 i
 80.7  34.8483  0 i
 80.75  35.8851  0 i
 80.8  33.582  0 i
 80.85  23.5122  0 i
 80.9  25.881  0 i
 80.95  28.0724  0 i
 81  31.7481  0 i
 81.05  37.3772  0 i
 81.1  49.0677  0 i
 81.15  34.4621  0 i
 81.2  31.4048  0 i
 81.25  29.3896  0 i
 81.3  28.938  0 i
 81.35  27.782  0 i
 81.4  36.683  0 i
 81.45  31.7167  0 i
 81.5  33.5589  0 i
 81.55  31.3797  0 i
 81.6  49.6569  0 i
 81.65  41.7179  0 i
 81.7  42.143  0 i
 81.75  50.5658  0 i
 81.8  52.3002  0 i
 81.85  107.372  0 i
 81.9  209.105  0 i
 81.95  285.598  0 i
 82  273.732  0 i
 82.05  210.821  0 i
 82.1  121.679  0 i
 82.15  89.7  0 i
 82.2  50.668  0 i
 82.25  46.6262  0 i
 82.3  38.2966  0 i
 82.35  36.6795  0 i
 82.4  24.8339  0 i
 82.45  37.1166  0 i
 82.5  35.9087  0 i
 82.55  36.2737  0 i
 82.6  33.6366  0 i
 82.65  33.7863  0 i
 82.7  40.8523  0 i
 82.75  44.1695  0 i
 82.8  21.8668  0 i
 82.85  30.2626  0 i
 82.9  37.9268  0 i
 82.95  51.4838  0 i
 83  30.2163  0 i
 83.05  28.2011  0 i
 83.1  31.7879  0 i
 83.15  24.7895  0 i
 83.2  36.0913  0 i
 83.25  31.4001  0 i
 83.3  30.5208  0 i
 83.35  27.0533  0 i
 83.4  28.9024  0 i
 83.45  39.2231  0 i
 83.5  29.5326  0 i
 83.55  26.8656  0 i
 83.6  23.2981  0 i
 83.65  38.9409  0 i
 83.7  25.6975  0 i
 83.75  37.4429  0 i
 83.8  23.8781  0 i
 83.85  33.795  0 i
 83.9  20.3023  0 i
 83.95  43.2002  0 i
 84  28.7702  0 i
 84.05  30.122  0 i
 84.1  22.1678  0 i
 84.15  36.2407  0 i
 84.2  33.2218  0 i
 84.25  31.2976  0 i
 84.3  31.8118  0 i
 84.35  24.7119  0 i
 84.4  26.5009  0 i
 84.45  24.6589  0 i
 84.5  35.3704  0 i
 84.55  32.8269  0 i
 84.6  39.4331  0 i
 84.65  40.7871  0 i
 84.7  30.8404  0 i
 84.75  25.3891  0 i
 84.8  33.4066  0 i
 84.85  36.5388  0 i
 84.9  30.848  0 i
 84.95  31.2444  0 i
 85  25.8117  0 i
 85.05  32.1597  0 i
 85.1  29.0891  0 i
 85.15  32.9724  0 i
 85.2  29.3232  0 i
 85.25  29.3088  0 i
 85.3  28.9372  0 i
 85.35  24.2212  0 i
 85.4  35.4989  0 i
 85.45  33.0062  0 i
 85.5  32.5483  0 i
 85.55  31.0007  0 i
 85.6  31.1916  0 i
 85.65  36.2677  0 i
 85.7  36.5983  0 i
 85.75  30.6455  0 i
 85.8  27.8458  0 i
 85.85  30.7376  0 i
 85.9  21.7883  0 i
 85.95  26.0216  0 i
 86  13.6393  0 i
 86.05  23.5721  0 i
 86.1  31.1026  0 i
 86.15  20.7616  0 i
 86.2  26.26  0 i
 86.25  26.7379  0 i
 86.3  28.7643  0 i
 86.35  23.9792  0 i
 86.4  34.3482  0 i
 86.45  29.9989  0 i
 86.5  23.5245  0 i
 86.55  27.7558  0 i
 86.6  35.1386  0 i
 86.65  43.9673  0 i
 86.7  32.4964  0 i
 86.75  25.2879  0 i
 86.8  37.8222  0 i
 86.85  35.6664  0 i
 86.9  35.1967  0 i
 86.95  23.9923  0 i
 87  35.1153  0 i
 87.05  31.739  0 i
 87.1  23.7632  0 i
 87.15  29.1361  0 i
 87.2  34.8229  0 i
 87.25  33.4016  0 i
 87.3  32.208  0 i
 87.35  31.6216  0 i
 87.4  30.5367  0 i
 87.45  26.2025  0 i
 87.5  32.3644  0 i
 87.55  26.7608  0 i
 87.6  30.2502  0 i
 87.65  33.6526  0 i
 87.7  30.2737  0 i
 87.75  29.076  0 i
 87.8  25.0333  0 i
 87.85  29.7984  0 i
 87.9  26.0089  0 i
 87.95  37.164  0 i
 88  30.8662  0 i
 88.05  23.8623  0 i
 88.1  30.1303  0 i
 88.15  34.6148  0 i
 88.2  27.3788  0 i
 88.25  28.247  0 i
 88.3  30.4358  0 i
 88.35  22.5035  0 i
 88.4  32.7634  0 i
 88.45  35.9433  0 i
 88.5  26.9405  0 i
 88.55  23.3686  0 i
 88.6  35.0825  0 i
 88.65  29.4857  0 i
 88.7  30.2682  0 i
 88.75  31.0666  0 i
 88.8  38.6597  0 i
 88.85  26.2678  0 i
 88.9  21.1244  0 i
 88.95  28.7528  0 i
 89  26.2516  0 i
 89.05  37.6477  0 i
 89.1  23.1295  0 i
 89.15  24.9438  0 i
 89.2  29.9822  0 i
 89.25  38.2015  0 i
 89.3  31.1502  0 i
 89.35  28.6063  0 i
 89.4  33.1507  0 i
 89.45  36.0594  0 i
 89.5  27.6511  0 i
 89.55  31.26  0 i
 89.6  22.9549  0 i
 89.65  31.4735  0 i
 89.7  30.5164  0 i
 89.75  25.5787  0 i
 89.8  29.0597  0 i
 89.85  36.6882  0 i
 89.9  29.3532  0 i
 89.95  26.1162  0 i
 90  35.1735  0 i
 90.05  22.4563  0 i
 90.1  26.2172  0 i
 90.15  30.7811  0 i
 90.2  38.8287  0 i
 90.25  39.2114  0 i
 90.3  30.5883  0 i
 90.35  38.4614  0 i
 90.4  40.5433  0 i
 90.45  21.246  0 i
 90.5  31.4595  0 i
 90.55  24.7972  0 i
 90.6  28.3887  0 i
 90.65  28.8861  0 i
 90.7  36.4638  0 i
 90.75  46.9908  0 i
 90.8  34.3532  0 i
 90.85  25.0283  0 i
 90.9  35.1787  0 i
 90.95  37.1634  0 i
 91  42.9853  0 i
 91.05  26.712  0 i
 91.1  29.7971  0 i
 91.15  22.2583  0 i
 91.2  28.123  0 i
 91.25  26.5517  0 i
 91.3  41.9766  0 i
 91.35  30.7671  0 i
 91.4  27.7386  0 i
 91.45  37.9098  0 i
 91.5  32.1999  0 i
 91.55  27.6834  0 i
 91.6  38.119  0 i
 91.65  38.788  0 i
 91.7  37.4288  0 i
 91.75  28.2599  0 i
 91.8  39.0986  0 i
 91.85  42.4288  0 i
 91.9  27.1339  0 i
 91.95  36.2528  0 i
 92  28.6638  0 i
 92.05  39.4083  0 i
 92.1  27.4833  0 i
 92.15  25.2016  0 i
 92.2  30.5189  0 i
 92.25  34.9624  0 i
 92.3  28.1221  0 i
 92.35  30.2309  0 i
 92.4  34.4945  0 i
 92.45  23.0621  0 i
 92.5  24.2217  0 i
 92.55  43.4128  0 i
 92.6  27.9958  0 i
 92.65  30.1152  0 i
 92.7  37.5132  0 i
 92.75  23.6905  0 i
 92.8  31.3626  0 i
 92.85  20.9743  0 i
 92.9  25.7292  0 i
 92.95  29.4978  0 i
 93  31.3367  0 i
 93.05  32.9471  0 i
 93.1  23.5595  0 i
 93.15  18.5867  0 i
 93.2  38.0673  0 i
 93.25  31.0492  0 i
 93.3  30.1949  0 i
 93.35  23.0545  0 i
 93.4  30.4946  0 i
 93.45  29.1439  0 i
 93.5  30.0829  0 i
 93.55  26.3981  0 i
 93.6  27.9315  0 i
 93.65  32.7358  0 i
 93.7  29.3398  0 i
 93.75  29.9232  0 i
 93.8  31.9859  0 i
 93.85  32.0562  0 i
 93.9  24.4935  0 i
 93.95  32.8807  0 i
 94  34.7392  0 i
 94.05  31.0536  0 i
 94.1  27.8087  0 i
 94.15  28.6445  0 i
 94.2  26.2543  0 i
 94.25  38.917  0 i
 94.3  46.0857  0 i
 94.35  35.776  0 i
 94.4  21.1506  0 i
 94.45  18.8681  0 i
 94.5  18.0405  0 i
 94.55  32.4272  0 i
 94.6  33.0104  0 i
 94.65  33.991  0 i
 94.7  29.1972  0 i
 94.75  39.2903  0 i
 94.8  36.1336  0 i
 94.85  26.1145  0 i
 94.9  28.583  0 i
 94.95  36.6932  0 i
 95  35.3227  0 i
 95.05  29.8557  0 i
 95.1  27.9539  0 i
 95.15  36.879  0 i
 95.2  27.738  0 i
 95.25  26.8462  0 i
 95.3  35.7982  0 i
 95.35  29.7332  0 i
 95.4  36.2222  0 i
 95.45  22.222  0 i
 95.5  31.3727  0 i
 95.55  30.2283  0 i
 95.6  32.0902  0 i
 95.65  31.2712  0 i
 95.7  32.7812  0 i
 95.75  33.532  0 i
 95.8  35.1155  0 i
 95.85  37.7559  0 i
 95.9  30.729  0 i
 95.95  28.5017  0 i
 96  28.2786  0 i
 96.05  34.564  0 i
 96.1  28.8112  0 i
 96.15  30.4513  0 i
 96.2  35.1361  0 i
 96.25  27.6435  0 i
 96.3  27.3717  0 i
 96.35  28.8061  0 i
 96.4  32.1617  0 i
 96.45  30.0242  0 i
 96.5  24.8382  0 i
 96.55  25.8014  0 i
 96.6  36.9684  0 i
 96.65  36.2643  0 i
 96.7  25.9211  0 i
 96.75  29.5454  0 i
 96.8  27.7418  0 i
 96.85  28.8052  0 i
 96.9  30.3554  0 i
 96.95  33.4434  0 i
 97  23.5368  0 i
 97.05  40.2206  0 i
 97.1  22.3553  0 i
 97.15  34.7084  0 i
 97.2  36.3534  0 i
 97.25  20.7935  0 i
 97.3  31.4347  0 i
 97.35  35.9721  0 i
 97.4  37.0578  0 i
 97.45  32.1824  0 i
 97.5  34.6408  0 i
 97.55  35.2696  0 i
 97.6  21.8595  0 i
 97.65  20.7849  0 i
 97.7  37.5308  0 i
 97.75  34.0909  0 i
 97.8  37.1153  0 i
 97.85  26.463  0 i
 97.9  31.1264  0 i
 97.95  33.4568  0 i
 98  31.2148  0 i
 98.05  33.4219  0 i
 98.1  31.7594  0 i
 98.15  39.9921  0 i
 98.2  43.3218  0 i
 98.25  37.2998  0 i
 98.3  44.9926  0 i
 98.35  55.5364  0 i
 98.4  67.3578  0 i
 98.45  102.172  0 i
 98.5  151.864  0 i
 98.55  163.693  0 i
 98.6  143.021  0 i
 98.65  105.885  0 i
 98.7  62.0254  0 i
 98.75  65.9613  0 i
 98.8  49.2883  0 i
 98.85  35.997  0 i
 98.9  36.7168  0 i
 98.95  32.5535  0 i
 99  28.9492  0 i
 99.05  25.6838  0 i
 99.1  38.101  0 i
 99.15  33.5982  0 i
 99.2  29.3902  0 i
 99.25  39.4224  0 i
 99.3  24.5851  0 i
 99.35  30.9208  0 i
 99.4  24.1312  0 i
 99.45  32.5639  0 i
 99.5  32.3641  0 i
 99.55  33.3254  0 i
 99.6  45.2906  0 i
 99.65  33.9667  0 i
 99.7  30.7789  0 i
 99.75  27.0558  0 i
 99.8  32.4789  0 i
 99.85  27.0008  0 i
 99.9  34.7147  0 i
 99.95  30.697  0 i
 100  27.9409  0 i
 100.05  30.1727  0 i
 100.1  27.316  0 i
 100.15  34.6487  0 i
 100.2  27.043  0 i
 100.25  26.0058  0 i
 100.3  31.6132  0 i
 100.35  25.7331  0 i
 100.4  24.1562  0 i
 100.45  34.1046  0 i
 100.5  39.8483  0 i
 100.55  32.2886  0 i
 100.6  38.6097  0 i
 100.65  30.0681  0 i
 100.7  29.6679  0 i
 100.75  29.9641  0 i
 100.8  29.5118  0 i
 100.85  28.2992  0 i
 100.9  29.1754  0 i
 100.95  30.0813  0 i
 101  42.7995  0 i
 101.05  22.4489  0 i
 101.1  26.3992  0 i
 101.15  34.4063  0 i
 101.2  35.3585  0 i
 101.25  23.0929  0 i
 101.3  24.8524  0 i
 101.35  23.5609  0 i
 101.4  24.9259  0 i
 101.45  27.6952  0 i
 101.5  29.9254  0 i
 101.55  19.7347  0 i
 101.6  29.9389  0 i
 101.65  36.1715  0 i
 101.7  27.8193  0 i
 101.75  21.8405  0 i
 101.8  28.4135  0 i
 101.85  22.6499  0 i
 101.9  30.5504  0 i
 101.95  33.5841  0 i
 102  29.7256  0 i
 102.05  28.2514  0 i
 102.1  25.5094  0 i
 102.15  28.6995  0 i
 102.2  37.2157  0 i
 102.25  20.2101  0 i
 102.3  38.73  0 i
 102.35  32.604  0 i
 102.4  26.8012  0 i
 102.45  29.3109  0 i
 102.5  23.5397  0 i
 102.55  25.7663  0 i
 102.6  31.8276  0 i
 102.65  37.7608  0 i
 102.7  39.6718  0 i
 102.75  40.2717  0 i
 102.8  31.5115  0 i
 102.85  36.7443  0 i
 102.9  34.2862  0 i
 102.95  35.4137  0 i
 103  28.8883  0 i
 103.05  30.7449  0 i
 103.1  36.8027  0 i
 103.15  32.9019  0 i
 103.2  19.9479  0 i
 103.25  37.1858  0 i
 103.3  25.1846  0 i
 103.35  20.8664  0 i
 103.4  27.534  0 i
 103.45  28.2945  0 i
 103.5  25.7351  0 i
 103.55  30.2345  0 i
 103.6  26.4943  0 i
 103.65  34.489  0 i
 103.7  29.8285  0 i
 103.75  22.7781  0 i
 103.8  27.656  0 i
 103.85  23.4424  0 i
 103.9  33.9911  0 i
 103.95  34.3235  0 i
 104  25.7712  0 i
 104.05  43.7848  0 i
 104.1  37.7337  0 i
 104.15  25.2456  0 i
 104.2  31.056  0 i
 104.25  29.1304  0 i
 104.3  24.2773  0 i
 104.35  38.3779  0 i
 104.4  31.0435  0 i
 104.45  30.7551  0 i
 104.5  37.1483  0 i
 104.55  35.1214  0 i
 104.6  38.9018  0 i
 104.65  28.8443  0 i
 104.7  33.5731  0 i
 104.75  30.2485  0 i
 104.8  23.7627  0 i
 104.85  30.8468  0 i
 104.9  43.8664  0 i
 104.95  31.3932  0 i
 105  27.7055  0 i
 105.05  27.0313  0 i
 105.1  23.9148  0 i
 105.15  41.8305  0 i
 105.2  31.7189  0 i
 105.25  26.3389  0 i
 105.3  20.9436  0 i
 105.35  34.6965  0 i
 105.4  24.9495  0 i
 105.45  35.0513  0 i
 105.5  25.7798  0 i
 105.55  33.0416  0 i
 105.6  42.2067  0 i
 105.65  32.4433  0 i
 105.7  33.1142  0 i
 105.75  46.9249  0 i
 105.8  26.9564  0 i
 105.85  34.8719  0 i
 105.9  33.7185  0 i
 105.95  30.4755  0 i
 106  29.4573  0 i
 106.05  35.9206  0 i
 106.1  31.2302  0 i
 106.15  32.2895  0 i
 106.2  29.5266  0 i
 106.25  14.002  0 i
 106.3  30.5119  0 i
 106.35  24.4003  0 i
 106.4  25.8255  0 i
 106.45  30.4985  0 i
 106.5  33.264  0 i
 106.55  33.6951  0 i
 106.6  28.2962  0 i
 106.65  25.5274  0 i
 106.7  23.4527  0 i
 106.75  26.1011  0 i
 106.8  25.6611  0 i
 106.85  22.6395  0 i
 106.9  25.7255  0 i
 106.95  27.5376  0 i
 107  25.9753  0 i
 107.05  39.7878  0 i
 107.1  44.0869  0 i
 107.15  39.4599  0 i
 107.2  39.0217  0 i
 107.25  25.9192  0 i
 107.3  32.2557  0 i
 107.35  25.0995  0 i
 107.4  32.0149  0 i
 107.45  30.1642  0 i
 107.5  33.3585  0 i
 107.55  35.8757  0 i
 107.6  30.105  0 i
 107.65  26.407  0 i
 107.7  24.6587  0 i
 107.75  33.3441  0 i
 107.8  28.0042  0 i
 107.85  34.4892  0 i
 107.9  29.4093  0 i
 107.95  24.2592  0 i
 108  27.9802  0 i
 108.05  24.4377  0 i
 108.1  28.9405  0 i
 108.15  33.6413  0 i
 108.2  36.0413  0 i
 108.25  40.8219  0 i
 108.3  35.3841  0 i
 108.35  27.9675  0 i
 108.4  27.2818  0 i
 108.45  22.3833  0 i
 108.5  27.6122  0 i
 108.55  29.5164  0 i
 108.6  34.9221  0 i
 108.65  33.3846  0 i
 108.7  34.1182  0 i
 108.75  27.203  0 i
 108.8  31.1554  0 i
 108.85  32.478  0 i
 108.9  28.7743  0 i
 108.95  29.3606  0 i
 109  41.8866  0 i
 109.05  30.5138  0 i
 109.1  37.1028  0 i
 109.15  37.747  0 i
 109.2  42.238  0 i
 109.25  24.0484  0 i
 109.3  22.8403  0 i
 109.35  28.9878  0 i
 109.4  27.2903  0 i
 109.45  30.2227  0 i
 109.5  34.3493  0 i
 109.55  35.1609  0 i
 109.6  25.0197  0 i
 109.65  25.025  0 i
 109.7  32.0885  0 i
 109.75  29.9072  0 i
 109.8  28.1489  0 i
 109.85  34.3687  0 i
 109.9  31.5298  0 i
 109.95  28.3528  0 i
 110  21.9496  0 i
 110.05  26.5652  0 i
 110.1  26.997  0 i
 110.15  28.8901  0 i
 110.2  27.0221  0 i
 110.25  28.7549  0 i
 110.3  31.9205  0 i
 110.35  31.5057  0 i
 110.4  32.9858  0 i
 110.45  40.6571  0 i
 110.5  16.9112  0 i
 110.55  17.6086  0 i
 110.6  31.012  0 i
 110.65  23.9508  0 i
 110.7  27.3947  0 i
 110.75  38.3844  0 i
 110.8  30.6847  0 i
 110.85  44.4236  0 i
 110.9  31.5497  0 i
 110.95  25.2899  0 i
 111  27.8982  0 i
 111.05  24.2957  0 i
 111.1  29.1419  0 i
 111.15  33.0621  0 i
 111.2  34.7069  0 i
 111.25  28.3535  0 i
 111.3  26.1051  0 i
 111.35  26.3866  0 i
 111.4  21.9459  0 i
 111.45  32.5023  0 i
 111.5  31.3567  0 i
 111.55  26.5486  0 i
 111.6  31.566  0 i
 111.65  26.1993  0 i
 111.7  28.6155  0 i
 111.75  22.5424  0 i
 111.8  27.5247  0 i
 111.85  28.5048  0 i
 111.9  28.3805  0 i
 111.95  29.9642  0 i
 112  35.2987  0 i
 112.05  36.8859  0 i
 112.1  34.7845  0 i
 112.15  33.6029  0 i
 112.2  38.4309  0 i
 112.25  32.8574  0 i
 112.3  32.8111  0 i
 112.35  48.3896  0 i
 112.4  40.6691  0 i
 112.45  33.609  0 i
 112.5  31.9602  0 i
 112.55  34.3968  0 i
 112.6  20.1744  0 i
 112.65  20.4042  0 i
 112.7  28.0759  0 i
 112.75  38.4529  0 i
 112.8  26.6076  0 i
 112.85  27.8783  0 i
 112.9  33.1338  0 i
 112.95  40.3802  0 i
 113  37.3321  0 i
 113.05  31.9976  0 i
 113.1  39.7767  0 i
 113.15  31.0499  0 i
 113.2  34.8127  0 i
 113.25  31.8473  0 i
 113.3  27.5599  0 i
 113.35  26.3902  0 i
 113.4  31.7006  0 i
 113.45  28.233  0 i
 113.5  26.2638  0 i
 113.55  26.2279  0 i
 113.6  26.0654  0 i
 113.65  35.0907  0 i
 113.7  31.5981  0 i
 113.75  24.3741  0 i
 113.8  21.8448  0 i
 113.85  36.827  0 i
 113.9  31.6454  0 i
 113.95  26.8158  0 i
 114  28.4466  0 i
 114.05  19.0416  0 i
 114.1  25.5556  0 i
 114.15  42.6804  0 i
 114.2  35.7364  0 i
 114.25  29.5409  0 i
 114.3  30.8724  0 i
 114.35  24.2692  0 i
 114.4  20.3495  0 i
 114.45  27.7558  0 i
 114.5  21.547  0 i
 114.55  25.6268  0 i
 114.6  29.8898  0 i
 114.65  36.9188  0 i
 114.7  32.2065  0 i
 114.75  25.1055  0 i
 114.8  25.1967  0 i
 114.85  23.3349  0 i
 114.9  21.1665  0 i
 114.95  22.1173  0 i
 115  21.1587  0 i
 115.05  31.3595  0 i
 115.1  32.9083  0 i
 115.15  43.185  0 i
 115.2  39.5827  0 i
 115.25  34.7095  0 i
 115.3  36.6795  0 i
 115.35  39.06  0 i
 115.4  43.0109  0 i
 115.45  47.6846  0 i
 115.5  40.9262  0 i
 115.55  58.2577  0 i
 115.6  46.6476  0 i
 115.65  55.2549  0 i
 115.7  46.8555  0 i
 115.75  83.5025  0 i
 115.8  69.1675  0 i
 115.85  79.8973  0 i
 115.9  117.034  0 i
 115.95  98.9558  0 i
 116  93.3222  0 i
 116.05  80.1506  0 i
 116.1  69.2789  0 i
 116.15  57.7746  0 i
 116.2  61.3332  0 i
 116.25  52.17  0 i
 116.3  39.5521  0 i
 116.35  43.5833  0 i
 116.4  51.7001  0 i
 116.45  38.4125  0 i
 116.5  37.6797  0 i
 116.55  41.845  0 i
 116.6  38.4967  0 i
 116.65  37.4766  0 i
 116.7  31.8607  0 i
 116.75  30.1766  0 i
 116.8  38.3202  0 i
 116.85  35.3546  0 i
 116.9  26.737  0 i
 116.95  29.8916  0 i
 117  36.6633  0 i
 117.05  32.4656  0 i
 117.1  37.7589  0 i
 117.15  24.6912  0 i
 117.2  36.5561  0 i
 117.25  20.3428  0 i
 117.3  23.1461  0 i
 117.35  32.1131  0 i
 117.4  35.4458  0 i
 117.45  29.3174  0 i
 117.5  30.3843  0 i
 117.55  30.2272  0 i
 117.6  35.3542  0 i
 117.65  35.5531  0 i
 117.7  41.0809  0 i
 117.75  42.755  0 i
 117.8  29.3441  0 i
 117.85  38.5852  0 i
 117.9  20.6336  0 i
 117.95  30.421  0 i
 118  32.4956  0 i
 118.05  33.74  0 i
 118.1  29.1724  0 i
 118.15  36.9519  0 i
 118.2  29.6947  0 i
 118.25  31.0555  0 i
 118.3  30.4294  0 i
 118.35  38.8995  0 i
 118.4  28.5691  0 i
 118.45  32.8025  0 i
 118.5  39.3235  0 i
 118.55  35.5679  0 i
 118.6  27.9307  0 i
 118.65  24.1449  0 i
 118.7  30.9474  0 i
 118.75  38.6681  0 i
 118.8  30.2867  0 i
 118.85  38.946  0 i
 118.9  20.4565  0 i
 118.95  29.5749  0 i
 119  32.8319  0 i
 119.05  37.3466  0 i
 119.1  36.2494  0 i
 119.15  43.3378  0 i
 119.2  22.3792  0 i
 119.25  24.7709  0 i
 119.3  27.5376  0 i
 119.35  29.1003  0 i
 119.4  30.7528  0 i
 119.45  25.6708  0 i
 119.5  35.7158  0 i
 119.55  33.939  0 i
 119.6  31.7379  0 i
 119.65  37.7749  0 i
 119.7  47.9296  0 i
 119.75  31.2186  0 i
 119.8  27.6738  0 i
 119.85  22.3256  0 i
 119.9  32.2615  0 i
 119.95  36.1627  0 i
 120  26.5202  0 i
 120.05  37.7664  0 i
 120.1  33.832  0 i
 120.15  31.3621  0 i
 120.2  31.4771  0 i
 120.25  32.265  0 i
 120.3  25.9127  0 i
 120.35  38.3594  0 i
 120.4  29.5656  0 i
 120.45  38.5007  0 i
 120.5  36.2558  0 i
 120.55  25.5981  0 i
 120.6  45.4585  0 i
 120.65  41.6108  0 i
 120.7  33.6929  0 i
 120.75  41.2197  0 i
 120.8  24.986  0 i
 120.85  36.937  0 i
 120.9  35.3281  0 i
 120.95  22.139  0 i
 121  27.8123  0 i
 121.05  27.956  0 i
 121.1  28.4522  0 i
 121.15  27.6161  0 i
 121.2  39.9574  0 i
 121.25  30.0823  0 i
 121.3  28.0492  0 i
 121.35  24.3049  0 i
 121.4  35.9292  0 i
 121.45  35.9316  0 i
 121.5  39.0734  0 i
 121.55  39.5913  0 i
 121.6  33.7962  0 i
 121.65  29.6988  0 i
 121.7  27.1654  0 i
 121.75  21.1501  0 i
 121.8  33.0311  0 i
 121.85  42.051  0 i
 121.9  35.706  0 i
 121.95  32.8276  0 i
 122  34.0871  0 i
 122.05  34.9139  0 i
 122.1  23.2411  0 i
 122.15  28.418  0 i
 122.2  24.1054  0 i
 122.25  35.6989  0 i
 122.3  38.3119  0 i
 122.35  29.418  0 i
 122.4  26.9669  0 i
 122.45  30.872  0 i
 122.5  31.3278  0 i
 122.55  30.1797  0 i
 122.6  26.9402  0 i
 122.65  27.5787  0 i
 122.7  32.2302  0 i
 122.75  23.4184  0 i
 122.8  29.5328  0 i
 122.85  28.7606  0 i
 122.9  26.6596  0 i
 122.95  26.2703  0 i
 123  26.7723  0 i
 123.05  24.019  0 i
 123.1  28.5986  0 i
 123.15  44.717  0 i
 123.2  23.0709  0 i
 123.25  31.6117  0 i
 123.3  31.3597  0 i
 123.35  34.5269  0 i
 123.4  37.0393  0 i
 123.45  27.7133  0 i
 123.5  35.0967  0 i
 123.55  33.1208  0 i
 123.6  21.9962  0 i
 123.65  39.1145  0 i
 123.7  32.2903  0 i
 123.75  27.435  0 i
 123.8  33.3293  0 i
 123.85  32.6736  0 i
 123.9  24.2359  0 i
 123.95  39.5701  0 i
 124  28.8487  0 i
 124.05  23.7369  0 i
 124.1  33.597  0 i
 124.15  37.4252  0 i
 124.2  27.6666  0 i
 124.25  18.6277  0 i
 124.3  30.4747  0 i
 124.35  27.2415  0 i
 124.4  33.1119  0 i
 124.45  35.1595  0 i
 124.5  24.422  0 i
 124.55  37.5639  0 i
 124.6  24.8107  0 i
 124.65  27.9634  0 i
 124.7  35.6968  0 i
 124.75  30.4576  0 i
 124.8  29.1789  0 i
 124.85  21.858  0 i
 124.9  29.717  0 i
 124.95  41.4658  0 i
 125  21.7917  0 i
 125.05  32.9796  0 i
 125.1  29.0334  0 i
 125.15  32.8368  0 i
 125.2  22.8684  0 i
 125.25  33.1356  0 i
 125.3  35.4495  0 i
 125.35  31.0479  0 i
 125.4  33.5321  0 i
 125.45  22.6934  0 i
 125.5  31.7122  0 i
 125.55  23.0365  0 i
 125.6  20.9469  0 i
 125.65  36.9539  0 i
 125.7  28.5874  0 i
 125.75  29.35  0 i
 125.8  17.4247  0 i
 125.85  37.345  0 i
 125.9  29.0468  0 i
 125.95  26.4054  0 i
 126  24.5171  0 i
 126.05  38.8405  0 i
 126.1  32.2268  0 i
 126.15  24.4341  0 i
 126.2  29.1666  0 i
 126.25  29.9116  0 i
 126.3  40.3538  0 i
 126.35  27.3436  0 i
 126.4  31.0107  0 i
 126.45  27.8205  0 i
 126.5  36.9712  0 i
 126.55  28.5025  0 i
 126.6  39.3009  0 i
 126.65  28.6861  0 i
 126.7  30.6989  0 i
 126.75  35.4683  0 i
 126.8  39.4043  0 i
 126.85  36.2493  0 i
 126.9  31.0075  0 i
 126.95  24.4893  0 i
 127  24.1293  0 i
 127.05  33.4084  0 i
 127.1  34.6553  0 i
 127.15  25.1475  0 i
 127.2  37.9184  0 i
 127.25  27.2572  0 i
 127.3  32.4697  0 i
 127.35  35.6902  0 i
 127.4  36.0336  0 i
 127.45  31.7124  0 i
 127.5  29.5802  0 i
 127.55  33.8659  0 i
 127.6  29.9838  0 i
 127.65  32.9939  0 i
 127.7  37.9084  0 i
 127.75  33.232  0 i
 127.8  18.8438  0 i
 127.85  32.84  0 i
 127.9  27.237  0 i
 127.95  17.7755  0 i
 128  28.0709  0 i
 128.05  33.9445  0 i
 128.1  26.0723  0 i
 128.15  40.8166  0 i
 128.2  28.4591  0 i
 128.25  31.4129  0 i
 128.3  22.1663  0 i
 128.35  25.622  0 i
 128.4  24.1916  0 i
 128.45  19.442  0 i
 128.5  19.6385  0 i
 128.55  29.5415  0 i
 128.6  35.0256  0 i
 128.65  22.0903  0 i
 128.7  39.9171  0 i
 128.75  28.0067  0 i
 128.8  21.1703  0 i
 128.85  29.7977  0 i
 128.9  27.238  0 i
 128.95  28.6927  0 i
 129  27.2265  0 i
 129.05  35.4478  0 i
 129.1  23.4443  0 i
 129.15  29.7706  0 i
 129.2  25.8955  0 i
 129.25  19.1164  0 i
 129.3  32.4575  0 i
 129.35  37.2054  0 i
 129.4  33.6104  0 i
 129.45  37.592  0 i
 129.5  30.762  0 i
 129.55  32.3712  0 i
 129.6  31.0983  0 i
 129.65  24.8573  0 i
 129.7  28.198  0 i
 129.75  23.7961  0 i
 129.8  31.7763  0 i
 129.85  28.3035  0 i
 129.9  31.9681  0 i
 129.95  25.2821  0 i
 130  35.396  0 i

