40.0000 50.7235
40.0500 35.7195
40.1000 36.6107
40.1500 42.9065
40.2000 51.4472
40.2500 39.2176
40.3000 29.9567
40.3500 40.7031
40.4000 46.8372
40.4500 38.9941
40.5000 41.7132
40.5500 51.1196
40.6000 48.5026
40.6500 29.3652
40.7000 50.7736
40.7500 31.2875
40.8000 38.2531
40.8500 41.3348
40.9000 36.5867
40.9500 41.2502
41.0000 35.8815
41.0500 28.4532
41.1000 48.5037
41.1500 40.5417
41.2000 38.3916
41.2500 40.8609
41.3000 47.1289
41.3500 40.3064
41.4000 36.4040
41.4500 37.3068
41.5000 48.1195
41.5500 53.3234
41.6000 40.6202
41.6500 42.7608
41.7000 38.8621
41.7500 38.1100
41.8000 32.7515
41.8500 41.5264
41.9000 42.4114
41.9500 41.7303
42.0000 28.4715
42.0500 29.3696
42.1000 51.7648
42.1500 35.2806
42.2000 41.5152
42.2500 46.9456
42.3000 38.5119
42.3500 30.5712
42.4000 40.2478
42.4500 37.3807
42.5000 54.6750
42.5500 30.4323
42.6000 40.2051
42.6500 47.8720
42.7000 34.4596
42.7500 52.9674
42.8000 26.5360
42.8500 41.3628
42.9000 45.8549
42.9500 35.5840
43.0000 28.5170
43.0500 36.2768
43.1000 43.4313
43.1500 42.7020
43.2000 34.1289
43.2500 21.9082
43.3000 38.4487
43.3500 37.2306
43.4000 35.6685
43.4500 32.0462
43.5000 35.8189
43.5500 42.7836
43.6000 38.7263
43.6500 37.1543
43.7000 40.2948
43.7500 31.0009
43.8000 50.2734
43.8500 47.7775
43.9000 47.6713
43.9500 54.5193
44.0000 47.8606
44.0500 57.8365
44.1000 66.5900
44.1500 80.0948
44.2000 153.7130
44.2500 397.2432
44.3000 1177.8906
44.3500 2144.9773
44.4000 2153.2031
44.4500 1483.2572
44.5000 455.7122
44.5500 180.5862
44.6000 97.3006
44.6500 53.6389
44.7000 51.9447
44.7500 44.9185
44.8000 58.0337
44.8500 53.9055
44.9000 35.7089
44.9500 43.3616
45.0000 43.8763
45.0500 42.0378
45.1000 35.4250
45.1500 33.6855
45.2000 36.1929
45.2500 37.3962
45.3000 34.3311
45.3500 40.4343
45.4000 36.5236
45.4500 33.6632
45.5000 39.8882
45.5500 31.8967
45.6000 36.7583
45.6500 32.7971
45.7000 41.1595
45.7500 30.8159
45.8000 39.7391
45.8500 22.4957
45.9000 35.1374
45.9500 29.2703
46.0000 36.7122
46.0500 31.2945
46.1000 38.3935
46.1500 41.0473
46.2000 34.6532
46.2500 46.5974
46.3000 40.6423
46.3500 40.0324
46.4000 33.6587
46.4500 26.9195
46.5000 31.6513
46.5500 32.3161
46.6000 42.3375
46.6500 31.5939
46.7000 24.8587
46.7500 46.2350
46.8000 36.8945
46.8500 43.9272
46.9000 42.9045
46.9500 44.6086
47.0000 32.1098
47.0500 38.9720
47.1000 30.5589
47.1500 31.2657
47.2000 38.6354
47.2500 35.4585
47.3000 26.8478
47.3500 26.4418
47.4000 30.8504
47.4500 46.5424
47.5000 41.1079
47.5500 44.8682
47.6000 40.4389
47.6500 30.9730
47.7000 40.4736
47.7500 33.7535
47.8000 32.5171
47.8500 45.5850
47.9000 27.6175
47.9500 29.1723
48.0000 24.8622
48.0500 51.1698
48.1000 38.5575
48.1500 35.1808
48.2000 31.4937
48.2500 37.6298
48.3000 29.1737
48.3500 27.5326
48.4000 30.4545
48.4500 32.8442
48.5000 37.6318
48.5500 39.6253
48.6000 32.6178
48.6500 41.4623
48.7000 31.1592
48.7500 30.2723
48.8000 31.4736
48.8500 34.6223
48.9000 45.3742
48.9500 30.6036
49.0000 47.7892
49.0500 30.1691
49.1000 41.3882
49.1500 30.9548
49.2000 27.0189
49.2500 27.2574
49.3000 29.9994
49.3500 30.3127
49.4000 43.6651
49.4500 33.4760
49.5000 37.9200
49.5500 32.4155
49.6000 24.8726
49.6500 29.4255
49.7000 33.2900
49.7500 36.4682
49.8000 39.1728
49.8500 23.5228
49.9000 19.2086
49.9500 40.8822
50.0000 30.3188
50.0500 40.9449
50.1000 23.3757
50.1500 31.3989
50.2000 39.2526
50.2500 26.2480
50.3000 50.4649
50.3500 31.5996
50.4000 44.8345
50.4500 39.8039
50.5000 28.7671
50.5500 43.0851
50.6000 31.9720
50.6500 35.1683
50.7000 34.7507
50.7500 30.5096
50.8000 39.7421
50.8500 35.7845
50.9000 32.1673
50.9500 28.9499
51.0000 37.2462
51.0500 33.6658
51.1000 44.3443
51.1500 23.7639
51.2000 32.7894
51.2500 33.5352
51.3000 35.9474
51.3500 32.0828
51.4000 43.0781
51.4500 25.6985
51.5000 32.4070
51.5500 35.7371
51.6000 39.0023
51.6500 31.2909
51.7000 25.9223
51.7500 47.1821
51.8000 37.9218
51.8500 38.2968
51.9000 28.8898
51.9500 32.7013
52.0000 40.1023
52.0500 36.1397
52.1000 40.3245
52.1500 32.8784
52.2000 34.5780
52.2500 42.7660
52.3000 31.0970
52.3500 33.2841
52.4000 41.7871
52.4500 24.3598
52.5000 17.5641
52.5500 33.4531
52.6000 30.4814
52.6500 30.1743
52.7000 40.2151
52.7500 31.0334
52.8000 29.8282
52.8500 44.2658
52.9000 41.0196
52.9500 24.1301
53.0000 29.5207
53.0500 27.4621
53.1000 36.2064
53.1500 26.9629
53.2000 27.5241
53.2500 30.5396
53.3000 34.4888
53.3500 29.8324
53.4000 31.1939
53.4500 39.0342
53.5000 32.4382
53.5500 20.4983
53.6000 37.5927
53.6500 38.4100
53.7000 31.9299
53.7500 30.4187
53.8000 35.8827
53.8500 29.2013
53.9000 31.7742
53.9500 39.5422
54.0000 25.3528
54.0500 35.4469
54.1000 28.8606
54.1500 28.2268
54.2000 33.2323
54.2500 28.0274
54.3000 36.9586
54.3500 33.0161
54.4000 30.7936
54.4500 37.1658
54.5000 38.5995
54.5500 35.5749
54.6000 43.3774
54.6500 41.5415
54.7000 21.3748
54.7500 30.3301
54.8000 35.6120
54.8500 24.2053
54.9000 34.5942
54.9500 31.6572
55.0000 42.2791
55.0500 29.0922
55.1000 36.5517
55.1500 27.3821
55.2000 28.6154
55.2500 29.2622
55.3000 28.0316
55.3500 24.4768
55.4000 41.4162
55.4500 28.7629
55.5000 28.7527
55.5500 36.1811
55.6000 41.8162
55.6500 39.2394
55.7000 28.5620
55.7500 34.2761
55.8000 25.6836
55.8500 35.8670
55.9000 32.7848
55.9500 16.6079
56.0000 35.7767
56.0500 27.8847
56.1000 23.9967
56.1500 37.5073
56.2000 32.0570
56.2500 33.8127
56.3000 30.1121
56.3500 37.4665
56.4000 47.4900
56.4500 31.1174
56.5000 25.6725
56.5500 29.5011
56.6000 32.9871
56.6500 30.0006
56.7000 33.4723
56.7500 33.0475
56.8000 26.6109
56.8500 32.4920
56.9000 24.1929
56.9500 29.2602
57.0000 36.0186
57.0500 28.4605
57.1000 41.4072
57.1500 39.0304
57.2000 32.5231
57.2500 40.8966
57.3000 27.0518
57.3500 36.1245
57.4000 32.6263
57.4500 31.5762
57.5000 38.9785
57.5500 32.9864
57.6000 32.7366
57.6500 34.0280
57.7000 34.0935
57.7500 38.0879
57.8000 29.3439
57.8500 34.1753
57.9000 25.1099
57.9500 38.2936
58.0000 33.1379
58.0500 32.2920
58.1000 35.3274
58.1500 31.1708
58.2000 29.4875
58.2500 31.9988
58.3000 29.5410
58.3500 30.9733
58.4000 32.7420
58.4500 28.8589
58.5000 34.2887
58.5500 37.1103
58.6000 34.5396
58.6500 38.3738
58.7000 30.9070
58.7500 34.1753
58.8000 39.5301
58.8500 32.8976
58.9000 20.3952
58.9500 32.8190
59.0000 33.6804
59.0500 26.2686
59.1000 31.6296
59.1500 36.3233
59.2000 40.3435
59.2500 31.2076
59.3000 31.1124
59.3500 35.9336
59.4000 23.3084
59.4500 33.0174
59.5000 25.0874
59.5500 30.5775
59.6000 39.4499
59.6500 33.1308
59.7000 27.7434
59.7500 32.7967
59.8000 32.5809
59.8500 27.9034
59.9000 41.9148
59.9500 33.4958
60.0000 25.8724
60.0500 40.1532
60.1000 34.1279
60.1500 27.5528
60.2000 25.4639
60.2500 36.7966
60.3000 19.5533
60.3500 17.5556
60.4000 40.3863
60.4500 30.2177
60.5000 32.4584
60.5500 21.5544
60.6000 31.0363
60.6500 28.9096
60.7000 29.2374
60.7500 33.4665
60.8000 33.7464
60.8500 22.5188
60.9000 36.7225
60.9500 36.4678
61.0000 28.7830
61.0500 26.6979
61.1000 31.5333
61.1500 31.8937
61.2000 33.6607
61.2500 23.4027
61.3000 37.7696
61.3500 32.9482
61.4000 31.1716
61.4500 32.6990
61.5000 28.2110
61.5500 34.2505
61.6000 30.6664
61.6500 34.1475
61.7000 26.2024
61.7500 35.2023
61.8000 35.9451
61.8500 37.2428
61.9000 28.2426
61.9500 27.6337
62.0000 38.7783
62.0500 27.5836
62.1000 26.3596
62.1500 27.7781
62.2000 21.7069
62.2500 31.9690
62.3000 36.1543
62.3500 33.6645
62.4000 30.1181
62.4500 35.2111
62.5000 30.2056
62.5500 23.5109
62.6000 28.2633
62.6500 34.3096
62.7000 36.1583
62.7500 32.5645
62.8000 29.1444
62.8500 26.8752
62.9000 38.6065
62.9500 50.4541
63.0000 35.0239
63.0500 32.1654
63.1000 27.9370
63.1500 30.6127
63.2000 26.3697
63.2500 28.0664
63.3000 25.7904
63.3500 30.2116
63.4000 27.0687
63.4500 30.1940
63.5000 30.6510
63.5500 22.5178
63.6000 32.4508
63.6500 31.1560
63.7000 31.1307
63.7500 39.1001
63.8000 38.7128
63.8500 39.1677
63.9000 32.2242
63.9500 33.7547
64.0000 34.7141
64.0500 28.6315
64.1000 31.7203
64.1500 26.9011
64.2000 32.5060
64.2500 39.7914
64.3000 37.3945
64.3500 38.7741
64.4000 53.2173
64.4500 51.2772
64.5000 50.1539
64.5500 79.4052
64.6000 96.3876
64.6500 127.2173
64.7000 168.7279
64.7500 152.9341
64.8000 101.3050
64.8500 73.3293
64.9000 55.4854
64.9500 45.9311
65.0000 45.5515
65.0500 29.2714
65.1000 39.5897
65.1500 33.6103
65.2000 38.2783
65.2500 38.8238
65.3000 32.7066
65.3500 26.8738
65.4000 36.8482
65.4500 29.8403
65.5000 30.0638
65.5500 24.5047
65.6000 32.6642
65.6500 32.1126
65.7000 33.2294
65.7500 32.8024
65.8000 28.4533
65.8500 39.7630
65.9000 31.9762
65.9500 30.2249
66.0000 28.6592
66.0500 25.0138
66.1000 34.0748
66.1500 27.5760
66.2000 29.8576
66.2500 28.5340
66.3000 29.7049
66.3500 27.4478
66.4000 31.8205
66.4500 36.0481
66.5000 33.2414
66.5500 22.4500
66.6000 31.1052
66.6500 38.3237
66.7000 24.1134
66.7500 38.3520
66.8000 35.3151
66.8500 30.5933
66.9000 27.5640
66.9500 21.2787
67.0000 34.5742
67.0500 27.8477
67.1000 22.8795
67.1500 28.0836
67.2000 33.4622
67.2500 35.7285
67.3000 35.1134
67.3500 26.3669
67.4000 27.4633
67.4500 31.8090
67.5000 23.1234
67.5500 26.4473
67.6000 34.1666
67.6500 32.5273
67.7000 40.5214
67.7500 29.3940
67.8000 29.1730
67.8500 31.7949
67.9000 32.0011
67.9500 34.8868
68.0000 26.5753
68.0500 31.3641
68.1000 22.8798
68.1500 50.0788
68.2000 38.6237
68.2500 31.0624
68.3000 28.4785
68.3500 29.5017
68.4000 33.4673
68.4500 30.9656
68.5000 34.5699
68.5500 29.6573
68.6000 28.1566
68.6500 33.0476
68.7000 41.7836
68.7500 36.4017
68.8000 36.0094
68.8500 25.1443
68.9000 33.7141
68.9500 28.7253
69.0000 27.4325
69.0500 24.4929
69.1000 25.0319
69.1500 26.4814
69.2000 32.9031
69.2500 29.5387
69.3000 24.4013
69.3500 22.8418
69.4000 32.9282
69.4500 28.7423
69.5000 22.0931
69.5500 24.6217
69.6000 27.3142
69.6500 30.5191
69.7000 37.4517
69.7500 29.4547
69.8000 32.1406
69.8500 28.9570
69.9000 31.8697
69.9500 34.0611
70.0000 27.8928
70.0500 32.5299
70.1000 26.0272
70.1500 29.3684
70.2000 31.6462
70.2500 30.6805
70.3000 51.2856
70.3500 26.2114
70.4000 28.2729
70.4500 30.4981
70.5000 29.2562
70.5500 26.8003
70.6000 26.0262
70.6500 24.2183
70.7000 36.6395
70.7500 29.1932
70.8000 37.0335
70.8500 25.8095
70.9000 29.5807
70.9500 22.7791
71.0000 23.2820
71.0500 30.2598
71.1000 49.4120
71.1500 35.5380
71.2000 36.3842
71.2500 31.0976
71.3000 26.6844
71.3500 36.9310
71.4000 30.0349
71.4500 38.3060
71.5000 33.4494
71.5500 35.6328
71.6000 37.5048
71.6500 30.3577
71.7000 23.2875
71.7500 37.8476
71.8000 31.8011
71.8500 36.5782
71.9000 36.3322
71.9500 34.0258
72.0000 32.9925
72.0500 35.3241
72.1000 32.7650
72.1500 40.1017
72.2000 33.0599
72.2500 26.1385
72.3000 29.4600
72.3500 31.0294
72.4000 23.6847
72.4500 27.2303
72.5000 30.7826
72.5500 33.8573
72.6000 30.0968
72.6500 30.5658
72.7000 26.4950
72.7500 24.7451
72.8000 21.9999
72.8500 26.8803
72.9000 37.4351
72.9500 28.5220
73.0000 33.8021
73.0500 38.7167
73.1000 29.2510
73.1500 25.1455
73.2000 38.2000
73.2500 41.8650
73.3000 18.6606
73.3500 24.3515
73.4000 23.5070
73.4500 20.8249
73.5000 24.5962
73.5500 30.4508
73.6000 32.3039
73.6500 27.4785
73.7000 30.9359
73.7500 15.7750
73.8000 36.8152
73.8500 32.2402
73.9000 29.2433
73.9500 31.9737
74.0000 33.0427
74.0500 22.2045
74.1000 26.4934
74.1500 17.2339
74.2000 35.9340
74.2500 30.7588
74.3000 23.2515
74.3500 30.1596
74.4000 35.5712
74.4500 30.3572
74.5000 34.9055
74.5500 23.0298
74.6000 37.0166
74.6500 36.8700
74.7000 25.5598
74.7500 28.5422
74.8000 27.5686
74.8500 33.2841
74.9000 26.5428
74.9500 30.0922
75.0000 40.9629
75.0500 25.1007
75.1000 44.9889
75.1500 25.8037
75.2000 33.6339
75.2500 26.8233
75.3000 30.8819
75.3500 31.4646
75.4000 37.1758
75.4500 30.6738
75.5000 34.8474
75.5500 37.6794
75.6000 40.8462
75.6500 32.1471
75.7000 28.9746
75.7500 38.3071
75.8000 35.2267
75.8500 31.6027
75.9000 23.7148
75.9500 27.1784
76.0000 25.4101
76.0500 28.8736
76.1000 34.1530
76.1500 23.7066
76.2000 29.8850
76.2500 29.9605
76.3000 34.6728
76.3500 38.2133
76.4000 30.2561
76.4500 31.8147
76.5000 24.1679
76.5500 26.8062
76.6000 20.2848
76.6500 27.6787
76.7000 36.6604
76.7500 29.8308
76.8000 41.0750
76.8500 28.4492
76.9000 27.1107
76.9500 36.0638
77.0000 28.0513
77.0500 27.4544
77.1000 33.5477
77.1500 31.1979
77.2000 28.9195
77.2500 29.1684
77.3000 35.1596
77.3500 36.2369
77.4000 34.1521
77.4500 29.0384
77.5000 37.8016
77.5500 29.9808
77.6000 26.7339
77.6500 30.6662
77.7000 32.7165
77.7500 32.6407
77.8000 40.0778
77.8500 35.5954
77.9000 30.9597
77.9500 27.8380
78.0000 28.2089
78.0500 29.2552
78.1000 36.8708
78.1500 38.1620
78.2000 34.5385
78.2500 38.0983
78.3000 32.0574
78.3500 35.9545
78.4000 33.0050
78.4500 24.2292
78.5000 22.0850
78.5500 26.3548
78.6000 29.2479
78.6500 34.7111
78.7000 41.7506
78.7500 35.2951
78.8000 36.1866
78.8500 23.1955
78.9000 25.0901
78.9500 28.4483
79.0000 33.3762
79.0500 17.8447
79.1000 30.8879
79.1500 23.5672
79.2000 27.4329
79.2500 34.0129
79.3000 29.0821
79.3500 42.5390
79.4000 30.9751
79.4500 33.3507
79.5000 32.6984
79.5500 33.5952
79.6000 28.7101
79.6500 23.8903
79.7000 39.4976
79.7500 26.3753
79.8000 28.4604
79.8500 37.0939
79.9000 28.1653
79.9500 34.5919
80.0000 31.6499
80.0500 24.2973
80.1000 29.2719
80.1500 34.0157
80.2000 31.3777
80.2500 31.1594
80.3000 37.7390
80.3500 35.5585
80.4000 30.6371
80.4500 26.2365
80.5000 29.6310
80.5500 38.5924
80.6000 27.8314
80.6500 28.8642
80.7000 34.8483
80.7500 35.8851
80.8000 33.5820
80.8500 23.5122
80.9000 25.8810
80.9500 28.0724
81.0000 31.7481
81.0500 37.3772
81.1000 49.0677
81.1500 34.4621
81.2000 31.4048
81.2500 29.3896
81.3000 28.9380
81.3500 27.7820
81.4000 36.6830
81.4500 31.7167
81.5000 33.5589
81.5500 31.3797
81.6000 49.6569
81.6500 41.7179
81.7000 42.1430
81.7500 50.5658
81.8000 52.3002
81.8500 107.3722
81.9000 209.1047
81.9500 285.5984
82.0000 273.7322
82.0500 210.8207
82.1000 121.6794
82.1500 89.7000
82.2000 50.6680
82.2500 46.6262
82.3000 38.2966
82.3500 36.6795
82.4000 24.8339
82.4500 37.1166
82.5000 35.9087
82.5500 36.2737
82.6000 33.6366
82.6500 33.7863
82.7000 40.8523
82.7500 44.1695
82.8000 21.8668
82.8500 30.2626
82.9000 37.9268
82.9500 51.4838
83.0000 30.2163
83.0500 28.2011
83.1000 31.7879
83.1500 24.7895
83.2000 36.0913
83.2500 31.4001
83.3000 30.5208
83.3500 27.0533
83.4000 28.9024
83.4500 39.2231
83.5000 29.5326
83.5500 26.8656
83.6000 23.2981
83.6500 38.9409
83.7000 25.6975
83.7500 37.4429
83.8000 23.8781
83.8500 33.7950
83.9000 20.3023
83.9500 43.2002
84.0000 28.7702
84.0500 30.1220
84.1000 22.1678
84.1500 36.2407
84.2000 33.2218
84.2500 31.2976
84.3000 31.8118
84.3500 24.7119
84.4000 26.5009
84.4500 24.6589
84.5000 35.3704
84.5500 32.8269
84.6000 39.4331
84.6500 40.7871
84.7000 30.8404
84.7500 25.3891
84.8000 33.4066
84.8500 36.5388
84.9000 30.8480
84.9500 31.2444
85.0000 25.8117
85.0500 32.1597
85.1000 29.0891
85.1500 32.9724
85.2000 29.3232
85.2500 29.3088
85.3000 28.9372
85.3500 24.2212
85.4000 35.4989
85.4500 33.0062
85.5000 32.5483
85.5500 31.0007
85.6000 31.1916
85.6500 36.2677
85.7000 36.5983
85.7500 30.6455
85.8000 27.8458
85.8500 30.7376
85.9000 21.7883
85.9500 26.0216
86.0000 13.6393
86.0500 23.5721
86.1000 31.1026
86.1500 20.7616
86.2000 26.2600
86.2500 26.7379
86.3000 28.7643
86.3500 23.9792
86.4000 34.3482
86.4500 29.9989
86.5000 23.5245
86.5500 27.7558
86.6000 35.1386
86.6500 43.9673
86.7000 32.4964
86.7500 25.2879
86.8000 37.8222
86.8500 35.6664
86.9000 35.1967
86.9500 23.9923
87.0000 35.1153
87.0500 31.7390
87.1000 23.7632
87.1500 29.1361
87.2000 34.8229
87.2500 33.4016
87.3000 32.2080
87.3500 31.6216
87.4000 30.5367
87.4500 26.2025
87.5000 32.3644
87.5500 26.7608
87.6000 30.2502
87.6500 33.6526
87.7000 30.2737
87.7500 29.0760
87.8000 25.0333
87.8500 29.7984
87.9000 26.0089
87.9500 37.1640
88.0000 30.8662
88.0500 23.8623
88.1000 30.1303
88.1500 34.6148
88.2000 27.3788
88.2500 28.2470
88.3000 30.4358
88.3500 22.5035
88.4000 32.7634
88.4500 35.9433
88.5000 26.9405
88.5500 23.3686
88.6000 35.0825
88.6500 29.4857
88.7000 30.2682
88.7500 31.0666
88.8000 38.6597
88.8500 26.2678
88.9000 21.1244
88.9500 28.7528
89.0000 26.2516
89.0500 37.6477
89.1000 23.1295
89.1500 24.9438
89.2000 29.9822
89.2500 38.2015
89.3000 31.1502
89.3500 28.6063
89.4000 33.1507
89.4500 36.0594
89.5000 27.6511
89.5500 31.2600
89.6000 22.9549
89.6500 31.4735
89.7000 30.5164
89.7500 25.5787
89.8000 29.0597
89.8500 36.6882
89.9000 29.3532
89.9500 26.1162
90.0000 35.1735
90.0500 22.4563
90.1000 26.2172
90.1500 30.7811
90.2000 38.8287
90.2500 39.2114
90.3000 30.5883
90.3500 38.4614
90.4000 40.5433
90.4500 21.2460
90.5000 31.4595
90.5500 24.7972
90.6000 28.3887
90.6500 28.8861
90.7000 36.4638
90.7500 46.9908
90.8000 34.3532
90.8500 25.0283
90.9000 35.1787
90.9500 37.1634
91.0000 42.9853
91.0500 26.7120
91.1000 29.7971
91.1500 22.2583
91.2000 28.1230
91.2500 26.5517
91.3000 41.9766
91.3500 30.7671
91.4000 27.7386
91.4500 37.9098
91.5000 32.1999
91.5500 27.6834
91.6000 38.1190
91.6500 38.7880
91.7000 37.4288
91.7500 28.2599
91.8000 39.0986
91.8500 42.4288
91.9000 27.1339
91.9500 36.2528
92.0000 28.6638
92.0500 39.4083
92.1000 27.4833
92.1500 25.2016
92.2000 30.5189
92.2500 34.9624
92.3000 28.1221
92.3500 30.2309
92.4000 34.4945
92.4500 23.0621
92.5000 24.2217
92.5500 43.4128
92.6000 27.9958
92.6500 30.1152
92.7000 37.5132
92.7500 23.6905
92.8000 31.3626
92.8500 20.9743
92.9000 25.7292
92.9500 29.4978
93.0000 31.3367
93.0500 32.9471
93.1000 23.5595
93.1500 18.5867
93.2000 38.0673
93.2500 31.0492
93.3000 30.1949
93.3500 23.0545
93.4000 30.4946
93.4500 29.1439
93.5000 30.0829
93.5500 26.3981
93.6000 27.9315
93.6500 32.7358
93.7000 29.3398
93.7500 29.9232
93.8000 31.9859
93.8500 32.0562
93.9000 24.4935
93.9500 32.8807
94.0000 34.7392
94.0500 31.0536
94.1000 27.8087
94.1500 28.6445
94.2000 26.2543
94.2500 38.9170
94.3000 46.0857
94.3500 35.7760
94.4000 21.1506
94.4500 18.8681
94.5000 18.0405
94.5500 32.4272
94.6000 33.0104
94.6500 33.9910
94.7000 29.1972
94.7500 39.2903
94.8000 36.1336
94.8500 26.1145
94.9000 28.5830
94.9500 36.6932
95.0000 35.3227
95.0500 29.8557
95.1000 27.9539
95.1500 36.8790
95.2000 27.7380
95.2500 26.8462
95.3000 35.7982
95.3500 29.7332
95.4000 36.2222
95.4500 22.2220
95.5000 31.3727
95.5500 30.2283
95.6000 32.0902
95.6500 31.2712
95.7000 32.7812
95.7500 33.5320
95.8000 35.1155
95.8500 37.7559
95.9000 30.7290
95.9500 28.5017
96.0000 28.2786
96.0500 34.5640
96.1000 28.8112
96.1500 30.4513
96.2000 35.1361
96.2500 27.6435
96.3000 27.3717
96.3500 28.8061
96.4000 32.1617
96.4500 30.0242
96.5000 24.8382
96.5500 25.8014
96.6000 36.9684
96.6500 36.2643
96.7000 25.9211
96.7500 29.5454
96.8000 27.7418
96.8500 28.8052
96.9000 30.3554
96.9500 33.4434
97.0000 23.5368
97.0500 40.2206
97.1000 22.3553
97.1500 34.7084
97.2000 36.3534
97.2500 20.7935
97.3000 31.4347
97.3500 35.9721
97.4000 37.0578
97.4500 32.1824
97.5000 34.6408
97.5500 35.2696
97.6000 21.8595
97.6500 20.7849
97.7000 37.5308
97.7500 34.0909
97.8000 37.1153
97.8500 26.4630
97.9000 31.1264
97.9500 33.4568
98.0000 31.2148
98.0500 33.4219
98.1000 31.7594
98.1500 39.9921
98.2000 43.3218
98.2500 37.2998
98.3000 44.9926
98.3500 55.5364
98.4000 67.3578
98.4500 102.1720
98.5000 151.8638
98.5500 163.6934
98.6000 143.0206
98.6500 105.8845
98.7000 62.0254
98.7500 65.9613
98.8000 49.2883
98.8500 35.9970
98.9000 36.7168
98.9500 32.5535
99.0000 28.9492
99.0500 25.6838
99.1000 38.1010
99.1500 33.5982
99.2000 29.3902
99.2500 39.4224
99.3000 24.5851
99.3500 30.9208
99.4000 24.1312
99.4500 32.5639
99.5000 32.3641
99.5500 33.3254
99.6000 45.2906
99.6500 33.9667
99.7000 30.7789
99.7500 27.0558
99.8000 32.4789
99.8500 27.0008
99.9000 34.7147
99.9500 30.6970
100.0000 27.9409
100.0500 30.1727
100.1000 27.3160
100.1500 34.6487
100.2000 27.0430
100.2500 26.0058
100.3000 31.6132
100.3500 25.7331
100.4000 24.1562
100.4500 34.1046
100.5000 39.8483
100.5500 32.2886
100.6000 38.6097
100.6500 30.0681
100.7000 29.6679
100.7500 29.9641
100.8000 29.5118
100.8500 28.2992
100.9000 29.1754
100.9500 30.0813
101.0000 42.7995
101.0500 22.4489
101.1000 26.3992
101.1500 34.4063
101.2000 35.3585
101.2500 23.0929
101.3000 24.8524
101.3500 23.5609
101.4000 24.9259
101.4500 27.6952
101.5000 29.9254
101.5500 19.7347
101.6000 29.9389
101.6500 36.1715
101.7000 27.8193
101.7500 21.8405
101.8000 28.4135
101.8500 22.6499
101.9000 30.5504
101.9500 33.5841
102.0000 29.7256
102.0500 28.2514
102.1000 25.5094
102.1500 28.6995
102.2000 37.2157
102.2500 20.2101
102.3000 38.7300
102.3500 32.6040
102.4000 26.8012
102.4500 29.3109
102.5000 23.5397
102.5500 25.7663
102.6000 31.8276
102.6500 37.7608
102.7000 39.6718
102.7500 40.2717
102.8000 31.5115
102.8500 36.7443
102.9000 34.2862
102.9500 35.4137
103.0000 28.8883
103.0500 30.7449
103.1000 36.8027
103.1500 32.9019
103.2000 19.9479
103.2500 37.1858
103.3000 25.1846
103.3500 20.8664
103.4000 27.5340
103.4500 28.2945
103.5000 25.7351
103.5500 30.2345
103.6000 26.4943
103.6500 34.4890
103.7000 29.8285
103.7500 22.7781
103.8000 27.6560
103.8500 23.4424
103.9000 33.9911
103.9500 34.3235
104.0000 25.7712
104.0500 43.7848
104.1000 37.7337
104.1500 25.2456
104.2000 31.0560
104.2500 29.1304
104.3000 24.2773
104.3500 38.3779
104.4000 31.0435
104.4500 30.7551
104.5000 37.1483
104.5500 35.1214
104.6000 38.9018
104.6500 28.8443
104.7000 33.5731
104.7500 30.2485
104.8000 23.7627
104.8500 30.8468
104.9000 43.8664
104.9500 31.3932
105.0000 27.7055
105.0500 27.0313
105.1000 23.9148
105.1500 41.8305
105.2000 31.7189
105.2500 26.3389
105.3000 20.9436
105.3500 34.6965
105.4000 24.9495
105.4500 35.0513
105.5000 25.7798
105.5500 33.0416
105.6000 42.2067
105.6500 32.4433
105.7000 33.1142
105.7500 46.9249
105.8000 26.9564
105.8500 34.8719
105.9000 33.7185
105.9500 30.4755
106.0000 29.4573
106.0500 35.9206
106.1000 31.2302
106.1500 32.2895
106.2000 29.5266
106.2500 14.0020
106.3000 30.5119
106.3500 24.4003
106.4000 25.8255
106.4500 30.4985
106.5000 33.2640
106.5500 33.6951
106.6000 28.2962
106.6500 25.5274
106.7000 23.4527
106.7500 26.1011
106.8000 25.6611
106.8500 22.6395
106.9000 25.7255
106.9500 27.5376
107.0000 25.9753
107.0500 39.7878
107.1000 44.0869
107.1500 39.4599
107.2000 39.0217
107.2500 25.9192
107.3000 32.2557
107.3500 25.0995
107.4000 32.0149
107.4500 30.1642
107.5000 33.3585
107.5500 35.8757
107.6000 30.1050
107.6500 26.4070
107.7000 24.6587
107.7500 33.3441
107.8000 28.0042
107.8500 34.4892
107.9000 29.4093
107.9500 24.2592
108.0000 27.9802
108.0500 24.4377
108.1000 28.9405
108.1500 33.6413
108.2000 36.0413
108.2500 40.8219
108.3000 35.3841
108.3500 27.9675
108.4000 27.2818
108.4500 22.3833
108.5000 27.6122
108.5500 29.5164
108.6000 34.9221
108.6500 33.3846
108.7000 34.1182
108.7500 27.2030
108.8000 31.1554
108.8500 32.4780
108.9000 28.7743
108.9500 29.3606
109.0000 41.8866
109.0500 30.5138
109.1000 37.1028
109.1500 37.7470
109.2000 42.2380
109.2500 24.0484
109.3000 22.8403
109.3500 28.9878
109.4000 27.2903
109.4500 30.2227
109.5000 34.3493
109.5500 35.1609
109.6000 25.0197
109.6500 25.0250
109.7000 32.0885
109.7500 29.9072
109.8000 28.1489
109.8500 34.3687
109.9000 31.5298
109.9500 28.3528
110.0000 21.9496
110.0500 26.5652
110.1000 26.9970
110.1500 28.8901
110.2000 27.0221
110.2500 28.7549
110.3000 31.9205
110.3500 31.5057
110.4000 32.9858
110.4500 40.6571
110.5000 16.9112
110.5500 17.6086
110.6000 31.0120
110.6500 23.9508
110.7000 27.3947
110.7500 38.3844
110.8000 30.6847
110.8500 44.4236
110.9000 31.5497
110.9500 25.2899
111.0000 27.8982
111.0500 24.2957
111.1000 29.1419
111.1500 33.0621
111.2000 34.7069
111.2500 28.3535
111.3000 26.1051
111.3500 26.3866
111.4000 21.9459
111.4500 32.5023
111.5000 31.3567
111.5500 26.5486
111.6000 31.5660
111.6500 26.1993
111.7000 28.6155
111.7500 22.5424
111.8000 27.5247
111.8500 28.5048
111.9000 28.3805
111.9500 29.9642
112.0000 35.2987
112.0500 36.8859
112.1000 34.7845
112.1500 33.6029
112.2000 38.4309
112.2500 32.8574
112.3000 32.8111
112.3500 48.3896
112.4000 40.6691
112.4500 33.6090
112.5000 31.9602
112.5500 34.3968
112.6000 20.1744
112.6500 20.4042
112.7000 28.0759
112.7500 38.4529
112.8000 26.6076
112.8500 27.8783
112.9000 33.1338
112.9500 40.3802
113.0000 37.3321
113.0500 31.9976
113.1000 39.7767
113.1500 31.0499
113.2000 34.8127
113.2500 31.8473
113.3000 27.5599
113.3500 26.3902
113.4000 31.7006
113.4500 28.2330
113.5000 26.2638
113.5500 26.2279
113.6000 26.0654
113.6500 35.0907
113.7000 31.5981
113.7500 24.3741
113.8000 21.8448
113.8500 36.8270
113.9000 31.6454
113.9500 26.8158
114.0000 28.4466
114.0500 19.0416
114.1000 25.5556
114.1500 42.6804
114.2000 35.7364
114.2500 29.5409
114.3000 30.8724
114.3500 24.2692
114.4000 20.3495
114.4500 27.7558
114.5000 21.5470
114.5500 25.6268
114.6000 29.8898
114.6500 36.9188
114.7000 32.2065
114.7500 25.1055
114.8000 25.1967
114.8500 23.3349
114.9000 21.1665
114.9500 22.1173
115.0000 21.1587
115.0500 31.3595
115.1000 32.9083
115.1500 43.1850
115.2000 39.5827
115.2500 34.7095
115.3000 36.6795
115.3500 39.0600
115.4000 43.0109
115.4500 47.6846
115.5000 40.9262
115.5500 58.2577
115.6000 46.6476
115.6500 55.2549
115.7000 46.8555
115.7500 83.5025
115.8000 69.1675
115.8500 79.8973
115.9000 117.0343
115.9500 98.9558
116.0000 93.3222
116.0500 80.1506
116.1000 69.2789
116.1500 57.7746
116.2000 61.3332
116.2500 52.1700
116.3000 39.5521
116.3500 43.5833
116.4000 51.7001
116.4500 38.4125
116.5000 37.6797
116.5500 41.8450
116.6000 38.4967
116.6500 37.4766
116.7000 31.8607
116.7500 30.1766
116.8000 38.3202
116.8500 35.3546
116.9000 26.7370
116.9500 29.8916
117.0000 36.6633
117.0500 32.4656
117.1000 37.7589
117.1500 24.6912
117.2000 36.5561
117.2500 20.3428
117.3000 23.1461
117.3500 32.1131
117.4000 35.4458
117.4500 29.3174
117.5000 30.3843
117.5500 30.2272
117.6000 35.3542
117.6500 35.5531
117.7000 41.0809
117.7500 42.7550
117.8000 29.3441
117.8500 38.5852
117.9000 20.6336
117.9500 30.4210
118.0000 32.4956
118.0500 33.7400
118.1000 29.1724
118.1500 36.9519
118.2000 29.6947
118.2500 31.0555
118.3000 30.4294
118.3500 38.8995
118.4000 28.5691
118.4500 32.8025
118.5000 39.3235
118.5500 35.5679
118.6000 27.9307
118.6500 24.1449
118.7000 30.9474
118.7500 38.6681
118.8000 30.2867
118.8500 38.9460
118.9000 20.4565
118.9500 29.5749
119.0000 32.8319
119.0500 37.3466
119.1000 36.2494
119.1500 43.3378
119.2000 22.3792
119.2500 24.7709
119.3000 27.5376
119.3500 29.1003
119.4000 30.7528
119.4500 25.6708
119.5000 35.7158
119.5500 33.9390
119.6000 31.7379
119.6500 37.7749
119.7000 47.9296
119.7500 31.2186
119.8000 27.6738
119.8500 22.3256
119.9000 32.2615
119.9500 36.1627
120.0000 26.5202
120.0500 37.7664
120.1000 33.8320
120.1500 31.3621
120.2000 31.4771
120.2500 32.2650
120.3000 25.9127
120.3500 38.3594
120.4000 29.5656
120.4500 38.5007
120.5000 36.2558
120.5500 25.5981
120.6000 45.4585
120.6500 41.6108
120.7000 33.6929
120.7500 41.2197
120.8000 24.9860
120.8500 36.9370
120.9000 35.3281
120.9500 22.1390
121.0000 27.8123
121.0500 27.9560
121.1000 28.4522
121.1500 27.6161
121.2000 39.9574
121.2500 30.0823
121.3000 28.0492
121.3500 24.3049
121.4000 35.9292
121.4500 35.9316
121.5000 39.0734
121.5500 39.5913
121.6000 33.7962
121.6500 29.6988
121.7000 27.1654
121.7500 21.1501
121.8000 33.0311
121.8500 42.0510
121.9000 35.7060
121.9500 32.8276
122.0000 34.0871
122.0500 34.9139
122.1000 23.2411
122.1500 28.4180
122.2000 24.1054
122.2500 35.6989
122.3000 38.3119
122.3500 29.4180
122.4000 26.9669
122.4500 30.8720
122.5000 31.3278
122.5500 30.1797
122.6000 26.9402
122.6500 27.5787
122.7000 32.2302
122.7500 23.4184
122.8000 29.5328
122.8500 28.7606
122.9000 26.6596
122.9500 26.2703
123.0000 26.7723
123.0500 24.0190
123.1000 28.5986
123.1500 44.7170
123.2000 23.0709
123.2500 31.6117
123.3000 31.3597
123.3500 34.5269
123.4000 37.0393
123.4500 27.7133
123.5000 35.0967
123.5500 33.1208
123.6000 21.9962
123.6500 39.1145
123.7000 32.2903
123.7500 27.4350
123.8000 33.3293
123.8500 32.6736
123.9000 24.2359
123.9500 39.5701
124.0000 28.8487
124.0500 23.7369
124.1000 33.5970
124.1500 37.4252
124.2000 27.6666
124.2500 18.6277
124.3000 30.4747
124.3500 27.2415
124.4000 33.1119
124.4500 35.1595
124.5000 24.4220
124.5500 37.5639
124.6000 24.8107
124.6500 27.9634
124.7000 35.6968
124.7500 30.4576
124.8000 29.1789
124.8500 21.8580
124.9000 29.7170
124.9500 41.4658
125.0000 21.7917
125.0500 32.9796
125.1000 29.0334
125.1500 32.8368
125.2000 22.8684
125.2500 33.1356
125.3000 35.4495
125.3500 31.0479
125.4000 33.5321
125.4500 22.6934
125.5000 31.7122
125.5500 23.0365
125.6000 20.9469
125.6500 36.9539
125.7000 28.5874
125.7500 29.3500
125.8000 17.4247
125.8500 37.3450
125.9000 29.0468
125.9500 26.4054
126.0000 24.5171
126.0500 38.8405
126.1000 32.2268
126.1500 24.4341
126.2000 29.1666
126.2500 29.9116
126.3000 40.3538
126.3500 27.3436
126.4000 31.0107
126.4500 27.8205
126.5000 36.9712
126.5500 28.5025
126.6000 39.3009
126.6500 28.6861
126.7000 30.6989
126.7500 35.4683
126.8000 39.4043
126.8500 36.2493
126.9000 31.0075
126.9500 24.4893
127.0000 24.1293
127.0500 33.4084
127.1000 34.6553
127.1500 25.1475
127.2000 37.9184
127.2500 27.2572
127.3000 32.4697
127.3500 35.6902
127.4000 36.0336
127.4500 31.7124
127.5000 29.5802
127.5500 33.8659
127.6000 29.9838
127.6500 32.9939
127.7000 37.9084
127.7500 33.2320
127.8000 18.8438
127.8500 32.8400
127.9000 27.2370
127.9500 17.7755
128.0000 28.0709
128.0500 33.9445
128.1000 26.0723
128.1500 40.8166
128.2000 28.4591
128.2500 31.4129
128.3000 22.1663
128.3500 25.6220
128.4000 24.1916
128.4500 19.4420
128.5000 19.6385
128.5500 29.5415
128.6000 35.0256
128.6500 22.0903
128.7000 39.9171
128.7500 28.0067
128.8000 21.1703
128.8500 29.7977
128.9000 27.2380
128.9500 28.6927
129.0000 27.2265
129.0500 35.4478
129.1000 23.4443
129.1500 29.7706
129.2000 25.8955
129.2500 19.1164
129.3000 32.4575
129.3500 37.2054
129.4000 33.6104
129.4500 37.5920
129.5000 30.7620
129.5500 32.3712
129.6000 31.0983
129.6500 24.8573
129.7000 28.1980
129.7500 23.7961
129.8000 31.7763
129.8500 28.3035
129.9000 31.9681
129.9500 25.2821
130.0000 35.3960
