
#Surface 0 of 1 surfaces

#IsoCurve 0, 1801 points
#x y z type
 40  50.7235  37.4964 i
 40.05  35.7195  37.4757 i
 40.1  36.6107  37.455 i
 40.15  42.9065  37.4358 i
 40.2  51.4472  37.4167 i
 40.25  39.2176  37.3959 i
 40.3  29.9567  37.3751 i
 40.35  40.7031  37.3519 i
 40.4  46.8372  37.3286 i
 40.45  38.9941  37.3057 i
 40.5  41.7132  37.2828 i
 40.55  51.1196  37.2621 i
 40.6  48.5026  37.243 i
 40.65  29.3652  37.225 i
 40.7  50.7736  37.207 i
 40.75  31.2875  37.1874 i
 40.8  38.2531  37.1678 i
 40.85  41.3348  37.1456 i
 40.9  36.5867  37.1233 i
 40.95  41.2502  37.1014 i
 41  35.8815  37.0795 i
 41.05  28.4532  37.061 i
 41.1  48.5037  37.0425 i
 41.15  40.5417  37.0264 i
 41.2  38.3916  37.0102 i
 41.25  40.8609  36.9927 i
 41.3  47.1289  36.9753 i
 41.35  40.3064  36.955 i
 41.4  36.404  36.9348 i
 41.45  37.3068  36.9149 i
 41.5  48.1195  36.895 i
 41.55  53.3234  36.8779 i
 41.6  40.6202  36.863 i
 41.65  42.7608  36.8503 i
 41.7  38.8621  36.8376 i
 41.75  38.11  36.8241 i
 41.8  32.7515  36.8106 i
 41.85  41.5264  36.7945 i
 41.9  42.4114  36.7784 i
 41.95  41.7303  36.7629 i
 42  28.4715  36.7473 i
 42.05  29.3696  36.7368 i
 42.1  51.7648  36.7262 i
 42.15  35.2806  36.7206 i
 42.2  41.5152  36.7149 i
 42.25  46.9456  36.71 i
 42.3  38.5119  36.7051 i
 42.35  30.5712  36.6986 i
 42.4  40.2478  36.6921 i
 42.45  37.3807  36.6876 i
 42.5  54.675  36.6831 i
 42.55  30.4323  36.6862 i
 42.6  40.2051  36.6894 i
 42.65  47.872  36.7016 i
 42.7  34.4596  36.7138 i
 42.75  52.9674  36.7308 i
 42.8  26.536  36.7498 i
 42.85  41.3628  36.7719 i
 42.9  45.8549  36.7941 i
 42.95  35.584  36.8263 i
 43  28.517  36.8585 i
 43.05  36.2768  36.9138 i
 43.1  43.4313  36.9692 i
 43.15  42.702  37.1284 i
 43.2  34.1289  37.2876 i
 43.25  21.9082  37.6121 i
 43.3  38.4487  37.9365 i
 43.35  37.2306  38.1507 i
 43.4  35.6685  38.3648 i
 43.45  32.0462  38.6538 i
 43.5  35.8189  38.9428 i
 43.55  42.7836  39.368 i
 43.6  38.7263  39.7932 i
 43.65  37.1543  40.4495 i
 43.7  40.2948  41.1058 i
 43.75  31.0009  42.1727 i
 43.8  50.2734  43.2396 i
 43.85  47.7775  44.8359 i
 43.9  47.6713  47.0151 i
 43.95  54.5193  50.1031 i
 44  47.8606  54.6985 i
 44.05  57.8365  62.3555 i
 44.1  66.59  75.4044 i
 44.15  80.0948  105.996 i
 44.2  153.713  194.725 i
 44.25  397.243  453.71 i
 44.3  1177.89  1040.61 i
 44.35  2144.98  1891.91 i
 44.4  2153.2  2392.59 i
 44.45  1483.26  1498.11 i
 44.5  455.712  409.769 i
 44.55  180.586  151.466 i
 44.6  97.3006  92.5779 i
 44.65  53.6389  70.1246 i
 44.7  51.9447  57.9791 i
 44.75  44.9185  51.3625 i
 44.8  58.0337  47.2316 i
 44.85  53.9055  44.4851 i
 44.9  35.7089  42.5669 i
 44.95  43.3616  41.3463 i
 45  43.8763  40.1257 i
 45.05  42.0378  39.4032 i
 45.1  35.425  38.6807 i
 45.15  33.6855  38.218 i
 45.2  36.1929  37.7553 i
 45.25  37.3962  37.442 i
 45.3  34.3311  37.1287 i
 45.35  40.4343  36.903 i
 45.4  36.5236  36.6772 i
 45.45  33.6632  36.5014 i
 45.5  39.8882  36.3257 i
 45.55  31.8967  36.1627 i
 45.6  36.7583  35.9997 i
 45.65  32.7971  35.8448 i
 45.7  41.1595  35.6899 i
 45.75  30.8159  35.6016 i
 45.8  39.7391  35.5134 i
 45.85  22.4957  35.442 i
 45.9  35.1374  35.3705 i
 45.95  29.2703  35.3057 i
 46  36.7122  35.2408 i
 46.05  31.2945  35.1795 i
 46.1  38.3935  35.1181 i
 46.15  41.0473  35.0632 i
 46.2  34.6532  35.0083 i
 46.25  46.5974  34.9623 i
 46.3  40.6423  34.9163 i
 46.35  40.0324  34.8766 i
 46.4  33.6587  34.8369 i
 46.45  26.9195  34.7979 i
 46.5  31.6513  34.7588 i
 46.55  32.3161  34.7183 i
 46.6  42.3375  34.6777 i
 46.65  31.5939  34.6387 i
 46.7  24.8587  34.5997 i
 46.75  46.235  34.5658 i
 46.8  36.8945  34.532 i
 46.85  43.9272  34.5025 i
 46.9  42.9045  34.473 i
 46.95  44.6086  34.4435 i
 47  32.1098  34.4139 i
 47.05  38.972  34.3818 i
 47.1  30.5589  34.3497 i
 47.15  31.2657  34.3172 i
 47.2  38.6354  34.2848 i
 47.25  35.4585  34.2557 i
 47.3  26.8478  34.2267 i
 47.35  26.4418  34.2014 i
 47.4  30.8504  34.176 i
 47.45  46.5424  34.1509 i
 47.5  41.1079  34.1258 i
 47.55  44.8682  34.098 i
 47.6  40.4389  34.0702 i
 47.65  30.973  34.0412 i
 47.7  40.4736  34.0121 i
 47.75  33.7535  33.9854 i
 47.8  32.5171  33.9586 i
 47.85  45.585  33.9352 i
 47.9  27.6175  33.9118 i
 47.95  29.1723  33.889 i
 48  24.8622  33.8663 i
 48.05  51.1698  33.8419 i
 48.1  38.5575  33.8161 i
 48.15  35.1808  33.7892 i
 48.2  31.4937  33.7622 i
 48.25  37.6298  33.7367 i
 48.3  29.1737  33.7112 i
 48.35  27.5326  33.6888 i
 48.4  30.4545  33.6663 i
 48.45  32.8442  33.645 i
 48.5  37.6318  33.6236 i
 48.55  39.6253  33.6003 i
 48.6  32.6178  33.5771 i
 48.65  41.4623  33.5517 i
 48.7  31.1592  33.5264 i
 48.75  30.2723  33.5017 i
 48.8  31.4736  33.477 i
 48.85  34.6223  33.4551 i
 48.9  45.3742  33.4331 i
 48.95  30.6036  33.4126 i
 49  47.7892  33.3922 i
 49.05  30.1691  33.3714 i
 49.1  41.3882  33.3507 i
 49.15  30.9548  33.3264 i
 49.2  27.0189  33.302 i
 49.25  27.2574  33.2775 i
 49.3  29.9994  33.2531 i
 49.35  30.3127  33.2314 i
 49.4  43.6651  33.2097 i
 49.45  33.476  33.1902 i
 49.5  37.92  33.1707 i
 49.55  32.4155  33.1502 i
 49.6  24.8726  33.1298 i
 49.65  29.4255  33.1066 i
 49.7  33.29  33.0835 i
 49.75  36.4682  33.0596 i
 49.8  39.1728  33.0357 i
 49.85  23.5228  33.0141 i
 49.9  19.2086  32.9924 i
 49.95  40.8822  32.9733 i
 50  30.3188  32.9541 i
 50.05  40.9449  32.9346 i
 50.1  23.3757  32.9152 i
 50.15  31.3989  32.8932 i
 50.2  39.2526  32.8712 i
 50.25  26.248  32.8479 i
 50.3  50.4649  32.8247 i
 50.35  31.5996  32.8031 i
 50.4  44.8345  32.7815 i
 50.45  39.8039  32.7624 i
 50.5  28.7671  32.7434 i
 50.55  43.0851  32.7248 i
 50.6  31.972  32.7061 i
 50.65  35.1683  32.6852 i
 50.7  34.7507  32.6644 i
 50.75  30.5096  32.6418 i
 50.8  39.7421  32.6192 i
 50.85  35.7845  32.5977 i
 50.9  32.1673  32.5761 i
 50.95  28.9499  32.5572 i
 51  37.2462  32.5382 i
 51.05  33.6658  32.5202 i
 51.1  44.3443  32.5022 i
 51.15  23.7639  32.4824 i
 51.2  32.7894  32.4626 i
 51.25  33.5352  32.4408 i
 51.3  35.9474  32.419 i
 51.35  32.0828  32.3976 i
 51.4  43.0781  32.3762 i
 51.45  25.6985  32.3572 i
 51.5  32.407  32.3382 i
 51.55  35.7371  32.3207 i
 51.6  39.0023  32.3032 i
 51.65  31.2909  32.2844 i
 51.7  25.9223  32.2657 i
 51.75  47.1821  32.2448 i
 51.8  37.9218  32.2239 i
 51.85  38.2968  32.2027 i
 51.9  28.8898  32.1816 i
 51.95  32.7013  32.1625 i
 52  40.1023  32.1434 i
 52.05  36.1397  32.1263 i
 52.1  40.3245  32.1091 i
 52.15  32.8784  32.0913 i
 52.2  34.578  32.0735 i
 52.25  42.766  32.0536 i
 52.3  31.097  32.0337 i
 52.35  33.2841  32.0129 i
 52.4  41.7871  31.9921 i
 52.45  24.3598  31.973 i
 52.5  17.5641  31.9539 i
 52.55  33.4531  31.9369 i
 52.6  30.4814  31.9199 i
 52.65  30.1743  31.903 i
 52.7  40.2151  31.8861 i
 52.75  31.0334  31.8672 i
 52.8  29.8282  31.8484 i
 52.85  44.2658  31.8281 i
 52.9  41.0196  31.8079 i
 52.95  24.1301  31.7888 i
 53  29.5207  31.7696 i
 53.05  27.4621  31.7527 i
 53.1  36.2064  31.7358 i
 53.15  26.9629  31.7197 i
 53.2  27.5241  31.7035 i
 53.25  30.5396  31.6857 i
 53.3  34.4888  31.6679 i
 53.35  29.8324  31.6484 i
 53.4  31.1939  31.6289 i
 53.45  39.0342  31.6099 i
 53.5  32.4382  31.5908 i
 53.55  20.4983  31.5739 i
 53.6  37.5927  31.557 i
 53.65  38.41  31.5414 i
 53.7  31.9299  31.5258 i
 53.75  30.4187  31.5091 i
 53.8  35.8827  31.4925 i
 53.85  29.2013  31.4739 i
 53.9  31.7742  31.4553 i
 53.95  39.5422  31.4364 i
 54  25.3528  31.4176 i
 54.05  35.4469  31.4006 i
 54.1  28.8606  31.3836 i
 54.15  28.2268  31.3684 i
 54.2  33.2323  31.3532 i
 54.25  28.0274  31.3376 i
 54.3  36.9586  31.322 i
 54.35  33.0161  31.3044 i
 54.4  30.7936  31.2869 i
 54.45  37.1658  31.2684 i
 54.5  38.5995  31.25 i
 54.55  35.5749  31.233 i
 54.6  43.3774  31.2159 i
 54.65  41.5415  31.201 i
 54.7  21.3748  31.186 i
 54.75  30.3301  31.1713 i
 54.8  35.612  31.1566 i
 54.85  24.2053  31.1402 i
 54.9  34.5942  31.1239 i
 54.95  31.6572  31.1061 i
 55  42.2791  31.0883 i
 55.05  29.0922  31.0712 i
 55.1  36.5517  31.0542 i
 55.15  27.3821  31.0393 i
 55.2  28.6154  31.0244 i
 55.25  29.2622  31.0105 i
 55.3  28.0316  30.9965 i
 55.35  24.4768  30.9814 i
 55.4  41.4162  30.9662 i
 55.45  28.7629  30.9493 i
 55.5  28.7527  30.9324 i
 55.55  36.1811  30.9155 i
 55.6  41.8162  30.8986 i
 55.65  39.2394  30.8836 i
 55.7  28.562  30.8687 i
 55.75  34.2761  30.8553 i
 55.8  25.6836  30.842 i
 55.85  35.867  30.828 i
 55.9  32.7848  30.814 i
 55.95  16.6079  30.7982 i
 56  35.7767  30.7824 i
 56.05  27.8847  30.7659 i
 56.1  23.9967  30.7493 i
 56.15  37.5073  30.7343 i
 56.2  32.057  30.7193 i
 56.25  33.8127  30.7062 i
 56.3  30.1121  30.6932 i
 56.35  37.4665  30.6803 i
 56.4  47.49  30.6674 i
 56.45  31.1174  30.6529 i
 56.5  25.6725  30.6383 i
 56.55  29.5011  30.6224 i
 56.6  32.9871  30.6065 i
 56.65  30.0006  30.5915 i
 56.7  33.4723  30.5764 i
 56.75  33.0475  30.5635 i
 56.8  26.6109  30.5506 i
 56.85  32.492  30.5386 i
 56.9  24.1929  30.5266 i
 56.95  29.2602  30.5134 i
 57  36.0186  30.5002 i
 57.05  28.4605  30.4852 i
 57.1  41.4072  30.4703 i
 57.15  39.0304  30.4554 i
 57.2  32.5231  30.4404 i
 57.25  40.8966  30.4275 i
 57.3  27.0518  30.4145 i
 57.35  36.1245  30.4031 i
 57.4  32.6263  30.3918 i
 57.45  31.5762  30.3799 i
 57.5  38.9785  30.368 i
 57.55  32.9864  30.3543 i
 57.6  32.7366  30.3406 i
 57.65  34.028  30.3261 i
 57.7  34.0935  30.3115 i
 57.75  38.0879  30.2985 i
 57.8  29.3439  30.2854 i
 57.85  34.1753  30.2744 i
 57.9  25.1099  30.2633 i
 57.95  38.2936  30.2527 i
 58  33.1379  30.242 i
 58.05  32.292  30.2297 i
 58.1  35.3274  30.2174 i
 58.15  31.1708  30.2036 i
 58.2  29.4875  30.1899 i
 58.25  31.9988  30.1767 i
 58.3  29.541  30.1636 i
 58.35  30.9733  30.1527 i
 58.4  32.742  30.1417 i
 58.45  28.8589  30.132 i
 58.5  34.2887  30.1222 i
 58.55  37.1103  30.1115 i
 58.6  34.5396  30.1007 i
 58.65  38.3738  30.0881 i
 58.7  30.907  30.0754 i
 58.75  34.1753  30.0625 i
 58.8  39.5301  30.0496 i
 58.85  32.8976  30.0385 i
 58.9  20.3952  30.0275 i
 58.95  32.819  30.0183 i
 59  33.6804  30.0092 i
 59.05  26.2686  29.9999 i
 59.1  31.6296  29.9906 i
 59.15  36.3233  29.9794 i
 59.2  40.3435  29.9682 i
 59.25  31.2076  29.9559 i
 59.3  31.1124  29.9436 i
 59.35  35.9336  29.9324 i
 59.4  23.3084  29.9212 i
 59.45  33.0174  29.9122 i
 59.5  25.0874  29.9033 i
 59.55  30.5775  29.8952 i
 59.6  39.4499  29.8872 i
 59.65  33.1308  29.8685 i
 59.7  27.7434  29.8499 i
 59.75  32.7967  29.8396 i
 59.8  32.5809  29.8293 i
 59.85  27.9034  29.819 i
 59.9  41.9148  29.8087 i
 59.95  33.4958  29.7994 i
 60  25.8724  29.7901 i
 60.05  40.1532  29.7818 i
 60.1  34.1279  29.7735 i
 60.15  27.5528  29.7651 i
 60.2  25.4639  29.7568 i
 60.25  36.7966  29.7476 i
 60.3  19.5533  29.7385 i
 60.35  17.5556  29.7289 i
 60.4  40.3863  29.7193 i
 60.45  30.2177  29.7103 i
 60.5  32.4584  29.7014 i
 60.55  21.5544  29.6937 i
 60.6  31.0363  29.6859 i
 60.65  28.9096  29.6787 i
 60.7  29.2374  29.6715 i
 60.75  33.4665  29.6638 i
 60.8  33.7464  29.656 i
 60.85  22.5188  29.6474 i
 60.9  36.7225  29.6388 i
 60.95  36.4678  29.6303 i
 61  28.783  29.6218 i
 61.05  26.6979  29.6146 i
 61.1  31.5333  29.6073 i
 61.15  31.8937  29.6012 i
 61.2  33.6607  29.5951 i
 61.25  23.4027  29.5891 i
 61.3  37.7696  29.5832 i
 61.35  32.9482  29.5763 i
 61.4  31.1716  29.5695 i
 61.45  32.699  29.5623 i
 61.5  28.211  29.5551 i
 61.55  34.2505  29.5489 i
 61.6  30.6664  29.5426 i
 61.65  34.1475  29.5379 i
 61.7  26.2024  29.5333 i
 61.75  35.2023  29.5295 i
 61.8  35.9451  29.5256 i
 61.85  37.2428  29.5213 i
 61.9  28.2426  29.5169 i
 61.95  27.6337  29.5117 i
 62  38.7783  29.5065 i
 62.05  27.5836  29.5015 i
 62.1  26.3596  29.4966 i
 62.15  27.7781  29.4932 i
 62.2  21.7069  29.4899 i
 62.25  31.969  29.4882 i
 62.3  36.1543  29.4866 i
 62.35  33.6645  29.4852 i
 62.4  30.1181  29.4838 i
 62.45  35.2111  29.4816 i
 62.5  30.2056  29.4794 i
 62.55  23.5109  29.4768 i
 62.6  28.2633  29.4742 i
 62.65  34.3096  29.4728 i
 62.7  36.1583  29.4715 i
 62.75  32.5645  29.4726 i
 62.8  29.1444  29.4737 i
 62.85  26.8752  29.4766 i
 62.9  38.6065  29.4796 i
 62.95  50.4541  29.4829 i
 63  35.0239  29.4861 i
 63.05  32.1654  29.4894 i
 63.1  27.937  29.4926 i
 63.15  30.6127  29.4975 i
 63.2  26.3697  29.5025 i
 63.25  28.0664  29.5122 i
 63.3  25.7904  29.5219 i
 63.35  30.2116  29.5406 i
 63.4  27.0687  29.5592 i
 63.45  30.194  29.5977 i
 63.5  30.651  29.6362 i
 63.55  22.5178  29.6849 i
 63.6  32.4508  29.7336 i
 63.65  31.156  29.7811 i
 63.7  31.1307  29.8287 i
 63.75  39.1001  29.8928 i
 63.8  38.7128  29.9568 i
 63.85  39.1677  30.0539 i
 63.9  32.2242  30.1509 i
 63.95  33.7547  30.3049 i
 64  34.7141  30.4588 i
 64.05  28.6315  30.7168 i
 64.1  31.7203  30.9747 i
 64.15  26.9011  31.4457 i
 64.2  32.506  31.9168 i
 64.25  39.7914  32.888 i
 64.3  37.3945  33.8592 i
 64.35  38.7741  35.6578 i
 64.4  53.2173  38.6033 i
 64.45  51.2772  44.0019 i
 64.5  50.1539  53.4123 i
 64.55  79.4052  72.0724 i
 64.6  96.3876  103.36 i
 64.65  127.217  143.806 i
 64.7  168.728  170.152 i
 64.75  152.934  156.361 i
 64.8  101.305  113.446 i
 64.85  73.3293  75.9389 i
 64.9  55.4854  54.3862 i
 64.95  45.9311  43.8859 i
 65  45.5515  38.4564 i
 65.05  29.2714  36.0302 i
 65.1  39.5897  33.604 i
 65.15  33.6103  32.6495 i
 65.2  38.2783  31.695 i
 65.25  38.8238  31.2497 i
 65.3  32.7066  30.8045 i
 65.35  26.8738  30.5692 i
 65.4  36.8482  30.334 i
 65.45  29.8403  30.1977 i
 65.5  30.0638  30.0615 i
 65.55  24.5047  29.9782 i
 65.6  32.6642  29.8949 i
 65.65  32.1126  29.8425 i
 65.7  33.2294  29.7901 i
 65.75  32.8024  29.7547 i
 65.8  28.4533  29.7192 i
 65.85  39.763  29.6879 i
 65.9  31.9762  29.6566 i
 65.95  30.2249  29.6294 i
 66  28.6592  29.6023 i
 66.05  25.0138  29.5868 i
 66.1  34.0748  29.5714 i
 66.15  27.576  29.5629 i
 66.2  29.8576  29.5544 i
 66.25  28.534  29.5507 i
 66.3  29.7049  29.5471 i
 66.35  27.4478  29.5457 i
 66.4  31.8205  29.5443 i
 66.45  36.0481  29.5429 i
 66.5  33.2414  29.5415 i
 66.55  22.45  29.5395 i
 66.6  31.1052  29.5376 i
 66.65  38.3237  29.5365 i
 66.7  24.1134  29.5355 i
 66.75  38.352  29.5367 i
 66.8  35.3151  29.538 i
 66.85  30.5933  29.5413 i
 66.9  27.564  29.5446 i
 66.95  21.2787  29.5482 i
 67  34.5742  29.5518 i
 67.05  27.8477  29.5543 i
 67.1  22.8795  29.5567 i
 67.15  28.0836  29.5583 i
 67.2  33.4622  29.5599 i
 67.25  35.7285  29.5623 i
 67.3  35.1134  29.5647 i
 67.35  26.3669  29.569 i
 67.4  27.4633  29.5733 i
 67.45  31.809  29.5788 i
 67.5  23.1234  29.5843 i
 67.55  26.4473  29.5895 i
 67.6  34.1666  29.5946 i
 67.65  32.5273  29.5984 i
 67.7  40.5214  29.6022 i
 67.75  29.394  29.6054 i
 67.8  29.173  29.6087 i
 67.85  31.7949  29.613 i
 67.9  32.0011  29.6172 i
 67.95  34.8868  29.6232 i
 68  26.5753  29.6291 i
 68.05  31.3641  29.6357 i
 68.1  22.8798  29.6423 i
 68.15  50.0788  29.6484 i
 68.2  38.6237  29.6539 i
 68.25  31.0624  29.6584 i
 68.3  28.4785  29.663 i
 68.35  29.5017  29.6674 i
 68.4  33.4673  29.6718 i
 68.45  30.9656  29.6774 i
 68.5  34.5699  29.683 i
 68.55  29.6573  29.6899 i
 68.6  28.1566  29.6969 i
 68.65  33.0476  29.7041 i
 68.7  41.7836  29.7113 i
 68.75  36.4017  29.7174 i
 68.8  36.0094  29.7236 i
 68.85  25.1443  29.7287 i
 68.9  33.7141  29.7338 i
 68.95  28.7253  29.7392 i
 69  27.4325  29.7445 i
 69.05  24.4929  29.7511 i
 69.1  25.0319  29.7577 i
 69.15  26.4814  29.7654 i
 69.2  32.9031  29.773 i
 69.25  29.5387  29.7805 i
 69.3  24.4013  29.788 i
 69.35  22.8418  29.7944 i
 69.4  32.9282  29.8008 i
 69.45  28.7423  29.8064 i
 69.5  22.0931  29.812 i
 69.55  24.6217  29.8181 i
 69.6  27.3142  29.8242 i
 69.65  30.5191  29.8316 i
 69.7  37.4517  29.8389 i
 69.75  29.4547  29.8471 i
 69.8  32.1406  29.8552 i
 69.85  28.957  29.8629 i
 69.9  31.8697  29.8705 i
 69.95  34.0611  29.877 i
 70  27.8928  29.8835 i
 70.05  32.5299  29.8896 i
 70.1  26.0272  29.8956 i
 70.15  29.3684  29.9023 i
 70.2  31.6462  29.9091 i
 70.25  30.6805  29.917 i
 70.3  51.2856  29.925 i
 70.35  26.2114  29.9334 i
 70.4  28.2729  29.9418 i
 70.45  30.4981  29.9494 i
 70.5  29.2562  29.9571 i
 70.55  26.8003  29.9637 i
 70.6  26.0262  29.9703 i
 70.65  24.2183  29.9767 i
 70.7  36.6395  29.9831 i
 70.75  29.1932  29.9903 i
 70.8  37.0335  29.9976 i
 70.85  25.8095  30.0059 i
 70.9  29.5807  30.0143 i
 70.95  22.7791  30.0228 i
 71  23.282  30.0313 i
 71.05  30.2598  30.0389 i
 71.1  49.412  30.0465 i
 71.15  35.538  30.0532 i
 71.2  36.3842  30.0598 i
 71.25  31.0976  30.0665 i
 71.3  26.6844  30.0731 i
 71.35  36.931  30.0808 i
 71.4  30.0349  30.0884 i
 71.45  38.306  30.0969 i
 71.5  33.4494  30.1055 i
 71.55  35.6328  30.1139 i
 71.6  37.5048  30.1224 i
 71.65  30.3577  30.1299 i
 71.7  23.2875  30.1374 i
 71.75  37.8476  30.144 i
 71.8  31.8011  30.1507 i
 71.85  36.5782  30.1576 i
 71.9  36.3322  30.1644 i
 71.95  34.0258  30.1723 i
 72  32.9925  30.1801 i
 72.05  35.3241  30.1887 i
 72.1  32.765  30.1974 i
 72.15  40.1017  30.2057 i
 72.2  33.0599  30.214 i
 72.25  26.1385  30.2213 i
 72.3  29.46  30.2286 i
 72.35  31.0294  30.2352 i
 72.4  23.6847  30.2418 i
 72.45  27.2303  30.2487 i
 72.5  30.7826  30.2557 i
 72.55  33.8573  30.2636 i
 72.6  30.0968  30.2716 i
 72.65  30.5658  30.2801 i
 72.7  26.495  30.2887 i
 72.75  24.7451  30.2968 i
 72.8  21.9999  30.3048 i
 72.85  26.8803  30.3119 i
 72.9  37.4351  30.3189 i
 72.95  28.522  30.3254 i
 73  33.8021  30.3318 i
 73.05  38.7167  30.3388 i
 73.1  29.251  30.3457 i
 73.15  25.1455  30.3536 i
 73.2  38.2  30.3615 i
 73.25  41.865  30.3699 i
 73.3  18.6606  30.3783 i
 73.35  24.3515  30.386 i
 73.4  23.507  30.3938 i
 73.45  20.8249  30.4005 i
 73.5  24.5962  30.4072 i
 73.55  30.4508  30.4134 i
 73.6  32.3039  30.4197 i
 73.65  27.4785  30.4265 i
 73.7  30.9359  30.4333 i
 73.75  15.775  30.441 i
 73.8  36.8152  30.4488 i
 73.85  32.2402  30.4569 i
 73.9  29.2433  30.4649 i
 73.95  31.9737  30.4723 i
 74  33.0427  30.4796 i
 74.05  22.2045  30.4859 i
 74.1  26.4934  30.4922 i
 74.15  17.2339  30.4982 i
 74.2  35.934  30.5041 i
 74.25  30.7588  30.5107 i
 74.3  23.2515  30.5172 i
 74.35  30.1596  30.5247 i
 74.4  35.5712  30.5322 i
 74.45  30.3572  30.5399 i
 74.5  34.9055  30.5475 i
 74.55  23.0298  30.5544 i
 74.6  37.0166  30.5613 i
 74.65  36.87  30.5671 i
 74.7  25.5598  30.573 i
 74.75  28.5422  30.5785 i
 74.8  27.5686  30.584 i
 74.85  33.2841  30.5902 i
 74.9  26.5428  30.5964 i
 74.95  30.0922  30.6035 i
 75  40.9629  30.6106 i
 75.05  25.1007  30.6178 i
 75.1  44.9889  30.625 i
 75.15  25.8037  30.6313 i
 75.2  33.6339  30.6377 i
 75.25  26.8233  30.643 i
 75.3  30.8819  30.6483 i
 75.35  31.4646  30.6533 i
 75.4  37.1758  30.6583 i
 75.45  30.6738  30.664 i
 75.5  34.8474  30.6697 i
 75.55  37.6794  30.6763 i
 75.6  40.8462  30.6829 i
 75.65  32.1471  30.6895 i
 75.7  28.9746  30.6962 i
 75.75  38.3071  30.7019 i
 75.8  35.2267  30.7077 i
 75.85  31.6027  30.7123 i
 75.9  23.7148  30.717 i
 75.95  27.1784  30.7214 i
 76  25.4101  30.7258 i
 76.05  28.8736  30.7309 i
 76.1  34.153  30.7361 i
 76.15  23.7066  30.742 i
 76.2  29.885  30.748 i
 76.25  29.9605  30.7541 i
 76.3  34.6728  30.7601 i
 76.35  38.2133  30.7652 i
 76.4  30.2561  30.7703 i
 76.45  31.8147  30.7742 i
 76.5  24.1679  30.7782 i
 76.55  26.8062  30.7819 i
 76.6  20.2848  30.7856 i
 76.65  27.6787  30.79 i
 76.7  36.6604  30.7945 i
 76.75  29.8308  30.7997 i
 76.8  41.075  30.805 i
 76.85  28.4492  30.8104 i
 76.9  27.1107  30.8157 i
 76.95  36.0638  30.8201 i
 77  28.0513  30.8245 i
 77.05  27.4544  30.8278 i
 77.1  33.5477  30.831 i
 77.15  31.1979  30.8339 i
 77.2  28.9195  30.8368 i
 77.25  29.1684  30.8404 i
 77.3  35.1596  30.844 i
 77.35  36.2369  30.8486 i
 77.4  34.1521  30.8531 i
 77.45  29.0384  30.8577 i
 77.5  37.8016  30.8624 i
 77.55  29.9808  30.8661 i
 77.6  26.7339  30.8698 i
 77.65  30.6662  30.8722 i
 77.7  32.7165  30.8747 i
 77.75  32.6407  30.8768 i
 77.8  40.0778  30.8788 i
 77.85  35.5954  30.8815 i
 77.9  30.9597  30.8843 i
 77.95  27.838  30.888 i
 78  28.2089  30.8917 i
 78.05  29.2552  30.8956 i
 78.1  36.8708  30.8995 i
 78.15  38.162  30.9026 i
 78.2  34.5385  30.9056 i
 78.25  38.0983  30.9073 i
 78.3  32.0574  30.9091 i
 78.35  35.9545  30.9103 i
 78.4  33.005  30.9115 i
 78.45  24.2292  30.9133 i
 78.5  22.085  30.9151 i
 78.55  26.3548  30.918 i
 78.6  29.2479  30.921 i
 78.65  34.7111  30.9243 i
 78.7  41.7506  30.9276 i
 78.75  35.2951  30.9301 i
 78.8  36.1866  30.9326 i
 78.85  23.1955  30.9338 i
 78.9  25.0901  30.935 i
 78.95  28.4483  30.9356 i
 79  33.3762  30.9361 i
 79.05  17.8447  30.9371 i
 79.1  30.8879  30.9382 i
 79.15  23.5672  30.9405 i
 79.2  27.4329  30.9428 i
 79.25  34.0129  30.9459 i
 79.3  29.0821  30.9489 i
 79.35  42.539  30.9521 i
 79.4  30.9751  30.9553 i
 79.45  33.3507  30.9563 i
 79.5  32.6984  30.9573 i
 79.55  33.5952  30.9577 i
 79.6  28.7101  30.9581 i
 79.65  23.8903  30.9595 i
 79.7  39.4976  30.9608 i
 79.75  26.3753  30.964 i
 79.8  28.4604  30.9672 i
 79.85  37.0939  30.9718 i
 79.9  28.1653  30.9765 i
 79.95  34.5919  30.9812 i
 80  31.6499  30.986 i
 80.05  24.2973  30.99 i
 80.1  29.2719  30.9941 i
 80.15  34.0157  30.9981 i
 80.2  31.3777  31.0021 i
 80.25  31.1594  31.0077 i
 80.3  37.739  31.0133 i
 80.35  35.5585  31.0221 i
 80.4  30.6371  31.0309 i
 80.45  26.2365  31.0435 i
 80.5  29.631  31.056 i
 80.55  38.5924  31.0724 i
 80.6  27.8314  31.0888 i
 80.65  28.8642  31.1117 i
 80.7  34.8483  31.1346 i
 80.75  35.8851  31.1902 i
 80.8  33.582  31.2458 i
 80.85  23.5122  31.3275 i
 80.9  25.881  31.4092 i
 80.95  28.0724  31.4766 i
 81  31.7481  31.5441 i
 81.05  37.3772  31.6345 i
 81.1  49.0677  31.725 i
 81.15  34.4621  31.8567 i
 81.2  31.4048  31.9884 i
 81.25  29.3896  32.1907 i
 81.3  28.938  32.393 i
 81.35  27.782  32.7271 i
 81.4  36.683  33.0613 i
 81.45  31.7167  33.6686 i
 81.5  33.5589  34.2759 i
 81.55  31.3797  35.5313 i
 81.6  49.6569  36.7868 i
 81.65  41.7179  39.1516 i
 81.7  42.143  43.1689 i
 81.75  50.5658  50.8278 i
 81.8  52.3002  67.8021 i
 81.85  107.372  108.518 i
 81.9  209.105  189.118 i
 81.95  285.598  286.571 i
 82  273.732  308.712 i
 82.05  210.821  218.471 i
 82.1  121.679  118.767 i
 82.15  89.7  69.6824 i
 82.2  50.668  50.8526 i
 82.25  46.6262  42.7736 i
 82.3  38.2966  38.6572 i
 82.35  36.6795  36.7439 i
 82.4  24.8339  34.8306 i
 82.45  37.1166  34.0169 i
 82.5  35.9087  33.2033 i
 82.55  36.2737  32.7931 i
 82.6  33.6366  32.3828 i
 82.65  33.7863  32.1501 i
 82.7  40.8523  31.9174 i
 82.75  44.1695  31.7575 i
 82.8  21.8668  31.6293 i
 82.85  30.2626  31.5343 i
 82.9  37.9268  31.4393 i
 82.95  51.4838  31.368 i
 83  30.2163  31.3078 i
 83.05  28.2011  31.2572 i
 83.1  31.7879  31.2065 i
 83.15  24.7895  31.1481 i
 83.2  36.0913  31.0897 i
 83.25  31.4001  31.0557 i
 83.3  30.5208  31.0218 i
 83.35  27.0533  31.0003 i
 83.4  28.9024  30.9789 i
 83.45  39.2231  30.9619 i
 83.5  29.5326  30.9449 i
 83.55  26.8656  30.9315 i
 83.6  23.2981  30.9181 i
 83.65  38.9409  30.9077 i
 83.7  25.6975  30.8974 i
 83.75  37.4429  30.889 i
 83.8  23.8781  30.8806 i
 83.85  33.795  30.873 i
 83.9  20.3023  30.8654 i
 83.95  43.2002  30.8577 i
 84  28.7702  30.8501 i
 84.05  30.122  30.8426 i
 84.1  22.1678  30.835 i
 84.15  36.2407  30.8283 i
 84.2  33.2218  30.8215 i
 84.25  31.2976  30.816 i
 84.3  31.8118  30.8105 i
 84.35  24.7119  30.806 i
 84.4  26.5009  30.8015 i
 84.45  24.6589  30.7974 i
 84.5  35.3704  30.7932 i
 84.55  32.8269  30.7886 i
 84.6  39.4331  30.7841 i
 84.65  40.7871  30.779 i
 84.7  30.8404  30.774 i
 84.75  25.3891  30.7689 i
 84.8  33.4066  30.7639 i
 84.85  36.5388  30.7595 i
 84.9  30.848  30.7551 i
 84.95  31.2444  30.7515 i
 85  25.8117  30.7478 i
 85.05  32.1597  30.7446 i
 85.1  29.0891  30.7414 i
 85.15  32.9724  30.7379 i
 85.2  29.3232  30.7345 i
 85.25  29.3088  30.7304 i
 85.3  28.9372  30.7264 i
 85.35  24.2212  30.7221 i
 85.4  35.4989  30.7177 i
 85.45  33.0062  30.7136 i
 85.5  32.5483  30.7095 i
 85.55  31.0007  30.7059 i
 85.6  31.1916  30.7024 i
 85.65  36.2677  30.6993 i
 85.7  36.5983  30.6962 i
 85.75  30.6455  30.6932 i
 85.8  27.8458  30.6901 i
 85.85  30.7376  30.6866 i
 85.9  21.7883  30.6831 i
 85.95  26.0216  30.6791 i
 86  13.6393  30.6751 i
 86.05  23.5721  30.6711 i
 86.1  31.1026  30.667 i
 86.15  20.7616  30.6634 i
 86.2  26.26  30.6597 i
 86.25  26.7379  30.6565 i
 86.3  28.7643  30.6532 i
 86.35  23.9792  30.6502 i
 86.4  34.3482  30.6472 i
 86.45  29.9989  30.6439 i
 86.5  23.5245  30.6407 i
 86.55  27.7558  30.637 i
 86.6  35.1386  30.6332 i
 86.65  43.9673  30.6293 i
 86.7  32.4964  30.6253 i
 86.75  25.2879  30.6215 i
 86.8  37.8222  30.6176 i
 86.85  35.6664  30.6141 i
 86.9  35.1967  30.6107 i
 86.95  23.9923  30.6075 i
 87  35.1153  30.6043 i
 87.05  31.739  30.6011 i
 87.1  23.7632  30.5979 i
 87.15  29.1361  30.5944 i
 87.2  34.8229  30.5909 i
 87.25  33.4016  30.587 i
 87.3  32.208  30.5831 i
 87.35  31.6216  30.5792 i
 87.4  30.5367  30.5752 i
 87.45  26.2025  30.5715 i
 87.5  32.3644  30.5678 i
 87.55  26.7608  30.5643 i
 87.6  30.2502  30.5609 i
 87.65  33.6526  30.5577 i
 87.7  30.2737  30.5544 i
 87.75  29.076  30.5509 i
 87.8  25.0333  30.5475 i
 87.85  29.7984  30.5437 i
 87.9  26.0089  30.5399 i
 87.95  37.164  30.536 i
 88  30.8662  30.532 i
 88.05  23.8623  30.5281 i
 88.1  30.1303  30.5241 i
 88.15  34.6148  30.5205 i
 88.2  27.3788  30.5168 i
 88.25  28.247  30.5133 i
 88.3  30.4358  30.5099 i
 88.35  22.5035  30.5064 i
 88.4  32.7634  30.5029 i
 88.45  35.9433  30.4992 i
 88.5  26.9405  30.4955 i
 88.55  23.3686  30.4916 i
 88.6  35.0825  30.4877 i
 88.65  29.4857  30.4836 i
 88.7  30.2682  30.4796 i
 88.75  31.0666  30.4757 i
 88.8  38.6597  30.4718 i
 88.85  26.2678  30.4681 i
 88.9  21.1244  30.4644 i
 88.95  28.7528  30.4608 i
 89  26.2516  30.4572 i
 89.05  37.6477  30.4536 i
 89.1  23.1295  30.4499 i
 89.15  24.9438  30.446 i
 89.2  29.9822  30.4421 i
 89.25  38.2015  30.4381 i
 89.3  31.1502  30.434 i
 89.35  28.6063  30.43 i
 89.4  33.1507  30.4259 i
 89.45  36.0594  30.422 i
 89.5  27.6511  30.4181 i
 89.55  31.26  30.4143 i
 89.6  22.9549  30.4106 i
 89.65  31.4735  30.4068 i
 89.7  30.5164  30.4031 i
 89.75  25.5787  30.3992 i
 89.8  29.0597  30.3954 i
 89.85  36.6882  30.3913 i
 89.9  29.3532  30.3873 i
 89.95  26.1162  30.3832 i
 90  35.1735  30.3791 i
 90.05  22.4563  30.375 i
 90.1  26.2172  30.3709 i
 90.15  30.7811  30.367 i
 90.2  38.8287  30.363 i
 90.25  39.2114  30.3592 i
 90.3  30.5883  30.3553 i
 90.35  38.4614  30.3515 i
 90.4  40.5433  30.3476 i
 90.45  21.246  30.3436 i
 90.5  31.4595  30.3396 i
 90.55  24.7972  30.3354 i
 90.6  28.3887  30.3313 i
 90.65  28.8861  30.3272 i
 90.7  36.4638  30.323 i
 90.75  46.9908  30.3189 i
 90.8  34.3532  30.3148 i
 90.85  25.0283  30.3108 i
 90.9  35.1787  30.3068 i
 90.95  37.1634  30.3029 i
 91  42.9853  30.2989 i
 91.05  26.712  30.2949 i
 91.1  29.7971  30.2909 i
 91.15  22.2583  30.2867 i
 91.2  28.123  30.2826 i
 91.25  26.5517  30.2785 i
 91.3  41.9766  30.2743 i
 91.35  30.7671  30.2701 i
 91.4  27.7386  30.266 i
 91.45  37.9098  30.2619 i
 91.5  32.1999  30.2577 i
 91.55  27.6834  30.2537 i
 91.6  38.119  30.2496 i
 91.65  38.788  30.2455 i
 91.7  37.4288  30.2415 i
 91.75  28.2599  30.2373 i
 91.8  39.0986  30.2332 i
 91.85  42.4288  30.229 i
 91.9  27.1339  30.2249 i
 91.95  36.2528  30.2207 i
 92  28.6638  30.2165 i
 92.05  39.4083  30.2124 i
 92.1  27.4833  30.2082 i
 92.15  25.2016  30.2041 i
 92.2  30.5189  30.1999 i
 92.25  34.9624  30.1958 i
 92.3  28.1221  30.1917 i
 92.35  30.2309  30.1875 i
 92.4  34.4945  30.1833 i
 92.45  23.0621  30.1791 i
 92.5  24.2217  30.175 i
 92.55  43.4128  30.1708 i
 92.6  27.9958  30.1666 i
 92.65  30.1152  30.1624 i
 92.7  37.5132  30.1583 i
 92.75  23.6905  30.1541 i
 92.8  31.3626  30.15 i
 92.85  20.9743  30.1459 i
 92.9  25.7292  30.1417 i
 92.95  29.4978  30.1375 i
 93  31.3367  30.1333 i
 93.05  32.9471  30.1291 i
 93.1  23.5595  30.1249 i
 93.15  18.5867  30.1207 i
 93.2  38.0673  30.1165 i
 93.25  31.0492  30.1123 i
 93.3  30.1949  30.1082 i
 93.35  23.0545  30.1041 i
 93.4  30.4946  30.1 i
 93.45  29.1439  30.0968 i
 93.5  30.0829  30.0935 i
 93.55  26.3981  30.0891 i
 93.6  27.9315  30.0847 i
 93.65  32.7358  30.0802 i
 93.7  29.3398  30.0757 i
 93.75  29.9232  30.0714 i
 93.8  31.9859  30.067 i
 93.85  32.0562  30.063 i
 93.9  24.4935  30.059 i
 93.95  32.8807  30.0552 i
 94  34.7392  30.0515 i
 94.05  31.0536  30.0477 i
 94.1  27.8087  30.044 i
 94.15  28.6445  30.04 i
 94.2  26.2543  30.036 i
 94.25  38.917  30.0317 i
 94.3  46.0857  30.0274 i
 94.35  35.776  30.0229 i
 94.4  21.1506  30.0185 i
 94.45  18.8681  30.0142 i
 94.5  18.0405  30.0099 i
 94.55  32.4272  30.006 i
 94.6  33.0104  30.0021 i
 94.65  33.991  29.9986 i
 94.7  29.1972  29.995 i
 94.75  39.2903  29.9915 i
 94.8  36.1336  29.988 i
 94.85  26.1145  29.9843 i
 94.9  28.583  29.9805 i
 94.95  36.6932  29.9764 i
 95  35.3227  29.9723 i
 95.05  29.8557  29.968 i
 95.1  27.9539  29.9638 i
 95.15  36.879  29.9597 i
 95.2  27.738  29.9557 i
 95.25  26.8462  29.9521 i
 95.3  35.7982  29.9485 i
 95.35  29.7332  29.9453 i
 95.4  36.2222  29.9422 i
 95.45  22.222  29.9392 i
 95.5  31.3727  29.9361 i
 95.55  30.2283  29.9329 i
 95.6  32.0902  29.9297 i
 95.65  31.2712  29.9262 i
 95.7  32.7812  29.9227 i
 95.75  33.532  29.919 i
 95.8  35.1155  29.9153 i
 95.85  37.7559  29.9119 i
 95.9  30.729  29.9085 i
 95.95  28.5017  29.9057 i
 96  28.2786  29.9029 i
 96.05  34.564  29.9007 i
 96.1  28.8112  29.8986 i
 96.15  30.4513  29.8969 i
 96.2  35.1361  29.8951 i
 96.25  27.6435  29.8934 i
 96.3  27.3717  29.8917 i
 96.35  28.8061  29.8899 i
 96.4  32.1617  29.8881 i
 96.45  30.0242  29.8864 i
 96.5  24.8382  29.8847 i
 96.55  25.8014  29.8836 i
 96.6  36.9684  29.8825 i
 96.65  36.2643  29.8826 i
 96.7  25.9211  29.8826 i
 96.75  29.5454  29.8842 i
 96.8  27.7418  29.8857 i
 96.85  28.8052  29.8888 i
 96.9  30.3554  29.8918 i
 96.95  33.4434  29.8964 i
 97  23.5368  29.901 i
 97.05  40.2206  29.9074 i
 97.1  22.3553  29.9139 i
 97.15  34.7084  29.9236 i
 97.2  36.3534  29.9333 i
 97.25  20.7935  29.9509 i
 97.3  31.4347  29.9686 i
 97.35  35.9721  30.0062 i
 97.4  37.0578  30.0439 i
 97.45  32.1824  30.0859 i
 97.5  34.6408  30.1279 i
 97.55  35.2696  30.1789 i
 97.6  21.8595  30.2299 i
 97.65  20.7849  30.3035 i
 97.7  37.5308  30.377 i
 97.75  34.0909  30.4896 i
 97.8  37.1153  30.6022 i
 97.85  26.463  30.785 i
 97.9  31.1264  30.9677 i
 97.95  33.4568  31.287 i
 98  31.2148  31.6062 i
 98.05  33.4219  32.2197 i
 98.1  31.7594  32.8332 i
 98.15  39.9921  34.1887 i
 98.2  43.3218  35.5442 i
 98.25  37.2998  38.2597 i
 98.3  44.9926  43.1327 i
 98.35  55.5364  53.289 i
 98.4  67.3578  72.3542 i
 98.45  102.172  107.431 i
 98.5  151.864  150.546 i
 98.55  163.693  172.079 i
 98.6  143.021  150.386 i
 98.65  105.885  106.877 i
 98.7  62.0254  72.4888 i
 98.75  65.9613  54.339 i
 98.8  49.2883  44.4836 i
 98.85  35.997  40.511 i
 98.9  36.7168  36.5385 i
 98.95  32.5535  35.0008 i
 99  28.9492  33.4632 i
 99.05  25.6838  32.733 i
 99.1  38.101  32.0027 i
 99.15  33.5982  31.6077 i
 99.2  29.3902  31.2128 i
 99.25  39.4224  30.9779 i
 99.3  24.5851  30.743 i
 99.35  30.9208  30.5923 i
 99.4  24.1312  30.4416 i
 99.45  32.5639  30.3384 i
 99.5  32.3641  30.2351 i
 99.55  33.3254  30.1586 i
 99.6  45.2906  30.0821 i
 99.65  33.9667  30.0109 i
 99.7  30.7789  29.9396 i
 99.75  27.0558  29.8675 i
 99.8  32.4789  29.7953 i
 99.85  27.0008  29.7604 i
 99.9  34.7147  29.7256 i
 99.95  30.697  29.7046 i
 100  27.9409  29.6835 i
 100.05  30.1727  29.6674 i
 100.1  27.316  29.6512 i
 100.15  34.6487  29.6376 i
 100.2  27.043  29.6239 i
 100.25  26.0058  29.6121 i
 100.3  31.6132  29.6003 i
 100.35  25.7331  29.5901 i
 100.4  24.1562  29.5798 i
 100.45  34.1046  29.5711 i
 100.5  39.8483  29.5624 i
 100.55  32.2886  29.5549 i
 100.6  38.6097  29.5474 i
 100.65  30.0681  29.5406 i
 100.7  29.6679  29.5338 i
 100.75  29.9641  29.5274 i
 100.8  29.5118  29.5209 i
 100.85  28.2992  29.5144 i
 100.9  29.1754  29.5079 i
 100.95  30.0813  29.5015 i
 101  42.7995  29.4951 i
 101.05  22.4489  29.489 i
 101.1  26.3992  29.4828 i
 101.15  34.4063  29.4772 i
 101.2  35.3585  29.4716 i
 101.25  23.0929  29.4665 i
 101.3  24.8524  29.4615 i
 101.35  23.5609  29.4568 i
 101.4  24.9259  29.4522 i
 101.45  27.6952  29.4477 i
 101.5  29.9254  29.4432 i
 101.55  19.7347  29.4385 i
 101.6  29.9389  29.4339 i
 101.65  36.1715  29.4291 i
 101.7  27.8193  29.4242 i
 101.75  21.8405  29.418 i
 101.8  28.4135  29.4117 i
 101.85  22.6499  29.4073 i
 101.9  30.5504  29.4028 i
 101.95  33.5841  29.3987 i
 102  29.7256  29.3946 i
 102.05  28.2514  29.3908 i
 102.1  25.5094  29.3869 i
 102.15  28.6995  29.3829 i
 102.2  37.2157  29.379 i
 102.25  20.2101  29.3749 i
 102.3  38.73  29.3707 i
 102.35  32.604  29.3664 i
 102.4  26.8012  29.3621 i
 102.45  29.3109  29.3579 i
 102.5  23.5397  29.3536 i
 102.55  25.7663  29.3496 i
 102.6  31.8276  29.3455 i
 102.65  37.7608  29.3418 i
 102.7  39.6718  29.338 i
 102.75  40.2717  29.3345 i
 102.8  31.5115  29.3309 i
 102.85  36.7443  29.3274 i
 102.9  34.2862  29.3239 i
 102.95  35.4137  29.3202 i
 103  28.8883  29.3166 i
 103.05  30.7449  29.3127 i
 103.1  36.8027  29.3089 i
 103.15  32.9019  29.305 i
 103.2  19.9479  29.3012 i
 103.25  37.1858  29.2974 i
 103.3  25.1846  29.2936 i
 103.35  20.8664  29.2901 i
 103.4  27.534  29.2866 i
 103.45  28.2945  29.2833 i
 103.5  25.7351  29.28 i
 103.55  30.2345  29.2767 i
 103.6  26.4943  29.2735 i
 103.65  34.489  29.2702 i
 103.7  29.8285  29.2669 i
 103.75  22.7781  29.2634 i
 103.8  27.656  29.26 i
 103.85  23.4424  29.2564 i
 103.9  33.9911  29.2529 i
 103.95  34.3235  29.2494 i
 104  25.7712  29.2459 i
 104.05  43.7848  29.2425 i
 104.1  37.7337  29.2392 i
 104.15  25.2456  29.2361 i
 104.2  31.056  29.2329 i
 104.25  29.1304  29.2299 i
 104.3  24.2773  29.2269 i
 104.35  38.3779  29.2239 i
 104.4  31.0435  29.2209 i
 104.45  30.7551  29.2178 i
 104.5  37.1483  29.2147 i
 104.55  35.1214  29.2114 i
 104.6  38.9018  29.2082 i
 104.65  28.8443  29.2049 i
 104.7  33.5731  29.2016 i
 104.75  30.2485  29.1985 i
 104.8  23.7627  29.1953 i
 104.85  30.8468  29.1924 i
 104.9  43.8664  29.1895 i
 104.95  31.3932  29.1867 i
 105  27.7055  29.1839 i
 105.05  27.0313  29.1812 i
 105.1  23.9148  29.1784 i
 105.15  41.8305  29.1756 i
 105.2  31.7189  29.1728 i
 105.25  26.3389  29.1699 i
 105.3  20.9436  29.1669 i
 105.35  34.6965  29.1639 i
 105.4  24.9495  29.1609 i
 105.45  35.0513  29.158 i
 105.5  25.7798  29.155 i
 105.55  33.0416  29.1522 i
 105.6  42.2067  29.1494 i
 105.65  32.4433  29.1469 i
 105.7  33.1142  29.1443 i
 105.75  46.9249  29.1418 i
 105.8  26.9564  29.1394 i
 105.85  34.8719  29.1369 i
 105.9  33.7185  29.1344 i
 105.95  30.4755  29.1318 i
 106  29.4573  29.1292 i
 106.05  35.9206  29.1265 i
 106.1  31.2302  29.1237 i
 106.15  32.2895  29.121 i
 106.2  29.5266  29.1183 i
 106.25  14.002  29.1156 i
 106.3  30.5119  29.113 i
 106.35  24.4003  29.1106 i
 106.4  25.8255  29.1082 i
 106.45  30.4985  29.106 i
 106.5  33.264  29.1038 i
 106.55  33.6951  29.1016 i
 106.6  28.2962  29.0994 i
 106.65  25.5274  29.0972 i
 106.7  23.4527  29.0949 i
 106.75  26.1011  29.0925 i
 106.8  25.6611  29.0901 i
 106.85  22.6395  29.0876 i
 106.9  25.7255  29.085 i
 106.95  27.5376  29.0825 i
 107  25.9753  29.08 i
 107.05  39.7878  29.0776 i
 107.1  44.0869  29.0752 i
 107.15  39.4599  29.073 i
 107.2  39.0217  29.071 i
 107.25  25.9192  29.069 i
 107.3  32.2557  29.067 i
 107.35  25.0995  29.065 i
 107.4  32.0149  29.0631 i
 107.45  30.1642  29.061 i
 107.5  33.3585  29.0589 i
 107.55  35.8757  29.0566 i
 107.6  30.105  29.0543 i
 107.65  26.407  29.052 i
 107.7  24.6587  29.0496 i
 107.75  33.3441  29.0472 i
 107.8  28.0042  29.0449 i
 107.85  34.4892  29.0427 i
 107.9  29.4093  29.0406 i
 107.95  24.2592  29.0387 i
 108  27.9802  29.0368 i
 108.05  24.4377  29.035 i
 108.1  28.9405  29.0333 i
 108.15  33.6413  29.0315 i
 108.2  36.0413  29.0298 i
 108.25  40.8219  29.0279 i
 108.3  35.3841  29.0259 i
 108.35  27.9675  29.0238 i
 108.4  27.2818  29.0217 i
 108.45  22.3833  29.0194 i
 108.5  27.6122  29.0172 i
 108.55  29.5164  29.015 i
 108.6  34.9221  29.0128 i
 108.65  33.3846  29.0109 i
 108.7  34.1182  29.0089 i
 108.75  27.203  29.0072 i
 108.8  31.1554  29.0055 i
 108.85  32.478  29.004 i
 108.9  28.7743  29.0025 i
 108.95  29.3606  29.001 i
 109  41.8866  28.9995 i
 109.05  30.5138  28.9978 i
 109.1  37.1028  28.9961 i
 109.15  37.747  28.9941 i
 109.2  42.238  28.9922 i
 109.25  24.0484  28.9901 i
 109.3  22.8403  28.988 i
 109.35  28.9878  28.986 i
 109.4  27.2903  28.9839 i
 109.45  30.2227  28.9821 i
 109.5  34.3493  28.9804 i
 109.55  35.1609  28.9789 i
 109.6  25.0197  28.9774 i
 109.65  25.025  28.9762 i
 109.7  32.0885  28.9749 i
 109.75  29.9072  28.9737 i
 109.8  28.1489  28.9724 i
 109.85  34.3687  28.971 i
 109.9  31.5298  28.9695 i
 109.95  28.3528  28.9678 i
 110  21.9496  28.966 i
 110.05  26.5652  28.9641 i
 110.1  26.997  28.9622 i
 110.15  28.8901  28.9603 i
 110.2  27.0221  28.9584 i
 110.25  28.7549  28.9568 i
 110.3  31.9205  28.9552 i
 110.35  31.5057  28.9539 i
 110.4  32.9858  28.9527 i
 110.45  40.6571  28.9517 i
 110.5  16.9112  28.9507 i
 110.55  17.6086  28.9498 i
 110.6  31.012  28.9489 i
 110.65  23.9508  28.9478 i
 110.7  27.3947  28.9467 i
 110.75  38.3844  28.9453 i
 110.8  30.6847  28.9439 i
 110.85  44.4236  28.9422 i
 110.9  31.5497  28.9405 i
 110.95  25.2899  28.9388 i
 111  27.8982  28.9371 i
 111.05  24.2957  28.9357 i
 111.1  29.1419  28.9342 i
 111.15  33.0621  28.9332 i
 111.2  34.7069  28.9321 i
 111.25  28.3535  28.9315 i
 111.3  26.1051  28.9308 i
 111.35  26.3866  28.9304 i
 111.4  21.9459  28.9299 i
 111.45  32.5023  28.9293 i
 111.5  31.3567  28.9287 i
 111.55  26.5486  28.9278 i
 111.6  31.566  28.9269 i
 111.65  26.1993  28.9257 i
 111.7  28.6155  28.9245 i
 111.75  22.5424  28.9231 i
 111.8  27.5247  28.9218 i
 111.85  28.5048  28.9206 i
 111.9  28.3805  28.9195 i
 111.95  29.9642  28.9188 i
 112  35.2987  28.9181 i
 112.05  36.8859  28.9179 i
 112.1  34.7845  28.9177 i
 112.15  33.6029  28.918 i
 112.2  38.4309  28.9182 i
 112.25  32.8574  28.9185 i
 112.3  32.8111  28.9188 i
 112.35  48.3896  28.9189 i
 112.4  40.6691  28.9189 i
 112.45  33.609  28.9186 i
 112.5  31.9602  28.9184 i
 112.55  34.3968  28.9179 i
 112.6  20.1744  28.9174 i
 112.65  20.4042  28.9171 i
 112.7  28.0759  28.9167 i
 112.75  38.4529  28.9169 i
 112.8  26.6076  28.917 i
 112.85  27.8783  28.9179 i
 112.9  33.1338  28.9188 i
 112.95  40.3802  28.9205 i
 113  37.3321  28.9222 i
 113.05  31.9976  28.9244 i
 113.1  39.7767  28.9266 i
 113.15  31.0499  28.9289 i
 113.2  34.8127  28.9313 i
 113.25  31.8473  28.9336 i
 113.3  27.5599  28.936 i
 113.35  26.3902  28.9383 i
 113.4  31.7006  28.9406 i
 113.45  28.233  28.9433 i
 113.5  26.2638  28.946 i
 113.55  26.2279  28.9495 i
 113.6  26.0654  28.9531 i
 113.65  35.0907  28.9581 i
 113.7  31.5981  28.9631 i
 113.75  24.3741  28.97 i
 113.8  21.8448  28.9769 i
 113.85  36.827  28.9859 i
 113.9  31.6454  28.9948 i
 113.95  26.8158  29.0059 i
 114  28.4466  29.017 i
 114.05  19.0416  29.0305 i
 114.1  25.5556  29.0439 i
 114.15  42.6804  29.0602 i
 114.2  35.7364  29.0766 i
 114.25  29.5409  29.097 i
 114.3  30.8724  29.1175 i
 114.35  24.2692  29.1444 i
 114.4  20.3495  29.1713 i
 114.45  27.7558  29.2081 i
 114.5  21.547  29.2449 i
 114.55  25.6268  29.2968 i
 114.6  29.8898  29.3487 i
 114.65  36.9188  29.4225 i
 114.7  32.2065  29.4963 i
 114.75  25.1055  29.5988 i
 114.8  25.1967  29.7013 i
 114.85  23.3349  29.8409 i
 114.9  21.1665  29.9805 i
 114.95  22.1173  30.1764 i
 115  21.1587  30.3723 i
 115.05  31.3595  30.6608 i
 115.1  32.9083  30.9493 i
 115.15  43.185  31.3437 i
 115.2  39.5827  31.8384 i
 115.25  34.7095  32.5542 i
 115.3  36.6795  33.27 i
 115.35  39.06  34.4765 i
 115.4  43.0109  35.6829 i
 115.45  47.6846  37.5015 i
 115.5  40.9262  39.9433 i
 115.55  58.2577  43.3161 i
 115.6  46.6476  47.7459 i
 115.65  55.2549  53.9255 i
 115.7  46.8555  61.8178 i
 115.75  83.5025  71.8058 i
 115.8  69.1675  83.0989 i
 115.85  79.8973  93.8784 i
 115.9  117.034  101.404 i
 115.95  98.9558  103.148 i
 116  93.3222  98.6589 i
 116.05  80.1506  89.3165 i
 116.1  69.2789  78.0916 i
 116.15  57.7746  67.2799 i
 116.2  61.3332  58.1919 i
 116.25  52.17  51.2074 i
 116.3  39.5521  45.7945 i
 116.35  43.5833  41.8654 i
 116.4  51.7001  38.9628 i
 116.45  38.4125  36.8045 i
 116.5  37.6797  35.1836 i
 116.55  41.845  33.9523 i
 116.6  38.4967  33.006 i
 116.65  37.4766  32.3487 i
 116.7  31.8607  31.6915 i
 116.75  30.1766  31.2763 i
 116.8  38.3202  30.8612 i
 116.85  35.3546  30.5869 i
 116.9  26.737  30.3126 i
 116.95  29.8916  30.1225 i
 117  36.6633  29.9323 i
 117.05  32.4656  29.794 i
 117.1  37.7589  29.6556 i
 117.15  24.6912  29.5534 i
 117.2  36.5561  29.4512 i
 117.25  20.3428  29.3776 i
 117.3  23.1461  29.3039 i
 117.35  32.1131  29.2513 i
 117.4  35.4458  29.1987 i
 117.45  29.3174  29.1607 i
 117.5  30.3843  29.1226 i
 117.55  30.2272  29.0942 i
 117.6  35.3542  29.0659 i
 117.65  35.5531  29.044 i
 117.7  41.0809  29.022 i
 117.75  42.755  29.0043 i
 117.8  29.3441  28.9866 i
 117.85  38.5852  28.9717 i
 117.9  20.6336  28.9567 i
 117.95  30.421  28.9438 i
 118  32.4956  28.9309 i
 118.05  33.74  28.9197 i
 118.1  29.1724  28.9085 i
 118.15  36.9519  28.899 i
 118.2  29.6947  28.8896 i
 118.25  31.0555  28.882 i
 118.3  30.4294  28.8744 i
 118.35  38.8995  28.8684 i
 118.4  28.5691  28.8624 i
 118.45  32.8025  28.8578 i
 118.5  39.3235  28.8532 i
 118.55  35.5679  28.8493 i
 118.6  27.9307  28.8455 i
 118.65  24.1449  28.8419 i
 118.7  30.9474  28.8383 i
 118.75  38.6681  28.8347 i
 118.8  30.2867  28.831 i
 118.85  38.946  28.8271 i
 118.9  20.4565  28.8232 i
 118.95  29.5749  28.8193 i
 119  32.8319  28.8153 i
 119.05  37.3466  28.8117 i
 119.1  36.2494  28.808 i
 119.15  43.3378  28.805 i
 119.2  22.3792  28.8019 i
 119.25  24.7709  28.7997 i
 119.3  27.5376  28.7974 i
 119.35  29.1003  28.7958 i
 119.4  30.7528  28.7943 i
 119.45  25.6708  28.7932 i
 119.5  35.7158  28.792 i
 119.55  33.939  28.791 i
 119.6  31.7379  28.7899 i
 119.65  37.7749  28.7885 i
 119.7  47.9296  28.7872 i
 119.75  31.2186  28.7854 i
 119.8  27.6738  28.7836 i
 119.85  22.3256  28.7814 i
 119.9  32.2615  28.7793 i
 119.95  36.1627  28.777 i
 120  26.5202  28.7748 i
 120.05  37.7664  28.7728 i
 120.1  33.832  28.7708 i
 120.15  31.3621  28.7693 i
 120.2  31.4771  28.7678 i
 120.25  32.265  28.7669 i
 120.3  25.9127  28.766 i
 120.35  38.3594  28.7655 i
 120.4  29.5656  28.7651 i
 120.45  38.5007  28.7647 i
 120.5  36.2558  28.7644 i
 120.55  25.5981  28.7639 i
 120.6  45.4585  28.7634 i
 120.65  41.6108  28.7626 i
 120.7  33.6929  28.7616 i
 120.75  41.2197  28.7603 i
 120.8  24.986  28.7589 i
 120.85  36.937  28.7573 i
 120.9  35.3281  28.7557 i
 120.95  22.139  28.7541 i
 121  27.8123  28.7525 i
 121.05  27.956  28.7512 i
 121.1  28.4522  28.7499 i
 121.15  27.6161  28.749 i
 121.2  39.9574  28.7482 i
 121.25  30.0823  28.7478 i
 121.3  28.0492  28.7474 i
 121.35  24.3049  28.7473 i
 121.4  35.9292  28.7472 i
 121.45  35.9316  28.747 i
 121.5  39.0734  28.7469 i
 121.55  39.5913  28.7466 i
 121.6  33.7962  28.7462 i
 121.65  29.6988  28.7454 i
 121.7  27.1654  28.7446 i
 121.75  21.1501  28.7435 i
 121.8  33.0311  28.7423 i
 121.85  42.051  28.741 i
 121.9  35.706  28.7397 i
 121.95  32.8276  28.7384 i
 122  34.0871  28.7371 i
 122.05  34.9139  28.7362 i
 122.1  23.2411  28.7352 i
 122.15  28.418  28.7347 i
 122.2  24.1054  28.7341 i
 122.25  35.6989  28.734 i
 122.3  38.3119  28.7338 i
 122.35  29.418  28.7338 i
 122.4  26.9669  28.7338 i
 122.45  30.872  28.7338 i
 122.5  31.3278  28.7337 i
 122.55  30.1797  28.7334 i
 122.6  26.9402  28.7331 i
 122.65  27.5787  28.7323 i
 122.7  32.2302  28.7316 i
 122.75  23.4184  28.7298 i
 122.8  29.5328  28.7281 i
 122.85  28.7606  28.727 i
 122.9  26.6596  28.726 i
 122.95  26.2703  28.7251 i
 123  26.7723  28.7241 i
 123.05  24.019  28.7235 i
 123.1  28.5986  28.7228 i
 123.15  44.717  28.7225 i
 123.2  23.0709  28.7221 i
 123.25  31.6117  28.722 i
 123.3  31.3597  28.7219 i
 123.35  34.5269  28.7218 i
 123.4  37.0393  28.7217 i
 123.45  27.7133  28.7215 i
 123.5  35.0967  28.7214 i
 123.55  33.1208  28.721 i
 123.6  21.9962  28.7205 i
 123.65  39.1145  28.7199 i
 123.7  32.2903  28.7192 i
 123.75  27.435  28.7183 i
 123.8  33.3293  28.7174 i
 123.85  32.6736  28.7165 i
 123.9  24.2359  28.7156 i
 123.95  39.5701  28.7148 i
 124  28.8487  28.7139 i
 124.05  23.7369  28.7134 i
 124.1  33.597  28.7128 i
 124.15  37.4252  28.7125 i
 124.2  27.6666  28.7122 i
 124.25  18.6277  28.712 i
 124.3  30.4747  28.7119 i
 124.35  27.2415  28.7119 i
 124.4  33.1119  28.7118 i
 124.45  35.1595  28.7116 i
 124.5  24.422  28.7115 i
 124.55  37.5639  28.7111 i
 124.6  24.8107  28.7108 i
 124.65  27.9634  28.7102 i
 124.7  35.6968  28.7096 i
 124.75  30.4576  28.7088 i
 124.8  29.1789  28.708 i
 124.85  21.858  28.7071 i
 124.9  29.717  28.7063 i
 124.95  41.4658  28.7055 i
 125  21.7917  28.7047 i
 125.05  32.9796  28.7042 i
 125.1  29.0334  28.7036 i
 125.15  32.8368  28.7033 i
 125.2  22.8684  28.7029 i
 125.25  33.1356  28.7028 i
 125.3  35.4495  28.7026 i
 125.35  31.0479  28.7025 i
 125.4  33.5321  28.7025 i
 125.45  22.6934  28.7023 i
 125.5  31.7122  28.7022 i
 125.55  23.0365  28.7019 i
 125.6  20.9469  28.7016 i
 125.65  36.9539  28.7011 i
 125.7  28.5874  28.7006 i
 125.75  29.35  28.6999 i
 125.8  17.4247  28.6991 i
 125.85  37.345  28.6983 i
 125.9  29.0468  28.6975 i
 125.95  26.4054  28.6968 i
 126  24.5171  28.696 i
 126.05  38.8405  28.6954 i
 126.1  32.2268  28.6948 i
 126.15  24.4341  28.6944 i
 126.2  29.1666  28.694 i
 126.25  29.9116  28.6937 i
 126.3  40.3538  28.6935 i
 126.35  27.3436  28.6934 i
 126.4  31.0107  28.6933 i
 126.45  27.8205  28.6932 i
 126.5  36.9712  28.6931 i
 126.55  28.5025  28.6928 i
 126.6  39.3009  28.6926 i
 126.65  28.6861  28.6922 i
 126.7  30.6989  28.6917 i
 126.75  35.4683  28.6911 i
 126.8  39.4043  28.6905 i
 126.85  36.2493  28.6897 i
 126.9  31.0075  28.689 i
 126.95  24.4893  28.6882 i
 127  24.1293  28.6874 i
 127.05  33.4084  28.6867 i
 127.1  34.6553  28.686 i
 127.15  25.1475  28.6855 i
 127.2  37.9184  28.685 i
 127.25  27.2572  28.6847 i
 127.3  32.4697  28.6844 i
 127.35  35.6902  28.6842 i
 127.4  36.0336  28.684 i
 127.45  31.7124  28.6839 i
 127.5  29.5802  28.6837 i
 127.55  33.8659  28.6835 i
 127.6  29.9838  28.6833 i
 127.65  32.9939  28.683 i
 127.7  37.9084  28.6826 i
 127.75  33.232  28.6821 i
 127.8  18.8438  28.6816 i
 127.85  32.84  28.6809 i
 127.9  27.237  28.6802 i
 127.95  17.7755  28.6794 i
 128  28.0709  28.6787 i
 128.05  33.9445  28.6779 i
 128.1  26.0723  28.6772 i
 128.15  40.8166  28.6765 i
 128.2  28.4591  28.6759 i
 128.25  31.4129  28.6754 i
 128.3  22.1663  28.6749 i
 128.35  25.622  28.6746 i
 128.4  24.1916  28.6743 i
 128.45  19.442  28.6741 i
 128.5  19.6385  28.6738 i
 128.55  29.5415  28.6736 i
 128.6  35.0256  28.6735 i
 128.65  22.0903  28.6732 i
 128.7  39.9171  28.6729 i
 128.75  28.0067  28.6725 i
 128.8  21.1703  28.6721 i
 128.85  29.7977  28.6715 i
 128.9  27.238  28.6709 i
 128.95  28.6927  28.6702 i
 129  27.2265  28.6694 i
 129.05  35.4478  28.6686 i
 129.1  23.4443  28.6678 i
 129.15  29.7706  28.6671 i
 129.2  25.8955  28.6663 i
 129.25  19.1164  28.6656 i
 129.3  32.4575  28.665 i
 129.35  37.2054  28.6645 i
 129.4  33.6104  28.664 i
 129.45  37.592  28.6636 i
 129.5  30.762  28.6633 i
 129.55  32.3712  28.663 i
 129.6  31.0983  28.6627 i
 129.65  24.8573  28.6625 i
 129.7  28.198  28.6622 i
 129.75  23.7961  28.6619 i
 129.8  31.7763  28.6615 i
 129.85  28.3035  28.661 i
 129.9  31.9681  28.6606 i
 129.95  25.2821  28.6716 i
 130  35.396  28.6826 i

