40 50.7235 37.4964 13.2271
40.05 35.7195 37.4757 -1.7562
40.1 36.6107 37.455 -0.8443
40.15 42.9065 37.4358 5.4707
40.2 51.4472 37.4167 14.0305
40.25 39.2176 37.3959 1.8217
40.3 29.9567 37.3751 -7.4184
40.35 40.7031 37.3519 3.3512
40.4 46.8372 37.3286 9.5086
40.45 38.9941 37.3057 1.6884
40.5 41.7132 37.2828 4.4304
40.55 51.1196 37.2621 13.8575
40.6 48.5026 37.243 11.2596
40.65 29.3652 37.225 -7.8598
40.7 50.7736 37.207 13.5666
40.75 31.2875 37.1874 -5.8999
40.8 38.2531 37.1678 1.0853
40.85 41.3348 37.1456 4.1892
40.9 36.5867 37.1233 -0.5366
40.95 41.2502 37.1014 4.1488
41 35.8815 37.0795 -1.198
41.05 28.4532 37.061 -8.6078
41.1 48.5037 37.0425 11.4612
41.15 40.5417 37.0264 3.5153
41.2 38.3916 37.0102 1.3814
41.25 40.8609 36.9927 3.8682
41.3 47.1289 36.9753 10.1536
41.35 40.3064 36.955 3.3514
41.4 36.404 36.9348 -0.5308
41.45 37.3068 36.9149 0.3919
41.5 48.1195 36.895 11.2245
41.55 53.3234 36.8779 16.4455
41.6 40.6202 36.863 3.7572
41.65 42.7608 36.8503 5.9105
41.7 38.8621 36.8376 2.0245
41.75 38.11 36.8241 1.2859
41.8 32.7515 36.8106 -4.0591
41.85 41.5264 36.7945 4.7319
41.9 42.4114 36.7784 5.633
41.95 41.7303 36.7629 4.9674
42 28.4715 36.7473 -8.2758
42.05 29.3696 36.7368 -7.3672
42.1 51.7648 36.7262 15.0386
42.15 35.2806 36.7206 -1.44
42.2 41.5152 36.7149 4.8003
42.25 46.9456 36.71 10.2356
42.3 38.5119 36.7051 1.8068
42.35 30.5712 36.6986 -6.1274
42.4 40.2478 36.6921 3.5557
42.45 37.3807 36.6876 0.6931
42.5 54.675 36.6831 17.9919
42.55 30.4323 36.6862 -6.2539
42.6 40.2051 36.6894 3.5157
42.65 47.872 36.7016 11.1704
42.7 34.4596 36.7138 -2.2542
42.75 52.9674 36.7308 16.2366
42.8 26.536 36.7498 -10.2138
42.85 41.3628 36.7719 4.5909
42.9 45.8549 36.7941 9.0608
42.95 35.584 36.8263 -1.2423
43 28.517 36.8585 -8.3415
43.05 36.2768 36.9138 -0.637
43.1 43.4313 36.9692 6.4621
43.15 42.702 37.1284 5.5736
43.2 34.1289 37.2876 -3.1587
43.25 21.9082 37.6121 -15.7039
43.3 38.4487 37.9365 0.5122
43.35 37.2306 38.1507 -0.9201
43.4 35.6685 38.3648 -2.6963
43.45 32.0462 38.6538 -6.6076
43.5 35.8189 38.9428 -3.1239
43.55 42.7836 39.368 3.4156
43.6 38.7263 39.7932 -1.0669
43.65 37.1543 40.4495 -3.2952
43.7 40.2948 41.1058 -0.811
43.75 31.0009 42.1727 -11.1718
43.8 50.2734 43.2396 7.0338
43.85 47.7775 44.8359 2.9416
43.9 47.6713 47.0151 0.6562
43.95 54.5193 50.1031 4.4162
44 47.8606 54.6985 -6.8379
44.05 57.8365 62.3555 -4.519
44.1 66.59 75.4044 -8.8144
44.15 80.0948 105.996 -25.9012
44.2 153.713 194.725 -41.012
44.25 397.243 453.71 -56.467
44.3 1177.89 1040.61 137.28
44.35 2144.98 1891.91 253.07
44.4 2153.2 2392.59 -239.39
44.45 1483.26 1498.11 -14.85
44.5 455.712 409.769 45.943
44.55 180.586 151.466 29.12
44.6 97.3006 92.5779 4.7227
44.65 53.6389 70.1246 -16.4857
44.7 51.9447 57.9791 -6.0344
44.75 44.9185 51.3625 -6.444
44.8 58.0337 47.2316 10.8021
44.85 53.9055 44.4851 9.4204
44.9 35.7089 42.5669 -6.858
44.95 43.3616 41.3463 2.0153
45 43.8763 40.1257 3.7506
45.05 42.0378 39.4032 2.6346
45.1 35.425 38.6807 -3.2557
45.15 33.6855 38.218 -4.5325
45.2 36.1929 37.7553 -1.5624
45.25 37.3962 37.442 -0.0458
45.3 34.3311 37.1287 -2.7976
45.35 40.4343 36.903 3.5313
45.4 36.5236 36.6772 -0.1536
45.45 33.6632 36.5014 -2.8382
45.5 39.8882 36.3257 3.5625
45.55 31.8967 36.1627 -4.266
45.6 36.7583 35.9997 0.7586
45.65 32.7971 35.8448 -3.0477
45.7 41.1595 35.6899 5.4696
45.75 30.8159 35.6016 -4.7857
45.8 39.7391 35.5134 4.2257
45.85 22.4957 35.442 -12.9463
45.9 35.1374 35.3705 -0.2331
45.95 29.2703 35.3057 -6.0354
46 36.7122 35.2408 1.4714
46.05 31.2945 35.1795 -3.885
46.1 38.3935 35.1181 3.2754
46.15 41.0473 35.0632 5.9841
46.2 34.6532 35.0083 -0.3551
46.25 46.5974 34.9623 11.6351
46.3 40.6423 34.9163 5.726
46.35 40.0324 34.8766 5.1558
46.4 33.6587 34.8369 -1.1782
46.45 26.9195 34.7979 -7.8784
46.5 31.6513 34.7588 -3.1075
46.55 32.3161 34.7183 -2.4022
46.6 42.3375 34.6777 7.6598
46.65 31.5939 34.6387 -3.0448
46.7 24.8587 34.5997 -9.741
46.75 46.235 34.5658 11.6692
46.8 36.8945 34.532 2.3625
46.85 43.9272 34.5025 9.4247
46.9 42.9045 34.473 8.4315
46.95 44.6086 34.4435 10.1651
47 32.1098 34.4139 -2.3041
47.05 38.972 34.3818 4.5902
47.1 30.5589 34.3497 -3.7908
47.15 31.2657 34.3172 -3.0515
47.2 38.6354 34.2848 4.3506
47.25 35.4585 34.2557 1.2028
47.3 26.8478 34.2267 -7.3789
47.35 26.4418 34.2014 -7.7596
47.4 30.8504 34.176 -3.3256
47.45 46.5424 34.1509 12.3915
47.5 41.1079 34.1258 6.9821
47.55 44.8682 34.098 10.7702
47.6 40.4389 34.0702 6.3687
47.65 30.973 34.0412 -3.0682
47.7 40.4736 34.0121 6.4615
47.75 33.7535 33.9854 -0.2319
47.8 32.5171 33.9586 -1.4415
47.85 45.585 33.9352 11.6498
47.9 27.6175 33.9118 -6.2943
47.95 29.1723 33.889 -4.7167
48 24.8622 33.8663 -9.0041
48.05 51.1698 33.8419 17.3279
48.1 38.5575 33.8161 4.7414
48.15 35.1808 33.7892 1.3916
48.2 31.4937 33.7622 -2.2685
48.25 37.6298 33.7367 3.8931
48.3 29.1737 33.7112 -4.5375
48.35 27.5326 33.6888 -6.1562
48.4 30.4545 33.6663 -3.2118
48.45 32.8442 33.645 -0.8008
48.5 37.6318 33.6236 4.0082
48.55 39.6253 33.6003 6.025
48.6 32.6178 33.5771 -0.9593
48.65 41.4623 33.5517 7.9106
48.7 31.1592 33.5264 -2.3672
48.75 30.2723 33.5017 -3.2294
48.8 31.4736 33.477 -2.0034
48.85 34.6223 33.4551 1.1672
48.9 45.3742 33.4331 11.9411
48.95 30.6036 33.4126 -2.809
49 47.7892 33.3922 14.397
49.05 30.1691 33.3714 -3.2023
49.1 41.3882 33.3507 8.0375
49.15 30.9548 33.3264 -2.3716
49.2 27.0189 33.302 -6.2831
49.25 27.2574 33.2775 -6.0201
49.3 29.9994 33.2531 -3.2537
49.35 30.3127 33.2314 -2.9187
49.4 43.6651 33.2097 10.4554
49.45 33.476 33.1902 0.2858
49.5 37.92 33.1707 4.7493
49.55 32.4155 33.1502 -0.7347
49.6 24.8726 33.1298 -8.2572
49.65 29.4255 33.1066 -3.6811
49.7 33.29 33.0835 0.2065
49.75 36.4682 33.0596 3.4086
49.8 39.1728 33.0357 6.1371
49.85 23.5228 33.0141 -9.4913
49.9 19.2086 32.9924 -13.7838
49.95 40.8822 32.9733 7.9089
50 30.3188 32.9541 -2.6353
50.05 40.9449 32.9346 8.0103
50.1 23.3757 32.9152 -9.5395
50.15 31.3989 32.8932 -1.4943
50.2 39.2526 32.8712 6.3814
50.25 26.248 32.8479 -6.5999
50.3 50.4649 32.8247 17.6402
50.35 31.5996 32.8031 -1.2035
50.4 44.8345 32.7815 12.053
50.45 39.8039 32.7624 7.0415
50.5 28.7671 32.7434 -3.9763
50.55 43.0851 32.7248 10.3603
50.6 31.972 32.7061 -0.7341
50.65 35.1683 32.6852 2.4831
50.7 34.7507 32.6644 2.0863
50.75 30.5096 32.6418 -2.1322
50.8 39.7421 32.6192 7.1229
50.85 35.7845 32.5977 3.1868
50.9 32.1673 32.5761 -0.4088
50.95 28.9499 32.5572 -3.6073
51 37.2462 32.5382 4.708
51.05 33.6658 32.5202 1.1456
51.1 44.3443 32.5022 11.8421
51.15 23.7639 32.4824 -8.7185
51.2 32.7894 32.4626 0.3268
51.25 33.5352 32.4408 1.0944
51.3 35.9474 32.419 3.5284
51.35 32.0828 32.3976 -0.3148
51.4 43.0781 32.3762 10.7019
51.45 25.6985 32.3572 -6.6587
51.5 32.407 32.3382 0.0688
51.55 35.7371 32.3207 3.4164
51.6 39.0023 32.3032 6.6991
51.65 31.2909 32.2844 -0.9935
51.7 25.9223 32.2657 -6.3434
51.75 47.1821 32.2448 14.9373
51.8 37.9218 32.2239 5.6979
51.85 38.2968 32.2027 6.0941
51.9 28.8898 32.1816 -3.2918
51.95 32.7013 32.1625 0.5388
52 40.1023 32.1434 7.9589
52.05 36.1397 32.1263 4.0134
52.1 40.3245 32.1091 8.2154
52.15 32.8784 32.0913 0.7871
52.2 34.578 32.0735 2.5045
52.25 42.766 32.0536 10.7124
52.3 31.097 32.0337 -0.9367
52.35 33.2841 32.0129 1.2712
52.4 41.7871 31.9921 9.795
52.45 24.3598 31.973 -7.6132
52.5 17.5641 31.9539 -14.3898
52.55 33.4531 31.9369 1.5162
52.6 30.4814 31.9199 -1.4385
52.65 30.1743 31.903 -1.7287
52.7 40.2151 31.8861 8.329
52.75 31.0334 31.8672 -0.8338
52.8 29.8282 31.8484 -2.0202
52.85 44.2658 31.8281 12.4377
52.9 41.0196 31.8079 9.2117
52.95 24.1301 31.7888 -7.6587
53 29.5207 31.7696 -2.2489
53.05 27.4621 31.7527 -4.2906
53.1 36.2064 31.7358 4.4706
53.15 26.9629 31.7197 -4.7568
53.2 27.5241 31.7035 -4.1794
53.25 30.5396 31.6857 -1.1461
53.3 34.4888 31.6679 2.8209
53.35 29.8324 31.6484 -1.816
53.4 31.1939 31.6289 -0.435
53.45 39.0342 31.6099 7.4243
53.5 32.4382 31.5908 0.8474
53.55 20.4983 31.5739 -11.0756
53.6 37.5927 31.557 6.0357
53.65 38.41 31.5414 6.8686
53.7 31.9299 31.5258 0.4041
53.75 30.4187 31.5091 -1.0904
53.8 35.8827 31.4925 4.3902
53.85 29.2013 31.4739 -2.2726
53.9 31.7742 31.4553 0.3189
53.95 39.5422 31.4364 8.1058
54 25.3528 31.4176 -6.0648
54.05 35.4469 31.4006 4.0463
54.1 28.8606 31.3836 -2.523
54.15 28.2268 31.3684 -3.1416
54.2 33.2323 31.3532 1.8791
54.25 28.0274 31.3376 -3.3102
54.3 36.9586 31.322 5.6366
54.35 33.0161 31.3044 1.7117
54.4 30.7936 31.2869 -0.4933
54.45 37.1658 31.2684 5.8974
54.5 38.5995 31.25 7.3495
54.55 35.5749 31.233 4.3419
54.6 43.3774 31.2159 12.1615
54.65 41.5415 31.201 10.3405
54.7 21.3748 31.186 -9.8112
54.75 30.3301 31.1713 -0.8412
54.8 35.612 31.1566 4.4554
54.85 24.2053 31.1402 -6.9349
54.9 34.5942 31.1239 3.4703
54.95 31.6572 31.1061 0.5511
55 42.2791 31.0883 11.1908
55.05 29.0922 31.0712 -1.979
55.1 36.5517 31.0542 5.4975
55.15 27.3821 31.0393 -3.6572
55.2 28.6154 31.0244 -2.409
55.25 29.2622 31.0105 -1.7483
55.3 28.0316 30.9965 -2.9649
55.35 24.4768 30.9814 -6.5046
55.4 41.4162 30.9662 10.45
55.45 28.7629 30.9493 -2.1864
55.5 28.7527 30.9324 -2.1797
55.55 36.1811 30.9155 5.2656
55.6 41.8162 30.8986 10.9176
55.65 39.2394 30.8836 8.3558
55.7 28.562 30.8687 -2.3067
55.75 34.2761 30.8553 3.4208
55.8 25.6836 30.842 -5.1584
55.85 35.867 30.828 5.039
55.9 32.7848 30.814 1.9708
55.95 16.6079 30.7982 -14.1903
56 35.7767 30.7824 4.9943
56.05 27.8847 30.7659 -2.8812
56.1 23.9967 30.7493 -6.7526
56.15 37.5073 30.7343 6.773
56.2 32.057 30.7193 1.3377
56.25 33.8127 30.7062 3.1065
56.3 30.1121 30.6932 -0.5811
56.35 37.4665 30.6803 6.7862
56.4 47.49 30.6674 16.8226
56.45 31.1174 30.6529 0.4645
56.5 25.6725 30.6383 -4.9658
56.55 29.5011 30.6224 -1.1213
56.6 32.9871 30.6065 2.3806
56.65 30.0006 30.5915 -0.5909
56.7 33.4723 30.5764 2.8959
56.75 33.0475 30.5635 2.484
56.8 26.6109 30.5506 -3.9397
56.85 32.492 30.5386 1.9534
56.9 24.1929 30.5266 -6.3337
56.95 29.2602 30.5134 -1.2532
57 36.0186 30.5002 5.5184
57.05 28.4605 30.4852 -2.0247
57.1 41.4072 30.4703 10.9369
57.15 39.0304 30.4554 8.575
57.2 32.5231 30.4404 2.0827
57.25 40.8966 30.4275 10.4691
57.3 27.0518 30.4145 -3.3627
57.35 36.1245 30.4031 5.7214
57.4 32.6263 30.3918 2.2345
57.45 31.5762 30.3799 1.1963
57.5 38.9785 30.368 8.6105
57.55 32.9864 30.3543 2.6321
57.6 32.7366 30.3406 2.396
57.65 34.028 30.3261 3.7019
57.7 34.0935 30.3115 3.782
57.75 38.0879 30.2985 7.7894
57.8 29.3439 30.2854 -0.9415
57.85 34.1753 30.2744 3.9009
57.9 25.1099 30.2633 -5.1534
57.95 38.2936 30.2527 8.0409
58 33.1379 30.242 2.8959
58.05 32.292 30.2297 2.0623
58.1 35.3274 30.2174 5.11
58.15 31.1708 30.2036 0.9672
58.2 29.4875 30.1899 -0.7024
58.25 31.9988 30.1767 1.8221
58.3 29.541 30.1636 -0.6226
58.35 30.9733 30.1527 0.8206
58.4 32.742 30.1417 2.6003
58.45 28.8589 30.132 -1.2731
58.5 34.2887 30.1222 4.1665
58.55 37.1103 30.1115 6.9988
58.6 34.5396 30.1007 4.4389
58.65 38.3738 30.0881 8.2857
58.7 30.907 30.0754 0.8316
58.75 34.1753 30.0625 4.1128
58.8 39.5301 30.0496 9.4805
58.85 32.8976 30.0385 2.8591
58.9 20.3952 30.0275 -9.6323
58.95 32.819 30.0183 2.8007
59 33.6804 30.0092 3.6712
59.05 26.2686 29.9999 -3.7313
59.1 31.6296 29.9906 1.639
59.15 36.3233 29.9794 6.3439
59.2 40.3435 29.9682 10.3753
59.25 31.2076 29.9559 1.2517
59.3 31.1124 29.9436 1.1688
59.35 35.9336 29.9324 6.0012
59.4 23.3084 29.9212 -6.6128
59.45 33.0174 29.9122 3.1052
59.5 25.0874 29.9033 -4.8159
59.55 30.5775 29.8952 0.6823
59.6 39.4499 29.8872 9.5627
59.65 33.1308 29.8685 3.2623
59.7 27.7434 29.8499 -2.1065
59.75 32.7967 29.8396 2.9571
59.8 32.5809 29.8293 2.7516
59.85 27.9034 29.819 -1.9156
59.9 41.9148 29.8087 12.1061
59.95 33.4958 29.7994 3.6964
60 25.8724 29.7901 -3.9177
60.05 40.1532 29.7818 10.3714
60.1 34.1279 29.7735 4.3544
60.15 27.5528 29.7651 -2.2123
60.2 25.4639 29.7568 -4.2929
60.25 36.7966 29.7476 7.049
60.3 19.5533 29.7385 -10.1852
60.35 17.5556 29.7289 -12.1733
60.4 40.3863 29.7193 10.667
60.45 30.2177 29.7103 0.5074
60.5 32.4584 29.7014 2.757
60.55 21.5544 29.6937 -8.1393
60.6 31.0363 29.6859 1.3504
60.65 28.9096 29.6787 -0.7691
60.7 29.2374 29.6715 -0.4341
60.75 33.4665 29.6638 3.8027
60.8 33.7464 29.656 4.0904
60.85 22.5188 29.6474 -7.1286
60.9 36.7225 29.6388 7.0837
60.95 36.4678 29.6303 6.8375
61 28.783 29.6218 -0.8388
61.05 26.6979 29.6146 -2.9167
61.1 31.5333 29.6073 1.926
61.15 31.8937 29.6012 2.2925
61.2 33.6607 29.5951 4.0656
61.25 23.4027 29.5891 -6.1864
61.3 37.7696 29.5832 8.1864
61.35 32.9482 29.5763 3.3719
61.4 31.1716 29.5695 1.6021
61.45 32.699 29.5623 3.1367
61.5 28.211 29.5551 -1.3441
61.55 34.2505 29.5489 4.7016
61.6 30.6664 29.5426 1.1238
61.65 34.1475 29.5379 4.6096
61.7 26.2024 29.5333 -3.3309
61.75 35.2023 29.5295 5.6728
61.8 35.9451 29.5256 6.4195
61.85 37.2428 29.5213 7.7215
61.9 28.2426 29.5169 -1.2743
61.95 27.6337 29.5117 -1.878
62 38.7783 29.5065 9.2718
62.05 27.5836 29.5015 -1.9179
62.1 26.3596 29.4966 -3.137
62.15 27.7781 29.4932 -1.7151
62.2 21.7069 29.4899 -7.783
62.25 31.969 29.4882 2.4808
62.3 36.1543 29.4866 6.6677
62.35 33.6645 29.4852 4.1793
62.4 30.1181 29.4838 0.6343
62.45 35.2111 29.4816 5.7295
62.5 30.2056 29.4794 0.7262
62.55 23.5109 29.4768 -5.9659
62.6 28.2633 29.4742 -1.2109
62.65 34.3096 29.4728 4.8368
62.7 36.1583 29.4715 6.6868
62.75 32.5645 29.4726 3.0919
62.8 29.1444 29.4737 -0.3293
62.85 26.8752 29.4766 -2.6014
62.9 38.6065 29.4796 9.1269
62.95 50.4541 29.4829 20.9712
63 35.0239 29.4861 5.5378
63.05 32.1654 29.4894 2.676
63.1 27.937 29.4926 -1.5556
63.15 30.6127 29.4975 1.1152
63.2 26.3697 29.5025 -3.1328
63.25 28.0664 29.5122 -1.4458
63.3 25.7904 29.5219 -3.7315
63.35 30.2116 29.5406 0.671
63.4 27.0687 29.5592 -2.4905
63.45 30.194 29.5977 0.5963
63.5 30.651 29.6362 1.0148
63.55 22.5178 29.6849 -7.1671
63.6 32.4508 29.7336 2.7172
63.65 31.156 29.7811 1.3749
63.7 31.1307 29.8287 1.302
63.75 39.1001 29.8928 9.2073
63.8 38.7128 29.9568 8.756
63.85 39.1677 30.0539 9.1138
63.9 32.2242 30.1509 2.0733
63.95 33.7547 30.3049 3.4498
64 34.7141 30.4588 4.2553
64.05 28.6315 30.7168 -2.0853
64.1 31.7203 30.9747 0.7456
64.15 26.9011 31.4457 -4.5446
64.2 32.506 31.9168 0.5892
64.25 39.7914 32.888 6.9034
64.3 37.3945 33.8592 3.5353
64.35 38.7741 35.6578 3.1163
64.4 53.2173 38.6033 14.614
64.45 51.2772 44.0019 7.2753
64.5 50.1539 53.4123 -3.2584
64.55 79.4052 72.0724 7.3328
64.6 96.3876 103.36 -6.9724
64.65 127.217 143.806 -16.589
64.7 168.728 170.152 -1.424
64.75 152.934 156.361 -3.427
64.8 101.305 113.446 -12.141
64.85 73.3293 75.9389 -2.6096
64.9 55.4854 54.3862 1.0992
64.95 45.9311 43.8859 2.0452
65 45.5515 38.4564 7.0951
65.05 29.2714 36.0302 -6.7588
65.1 39.5897 33.604 5.9857
65.15 33.6103 32.6495 0.9608
65.2 38.2783 31.695 6.5833
65.25 38.8238 31.2497 7.5741
65.3 32.7066 30.8045 1.9021
65.35 26.8738 30.5692 -3.6954
65.4 36.8482 30.334 6.5142
65.45 29.8403 30.1977 -0.3574
65.5 30.0638 30.0615 0.0023
65.55 24.5047 29.9782 -5.4735
65.6 32.6642 29.8949 2.7693
65.65 32.1126 29.8425 2.2701
65.7 33.2294 29.7901 3.4393
65.75 32.8024 29.7547 3.0477
65.8 28.4533 29.7192 -1.2659
65.85 39.763 29.6879 10.0751
65.9 31.9762 29.6566 2.3196
65.95 30.2249 29.6294 0.5955
66 28.6592 29.6023 -0.9431
66.05 25.0138 29.5868 -4.573
66.1 34.0748 29.5714 4.5034
66.15 27.576 29.5629 -1.9869
66.2 29.8576 29.5544 0.3032
66.25 28.534 29.5507 -1.0167
66.3 29.7049 29.5471 0.1578
66.35 27.4478 29.5457 -2.0979
66.4 31.8205 29.5443 2.2762
66.45 36.0481 29.5429 6.5052
66.5 33.2414 29.5415 3.6999
66.55 22.45 29.5395 -7.0895
66.6 31.1052 29.5376 1.5676
66.65 38.3237 29.5365 8.7872
66.7 24.1134 29.5355 -5.4221
66.75 38.352 29.5367 8.8153
66.8 35.3151 29.538 5.7771
66.85 30.5933 29.5413 1.052
66.9 27.564 29.5446 -1.9806
66.95 21.2787 29.5482 -8.2695
67 34.5742 29.5518 5.0224
67.05 27.8477 29.5543 -1.7066
67.1 22.8795 29.5567 -6.6772
67.15 28.0836 29.5583 -1.4747
67.2 33.4622 29.5599 3.9023
67.25 35.7285 29.5623 6.1662
67.3 35.1134 29.5647 5.5487
67.35 26.3669 29.569 -3.2021
67.4 27.4633 29.5733 -2.11
67.45 31.809 29.5788 2.2302
67.5 23.1234 29.5843 -6.4609
67.55 26.4473 29.5895 -3.1422
67.6 34.1666 29.5946 4.572
67.65 32.5273 29.5984 2.9289
67.7 40.5214 29.6022 10.9192
67.75 29.394 29.6054 -0.2114
67.8 29.173 29.6087 -0.4357
67.85 31.7949 29.613 2.1819
67.9 32.0011 29.6172 2.3839
67.95 34.8868 29.6232 5.2636
68 26.5753 29.6291 -3.0538
68.05 31.3641 29.6357 1.7284
68.1 22.8798 29.6423 -6.7625
68.15 50.0788 29.6484 20.4304
68.2 38.6237 29.6539 8.9698
68.25 31.0624 29.6584 1.404
68.3 28.4785 29.663 -1.1845
68.35 29.5017 29.6674 -0.1657
68.4 33.4673 29.6718 3.7955
68.45 30.9656 29.6774 1.2882
68.5 34.5699 29.683 4.8869
68.55 29.6573 29.6899 -0.0326
68.6 28.1566 29.6969 -1.5403
68.65 33.0476 29.7041 3.3435
68.7 41.7836 29.7113 12.0723
68.75 36.4017 29.7174 6.6843
68.8 36.0094 29.7236 6.2858
68.85 25.1443 29.7287 -4.5844
68.9 33.7141 29.7338 3.9803
68.95 28.7253 29.7392 -1.0139
69 27.4325 29.7445 -2.312
69.05 24.4929 29.7511 -5.2582
69.1 25.0319 29.7577 -4.7258
69.15 26.4814 29.7654 -3.284
69.2 32.9031 29.773 3.1301
69.25 29.5387 29.7805 -0.2418
69.3 24.4013 29.788 -5.3867
69.35 22.8418 29.7944 -6.9526
69.4 32.9282 29.8008 3.1274
69.45 28.7423 29.8064 -1.0641
69.5 22.0931 29.812 -7.7189
69.55 24.6217 29.8181 -5.1964
69.6 27.3142 29.8242 -2.51
69.65 30.5191 29.8316 0.6875
69.7 37.4517 29.8389 7.6128
69.75 29.4547 29.8471 -0.3924
69.8 32.1406 29.8552 2.2854
69.85 28.957 29.8629 -0.9059
69.9 31.8697 29.8705 1.9992
69.95 34.0611 29.877 4.1841
70 27.8928 29.8835 -1.9907
70.05 32.5299 29.8896 2.6403
70.1 26.0272 29.8956 -3.8684
70.15 29.3684 29.9023 -0.5339
70.2 31.6462 29.9091 1.7371
70.25 30.6805 29.917 0.7635
70.3 51.2856 29.925 21.3606
70.35 26.2114 29.9334 -3.722
70.4 28.2729 29.9418 -1.6689
70.45 30.4981 29.9494 0.5487
70.5 29.2562 29.9571 -0.7009
70.55 26.8003 29.9637 -3.1634
70.6 26.0262 29.9703 -3.9441
70.65 24.2183 29.9767 -5.7584
70.7 36.6395 29.9831 6.6564
70.75 29.1932 29.9903 -0.7971
70.8 37.0335 29.9976 7.0359
70.85 25.8095 30.0059 -4.1964
70.9 29.5807 30.0143 -0.4336
70.95 22.7791 30.0228 -7.2437
71 23.282 30.0313 -6.7493
71.05 30.2598 30.0389 0.2209
71.1 49.412 30.0465 19.3655
71.15 35.538 30.0532 5.4848
71.2 36.3842 30.0598 6.3244
71.25 31.0976 30.0665 1.0311
71.3 26.6844 30.0731 -3.3887
71.35 36.931 30.0808 6.8502
71.4 30.0349 30.0884 -0.0535
71.45 38.306 30.0969 8.2091
71.5 33.4494 30.1055 3.3439
71.55 35.6328 30.1139 5.5189
71.6 37.5048 30.1224 7.3824
71.65 30.3577 30.1299 0.2278
71.7 23.2875 30.1374 -6.8499
71.75 37.8476 30.144 7.7036
71.8 31.8011 30.1507 1.6504
71.85 36.5782 30.1576 6.4206
71.9 36.3322 30.1644 6.1678
71.95 34.0258 30.1723 3.8535
72 32.9925 30.1801 2.8124
72.05 35.3241 30.1887 5.1354
72.1 32.765 30.1974 2.5676
72.15 40.1017 30.2057 9.896
72.2 33.0599 30.214 2.8459
72.25 26.1385 30.2213 -4.0828
72.3 29.46 30.2286 -0.7686
72.35 31.0294 30.2352 0.7942
72.4 23.6847 30.2418 -6.5571
72.45 27.2303 30.2487 -3.0184
72.5 30.7826 30.2557 0.5269
72.55 33.8573 30.2636 3.5937
72.6 30.0968 30.2716 -0.1748
72.65 30.5658 30.2801 0.2857
72.7 26.495 30.2887 -3.7937
72.75 24.7451 30.2968 -5.5517
72.8 21.9999 30.3048 -8.3049
72.85 26.8803 30.3119 -3.4316
72.9 37.4351 30.3189 7.1162
72.95 28.522 30.3254 -1.8034
73 33.8021 30.3318 3.4703
73.05 38.7167 30.3388 8.3779
73.1 29.251 30.3457 -1.0947
73.15 25.1455 30.3536 -5.2081
73.2 38.2 30.3615 7.8385
73.25 41.865 30.3699 11.4951
73.3 18.6606 30.3783 -11.7177
73.35 24.3515 30.386 -6.0345
73.4 23.507 30.3938 -6.8868
73.45 20.8249 30.4005 -9.5756
73.5 24.5962 30.4072 -5.811
73.55 30.4508 30.4134 0.0374
73.6 32.3039 30.4197 1.8842
73.65 27.4785 30.4265 -2.948
73.7 30.9359 30.4333 0.5026
73.75 15.775 30.441 -14.666
73.8 36.8152 30.4488 6.3664
73.85 32.2402 30.4569 1.7833
73.9 29.2433 30.4649 -1.2216
73.95 31.9737 30.4723 1.5014
74 33.0427 30.4796 2.5631
74.05 22.2045 30.4859 -8.2814
74.1 26.4934 30.4922 -3.9988
74.15 17.2339 30.4982 -13.2643
74.2 35.934 30.5041 5.4299
74.25 30.7588 30.5107 0.2481
74.3 23.2515 30.5172 -7.2657
74.35 30.1596 30.5247 -0.3651
74.4 35.5712 30.5322 5.039
74.45 30.3572 30.5399 -0.1827
74.5 34.9055 30.5475 4.358
74.55 23.0298 30.5544 -7.5246
74.6 37.0166 30.5613 6.4553
74.65 36.87 30.5671 6.3029
74.7 25.5598 30.573 -5.0132
74.75 28.5422 30.5785 -2.0363
74.8 27.5686 30.584 -3.0154
74.85 33.2841 30.5902 2.6939
74.9 26.5428 30.5964 -4.0536
74.95 30.0922 30.6035 -0.5113
75 40.9629 30.6106 10.3523
75.05 25.1007 30.6178 -5.5171
75.1 44.9889 30.625 14.3639
75.15 25.8037 30.6313 -4.8276
75.2 33.6339 30.6377 2.9962
75.25 26.8233 30.643 -3.8197
75.3 30.8819 30.6483 0.2336
75.35 31.4646 30.6533 0.8113
75.4 37.1758 30.6583 6.5175
75.45 30.6738 30.664 0.0098
75.5 34.8474 30.6697 4.1777
75.55 37.6794 30.6763 7.0031
75.6 40.8462 30.6829 10.1633
75.65 32.1471 30.6895 1.4576
75.7 28.9746 30.6962 -1.7216
75.75 38.3071 30.7019 7.6052
75.8 35.2267 30.7077 4.519
75.85 31.6027 30.7123 0.8904
75.9 23.7148 30.717 -7.0022
75.95 27.1784 30.7214 -3.543
76 25.4101 30.7258 -5.3157
76.05 28.8736 30.7309 -1.8573
76.1 34.153 30.7361 3.4169
76.15 23.7066 30.742 -7.0354
76.2 29.885 30.748 -0.863
76.25 29.9605 30.7541 -0.7936
76.3 34.6728 30.7601 3.9127
76.35 38.2133 30.7652 7.4481
76.4 30.2561 30.7703 -0.5142
76.45 31.8147 30.7742 1.0405
76.5 24.1679 30.7782 -6.6103
76.55 26.8062 30.7819 -3.9757
76.6 20.2848 30.7856 -10.5008
76.65 27.6787 30.79 -3.1113
76.7 36.6604 30.7945 5.8659
76.75 29.8308 30.7997 -0.9689
76.8 41.075 30.805 10.27
76.85 28.4492 30.8104 -2.3612
76.9 27.1107 30.8157 -3.705
76.95 36.0638 30.8201 5.2437
77 28.0513 30.8245 -2.7732
77.05 27.4544 30.8278 -3.3734
77.1 33.5477 30.831 2.7167
77.15 31.1979 30.8339 0.364
77.2 28.9195 30.8368 -1.9173
77.25 29.1684 30.8404 -1.672
77.3 35.1596 30.844 4.3156
77.35 36.2369 30.8486 5.3883
77.4 34.1521 30.8531 3.299
77.45 29.0384 30.8577 -1.8193
77.5 37.8016 30.8624 6.9392
77.55 29.9808 30.8661 -0.8853
77.6 26.7339 30.8698 -4.1359
77.65 30.6662 30.8722 -0.206
77.7 32.7165 30.8747 1.8418
77.75 32.6407 30.8768 1.7639
77.8 40.0778 30.8788 9.199
77.85 35.5954 30.8815 4.7139
77.9 30.9597 30.8843 0.0754
77.95 27.838 30.888 -3.05
78 28.2089 30.8917 -2.6828
78.05 29.2552 30.8956 -1.6404
78.1 36.8708 30.8995 5.9713
78.15 38.162 30.9026 7.2594
78.2 34.5385 30.9056 3.6329
78.25 38.0983 30.9073 7.191
78.3 32.0574 30.9091 1.1483
78.35 35.9545 30.9103 5.0442
78.4 33.005 30.9115 2.0935
78.45 24.2292 30.9133 -6.6841
78.5 22.085 30.9151 -8.8301
78.55 26.3548 30.918 -4.5632
78.6 29.2479 30.921 -1.6731
78.65 34.7111 30.9243 3.7868
78.7 41.7506 30.9276 10.823
78.75 35.2951 30.9301 4.365
78.8 36.1866 30.9326 5.254
78.85 23.1955 30.9338 -7.7383
78.9 25.0901 30.935 -5.8449
78.95 28.4483 30.9356 -2.4873
79 33.3762 30.9361 2.4401
79.05 17.8447 30.9371 -13.0924
79.1 30.8879 30.9382 -0.0503
79.15 23.5672 30.9405 -7.3733
79.2 27.4329 30.9428 -3.5099
79.25 34.0129 30.9459 3.067
79.3 29.0821 30.9489 -1.8668
79.35 42.539 30.9521 11.5869
79.4 30.9751 30.9553 0.0198
79.45 33.3507 30.9563 2.3944
79.5 32.6984 30.9573 1.7411
79.55 33.5952 30.9577 2.6375
79.6 28.7101 30.9581 -2.248
79.65 23.8903 30.9595 -7.0692
79.7 39.4976 30.9608 8.5368
79.75 26.3753 30.964 -4.5887
79.8 28.4604 30.9672 -2.5068
79.85 37.0939 30.9718 6.1221
79.9 28.1653 30.9765 -2.8112
79.95 34.5919 30.9812 3.6107
80 31.6499 30.986 0.6639
80.05 24.2973 30.99 -6.6927
80.1 29.2719 30.9941 -1.7222
80.15 34.0157 30.9981 3.0176
80.2 31.3777 31.0021 0.3756
80.25 31.1594 31.0077 0.1517
80.3 37.739 31.0133 6.7257
80.35 35.5585 31.0221 4.5364
80.4 30.6371 31.0309 -0.3938
80.45 26.2365 31.0435 -4.807
80.5 29.631 31.056 -1.425
80.55 38.5924 31.0724 7.52
80.6 27.8314 31.0888 -3.2574
80.65 28.8642 31.1117 -2.2475
80.7 34.8483 31.1346 3.7137
80.75 35.8851 31.1902 4.6949
80.8 33.582 31.2458 2.3362
80.85 23.5122 31.3275 -7.8153
80.9 25.881 31.4092 -5.5282
80.95 28.0724 31.4766 -3.4042
81 31.7481 31.5441 0.204
81.05 37.3772 31.6345 5.7427
81.1 49.0677 31.725 17.3427
81.15 34.4621 31.8567 2.6054
81.2 31.4048 31.9884 -0.5836
81.25 29.3896 32.1907 -2.8011
81.3 28.938 32.393 -3.455
81.35 27.782 32.7271 -4.9451
81.4 36.683 33.0613 3.6217
81.45 31.7167 33.6686 -1.9519
81.5 33.5589 34.2759 -0.717
81.55 31.3797 35.5313 -4.1516
81.6 49.6569 36.7868 12.8701
81.65 41.7179 39.1516 2.5663
81.7 42.143 43.1689 -1.0259
81.75 50.5658 50.8278 -0.262
81.8 52.3002 67.8021 -15.5019
81.85 107.372 108.518 -1.146
81.9 209.105 189.118 19.987
81.95 285.598 286.571 -0.973
82 273.732 308.712 -34.98
82.05 210.821 218.471 -7.65
82.1 121.679 118.767 2.912
82.15 89.7 69.6824 20.0176
82.2 50.668 50.8526 -0.1846
82.25 46.6262 42.7736 3.8526
82.3 38.2966 38.6572 -0.3606
82.35 36.6795 36.7439 -0.0644
82.4 24.8339 34.8306 -9.9967
82.45 37.1166 34.0169 3.0997
82.5 35.9087 33.2033 2.7054
82.55 36.2737 32.7931 3.4806
82.6 33.6366 32.3828 1.2538
82.65 33.7863 32.1501 1.6362
82.7 40.8523 31.9174 8.9349
82.75 44.1695 31.7575 12.412
82.8 21.8668 31.6293 -9.7625
82.85 30.2626 31.5343 -1.2717
82.9 37.9268 31.4393 6.4875
82.95 51.4838 31.368 20.1158
83 30.2163 31.3078 -1.0915
83.05 28.2011 31.2572 -3.0561
83.1 31.7879 31.2065 0.5814
83.15 24.7895 31.1481 -6.3586
83.2 36.0913 31.0897 5.0016
83.25 31.4001 31.0557 0.3444
83.3 30.5208 31.0218 -0.501
83.35 27.0533 31.0003 -3.947
83.4 28.9024 30.9789 -2.0765
83.45 39.2231 30.9619 8.2612
83.5 29.5326 30.9449 -1.4123
83.55 26.8656 30.9315 -4.0659
83.6 23.2981 30.9181 -7.62
83.65 38.9409 30.9077 8.0332
83.7 25.6975 30.8974 -5.1999
83.75 37.4429 30.889 6.5539
83.8 23.8781 30.8806 -7.0025
83.85 33.795 30.873 2.922
83.9 20.3023 30.8654 -10.5631
83.95 43.2002 30.8577 12.3425
84 28.7702 30.8501 -2.0799
84.05 30.122 30.8426 -0.7206
84.1 22.1678 30.835 -8.6672
84.15 36.2407 30.8283 5.4124
84.2 33.2218 30.8215 2.4003
84.25 31.2976 30.816 0.4816
84.3 31.8118 30.8105 1.0013
84.35 24.7119 30.806 -6.0941
84.4 26.5009 30.8015 -4.3006
84.45 24.6589 30.7974 -6.1385
84.5 35.3704 30.7932 4.5772
84.55 32.8269 30.7886 2.0383
84.6 39.4331 30.7841 8.649
84.65 40.7871 30.779 10.0081
84.7 30.8404 30.774 0.0664
84.75 25.3891 30.7689 -5.3798
84.8 33.4066 30.7639 2.6427
84.85 36.5388 30.7595 5.7793
84.9 30.848 30.7551 0.0929
84.95 31.2444 30.7515 0.4929
85 25.8117 30.7478 -4.9361
85.05 32.1597 30.7446 1.4151
85.1 29.0891 30.7414 -1.6523
85.15 32.9724 30.7379 2.2345
85.2 29.3232 30.7345 -1.4113
85.25 29.3088 30.7304 -1.4216
85.3 28.9372 30.7264 -1.7892
85.35 24.2212 30.7221 -6.5009
85.4 35.4989 30.7177 4.7812
85.45 33.0062 30.7136 2.2926
85.5 32.5483 30.7095 1.8388
85.55 31.0007 30.7059 0.2948
85.6 31.1916 30.7024 0.4892
85.65 36.2677 30.6993 5.5684
85.7 36.5983 30.6962 5.9021
85.75 30.6455 30.6932 -0.0477
85.8 27.8458 30.6901 -2.8443
85.85 30.7376 30.6866 0.051
85.9 21.7883 30.6831 -8.8948
85.95 26.0216 30.6791 -4.6575
86 13.6393 30.6751 -17.0358
86.05 23.5721 30.6711 -7.099
86.1 31.1026 30.667 0.4356
86.15 20.7616 30.6634 -9.9018
86.2 26.26 30.6597 -4.3997
86.25 26.7379 30.6565 -3.9186
86.3 28.7643 30.6532 -1.8889
86.35 23.9792 30.6502 -6.671
86.4 34.3482 30.6472 3.701
86.45 29.9989 30.6439 -0.645
86.5 23.5245 30.6407 -7.1162
86.55 27.7558 30.637 -2.8812
86.6 35.1386 30.6332 4.5054
86.65 43.9673 30.6293 13.338
86.7 32.4964 30.6253 1.8711
86.75 25.2879 30.6215 -5.3336
86.8 37.8222 30.6176 7.2046
86.85 35.6664 30.6141 5.0523
86.9 35.1967 30.6107 4.586
86.95 23.9923 30.6075 -6.6152
87 35.1153 30.6043 4.511
87.05 31.739 30.6011 1.1379
87.1 23.7632 30.5979 -6.8347
87.15 29.1361 30.5944 -1.4583
87.2 34.8229 30.5909 4.232
87.25 33.4016 30.587 2.8146
87.3 32.208 30.5831 1.6249
87.35 31.6216 30.5792 1.0424
87.4 30.5367 30.5752 -0.0385
87.45 26.2025 30.5715 -4.369
87.5 32.3644 30.5678 1.7966
87.55 26.7608 30.5643 -3.8035
87.6 30.2502 30.5609 -0.3107
87.65 33.6526 30.5577 3.0949
87.7 30.2737 30.5544 -0.2807
87.75 29.076 30.5509 -1.4749
87.8 25.0333 30.5475 -5.5142
87.85 29.7984 30.5437 -0.7453
87.9 26.0089 30.5399 -4.531
87.95 37.164 30.536 6.628
88 30.8662 30.532 0.3342
88.05 23.8623 30.5281 -6.6658
88.1 30.1303 30.5241 -0.3938
88.15 34.6148 30.5205 4.0943
88.2 27.3788 30.5168 -3.138
88.25 28.247 30.5133 -2.2663
88.3 30.4358 30.5099 -0.0741
88.35 22.5035 30.5064 -8.0029
88.4 32.7634 30.5029 2.2605
88.45 35.9433 30.4992 5.4441
88.5 26.9405 30.4955 -3.555
88.55 23.3686 30.4916 -7.123
88.6 35.0825 30.4877 4.5948
88.65 29.4857 30.4836 -0.9979
88.7 30.2682 30.4796 -0.2114
88.75 31.0666 30.4757 0.5909
88.8 38.6597 30.4718 8.1879
88.85 26.2678 30.4681 -4.2003
88.9 21.1244 30.4644 -9.34
88.95 28.7528 30.4608 -1.708
89 26.2516 30.4572 -4.2056
89.05 37.6477 30.4536 7.1941
89.1 23.1295 30.4499 -7.3204
89.15 24.9438 30.446 -5.5022
89.2 29.9822 30.4421 -0.4599
89.25 38.2015 30.4381 7.7634
89.3 31.1502 30.434 0.7162
89.35 28.6063 30.43 -1.8237
89.4 33.1507 30.4259 2.7248
89.45 36.0594 30.422 5.6374
89.5 27.6511 30.4181 -2.767
89.55 31.26 30.4143 0.8457
89.6 22.9549 30.4106 -7.4557
89.65 31.4735 30.4068 1.0667
89.7 30.5164 30.4031 0.1133
89.75 25.5787 30.3992 -4.8205
89.8 29.0597 30.3954 -1.3357
89.85 36.6882 30.3913 6.2969
89.9 29.3532 30.3873 -1.0341
89.95 26.1162 30.3832 -4.267
90 35.1735 30.3791 4.7944
90.05 22.4563 30.375 -7.9187
90.1 26.2172 30.3709 -4.1537
90.15 30.7811 30.367 0.4141
90.2 38.8287 30.363 8.4657
90.25 39.2114 30.3592 8.8522
90.3 30.5883 30.3553 0.233
90.35 38.4614 30.3515 8.1099
90.4 40.5433 30.3476 10.1957
90.45 21.246 30.3436 -9.0976
90.5 31.4595 30.3396 1.1199
90.55 24.7972 30.3354 -5.5382
90.6 28.3887 30.3313 -1.9426
90.65 28.8861 30.3272 -1.4411
90.7 36.4638 30.323 6.1408
90.75 46.9908 30.3189 16.6719
90.8 34.3532 30.3148 4.0384
90.85 25.0283 30.3108 -5.2825
90.9 35.1787 30.3068 4.8719
90.95 37.1634 30.3029 6.8605
91 42.9853 30.2989 12.6864
91.05 26.712 30.2949 -3.5829
91.1 29.7971 30.2909 -0.4938
91.15 22.2583 30.2867 -8.0284
91.2 28.123 30.2826 -2.1596
91.25 26.5517 30.2785 -3.7268
91.3 41.9766 30.2743 11.7023
91.35 30.7671 30.2701 0.497
91.4 27.7386 30.266 -2.5274
91.45 37.9098 30.2619 7.6479
91.5 32.1999 30.2577 1.9422
91.55 27.6834 30.2537 -2.5703
91.6 38.119 30.2496 7.8694
91.65 38.788 30.2455 8.5425
91.7 37.4288 30.2415 7.1873
91.75 28.2599 30.2373 -1.9774
91.8 39.0986 30.2332 8.8654
91.85 42.4288 30.229 12.1998
91.9 27.1339 30.2249 -3.091
91.95 36.2528 30.2207 6.0321
92 28.6638 30.2165 -1.5527
92.05 39.4083 30.2124 9.1959
92.1 27.4833 30.2082 -2.7249
92.15 25.2016 30.2041 -5.0025
92.2 30.5189 30.1999 0.319
92.25 34.9624 30.1958 4.7666
92.3 28.1221 30.1917 -2.0696
92.35 30.2309 30.1875 0.0434
92.4 34.4945 30.1833 4.3112
92.45 23.0621 30.1791 -7.117
92.5 24.2217 30.175 -5.9533
92.55 43.4128 30.1708 13.242
92.6 27.9958 30.1666 -2.1708
92.65 30.1152 30.1624 -0.0472
92.7 37.5132 30.1583 7.3549
92.75 23.6905 30.1541 -6.4636
92.8 31.3626 30.15 1.2126
92.85 20.9743 30.1459 -9.1716
92.9 25.7292 30.1417 -4.4125
92.95 29.4978 30.1375 -0.6397
93 31.3367 30.1333 1.2034
93.05 32.9471 30.1291 2.818
93.1 23.5595 30.1249 -6.5654
93.15 18.5867 30.1207 -11.534
93.2 38.0673 30.1165 7.9508
93.25 31.0492 30.1123 0.9369
93.3 30.1949 30.1082 0.0867
93.35 23.0545 30.1041 -7.0496
93.4 30.4946 30.1 0.3946
93.45 29.1439 30.0968 -0.9529
93.5 30.0829 30.0935 -0.0106
93.55 26.3981 30.0891 -3.691
93.6 27.9315 30.0847 -2.1532
93.65 32.7358 30.0802 2.6556
93.7 29.3398 30.0757 -0.7359
93.75 29.9232 30.0714 -0.1482
93.8 31.9859 30.067 1.9189
93.85 32.0562 30.063 1.9932
93.9 24.4935 30.059 -5.5655
93.95 32.8807 30.0552 2.8255
94 34.7392 30.0515 4.6877
94.05 31.0536 30.0477 1.0059
94.1 27.8087 30.044 -2.2353
94.15 28.6445 30.04 -1.3955
94.2 26.2543 30.036 -3.7817
94.25 38.917 30.0317 8.8853
94.3 46.0857 30.0274 16.0583
94.35 35.776 30.0229 5.7531
94.4 21.1506 30.0185 -8.8679
94.45 18.8681 30.0142 -11.1461
94.5 18.0405 30.0099 -11.9694
94.55 32.4272 30.006 2.4212
94.6 33.0104 30.0021 3.0083
94.65 33.991 29.9986 3.9924
94.7 29.1972 29.995 -0.7978
94.75 39.2903 29.9915 9.2988
94.8 36.1336 29.988 6.1456
94.85 26.1145 29.9843 -3.8698
94.9 28.583 29.9805 -1.3975
94.95 36.6932 29.9764 6.7168
95 35.3227 29.9723 5.3504
95.05 29.8557 29.968 -0.1123
95.1 27.9539 29.9638 -2.0099
95.15 36.879 29.9597 6.9193
95.2 27.738 29.9557 -2.2177
95.25 26.8462 29.9521 -3.1059
95.3 35.7982 29.9485 5.8497
95.35 29.7332 29.9453 -0.2121
95.4 36.2222 29.9422 6.28
95.45 22.222 29.9392 -7.7172
95.5 31.3727 29.9361 1.4366
95.55 30.2283 29.9329 0.2954
95.6 32.0902 29.9297 2.1605
95.65 31.2712 29.9262 1.345
95.7 32.7812 29.9227 2.8585
95.75 33.532 29.919 3.613
95.8 35.1155 29.9153 5.2002
95.85 37.7559 29.9119 7.844
95.9 30.729 29.9085 0.8205
95.95 28.5017 29.9057 -1.404
96 28.2786 29.9029 -1.6243
96.05 34.564 29.9007 4.6633
96.1 28.8112 29.8986 -1.0874
96.15 30.4513 29.8969 0.5544
96.2 35.1361 29.8951 5.241
96.25 27.6435 29.8934 -2.2499
96.3 27.3717 29.8917 -2.52
96.35 28.8061 29.8899 -1.0838
96.4 32.1617 29.8881 2.2736
96.45 30.0242 29.8864 0.1378
96.5 24.8382 29.8847 -5.0465
96.55 25.8014 29.8836 -4.0822
96.6 36.9684 29.8825 7.0859
96.65 36.2643 29.8826 6.3817
96.7 25.9211 29.8826 -3.9615
96.75 29.5454 29.8842 -0.3388
96.8 27.7418 29.8857 -2.1439
96.85 28.8052 29.8888 -1.0836
96.9 30.3554 29.8918 0.4636
96.95 33.4434 29.8964 3.547
97 23.5368 29.901 -6.3642
97.05 40.2206 29.9074 10.3132
97.1 22.3553 29.9139 -7.5586
97.15 34.7084 29.9236 4.7848
97.2 36.3534 29.9333 6.4201
97.25 20.7935 29.9509 -9.1574
97.3 31.4347 29.9686 1.4661
97.35 35.9721 30.0062 5.9659
97.4 37.0578 30.0439 7.0139
97.45 32.1824 30.0859 2.0965
97.5 34.6408 30.1279 4.5129
97.55 35.2696 30.1789 5.0907
97.6 21.8595 30.2299 -8.3704
97.65 20.7849 30.3035 -9.5186
97.7 37.5308 30.377 7.1538
97.75 34.0909 30.4896 3.6013
97.8 37.1153 30.6022 6.5131
97.85 26.463 30.785 -4.322
97.9 31.1264 30.9677 0.1587
97.95 33.4568 31.287 2.1698
98 31.2148 31.6062 -0.3914
98.05 33.4219 32.2197 1.2022
98.1 31.7594 32.8332 -1.0738
98.15 39.9921 34.1887 5.8034
98.2 43.3218 35.5442 7.7776
98.25 37.2998 38.2597 -0.9599
98.3 44.9926 43.1327 1.8599
98.35 55.5364 53.289 2.2474
98.4 67.3578 72.3542 -4.9964
98.45 102.172 107.431 -5.259
98.5 151.864 150.546 1.318
98.55 163.693 172.079 -8.386
98.6 143.021 150.386 -7.365
98.65 105.885 106.877 -0.992
98.7 62.0254 72.4888 -10.4634
98.75 65.9613 54.339 11.6223
98.8 49.2883 44.4836 4.8047
98.85 35.997 40.511 -4.514
98.9 36.7168 36.5385 0.1783
98.95 32.5535 35.0008 -2.4473
99 28.9492 33.4632 -4.514
99.05 25.6838 32.733 -7.0492
99.1 38.101 32.0027 6.0983
99.15 33.5982 31.6077 1.9905
99.2 29.3902 31.2128 -1.8226
99.25 39.4224 30.9779 8.4445
99.3 24.5851 30.743 -6.1579
99.35 30.9208 30.5923 0.3285
99.4 24.1312 30.4416 -6.3104
99.45 32.5639 30.3384 2.2255
99.5 32.3641 30.2351 2.129
99.55 33.3254 30.1586 3.1668
99.6 45.2906 30.0821 15.2085
99.65 33.9667 30.0109 3.9558
99.7 30.7789 29.9396 0.8393
99.75 27.0558 29.8675 -2.8117
99.8 32.4789 29.7953 2.6836
99.85 27.0008 29.7604 -2.7596
99.9 34.7147 29.7256 4.9891
99.95 30.697 29.7046 0.9924
100 27.9409 29.6835 -1.7426
100.05 30.1727 29.6674 0.5053
100.1 27.316 29.6512 -2.3352
100.15 34.6487 29.6376 5.0111
100.2 27.043 29.6239 -2.5809
100.25 26.0058 29.6121 -3.6063
100.3 31.6132 29.6003 2.0129
100.35 25.7331 29.5901 -3.857
100.4 24.1562 29.5798 -5.4236
100.45 34.1046 29.5711 4.5335
100.5 39.8483 29.5624 10.2859
100.55 32.2886 29.5549 2.7337
100.6 38.6097 29.5474 9.0623
100.65 30.0681 29.5406 0.5275
100.7 29.6679 29.5338 0.1341
100.75 29.9641 29.5274 0.4367
100.8 29.5118 29.5209 -0.0091
100.85 28.2992 29.5144 -1.2152
100.9 29.1754 29.5079 -0.3325
100.95 30.0813 29.5015 0.5798
101 42.7995 29.4951 13.3044
101.05 22.4489 29.489 -7.0401
101.1 26.3992 29.4828 -3.0836
101.15 34.4063 29.4772 4.9291
101.2 35.3585 29.4716 5.8869
101.25 23.0929 29.4665 -6.3736
101.3 24.8524 29.4615 -4.6091
101.35 23.5609 29.4568 -5.8959
101.4 24.9259 29.4522 -4.5263
101.45 27.6952 29.4477 -1.7525
101.5 29.9254 29.4432 0.4822
101.55 19.7347 29.4385 -9.7038
101.6 29.9389 29.4339 0.505
101.65 36.1715 29.4291 6.7424
101.7 27.8193 29.4242 -1.6049
101.75 21.8405 29.418 -7.5775
101.8 28.4135 29.4117 -0.9982
101.85 22.6499 29.4073 -6.7574
101.9 30.5504 29.4028 1.1476
101.95 33.5841 29.3987 4.1854
102 29.7256 29.3946 0.331
102.05 28.2514 29.3908 -1.1394
102.1 25.5094 29.3869 -3.8775
102.15 28.6995 29.3829 -0.6834
102.2 37.2157 29.379 7.8367
102.25 20.2101 29.3749 -9.1648
102.3 38.73 29.3707 9.3593
102.35 32.604 29.3664 3.2376
102.4 26.8012 29.3621 -2.5609
102.45 29.3109 29.3579 -0.047
102.5 23.5397 29.3536 -5.8139
102.55 25.7663 29.3496 -3.5833
102.6 31.8276 29.3455 2.4821
102.65 37.7608 29.3418 8.419
102.7 39.6718 29.338 10.3338
102.75 40.2717 29.3345 10.9372
102.8 31.5115 29.3309 2.1806
102.85 36.7443 29.3274 7.4169
102.9 34.2862 29.3239 4.9623
102.95 35.4137 29.3202 6.0935
103 28.8883 29.3166 -0.4283
103.05 30.7449 29.3127 1.4322
103.1 36.8027 29.3089 7.4938
103.15 32.9019 29.305 3.5969
103.2 19.9479 29.3012 -9.3533
103.25 37.1858 29.2974 7.8884
103.3 25.1846 29.2936 -4.109
103.35 20.8664 29.2901 -8.4237
103.4 27.534 29.2866 -1.7526
103.45 28.2945 29.2833 -0.9888
103.5 25.7351 29.28 -3.5449
103.55 30.2345 29.2767 0.9578
103.6 26.4943 29.2735 -2.7792
103.65 34.489 29.2702 5.2188
103.7 29.8285 29.2669 0.5616
103.75 22.7781 29.2634 -6.4853
103.8 27.656 29.26 -1.604
103.85 23.4424 29.2564 -5.814
103.9 33.9911 29.2529 4.7382
103.95 34.3235 29.2494 5.0741
104 25.7712 29.2459 -3.4747
104.05 43.7848 29.2425 14.5423
104.1 37.7337 29.2392 8.4945
104.15 25.2456 29.2361 -3.9905
104.2 31.056 29.2329 1.8231
104.25 29.1304 29.2299 -0.0995
104.3 24.2773 29.2269 -4.9496
104.35 38.3779 29.2239 9.154
104.4 31.0435 29.2209 1.8226
104.45 30.7551 29.2178 1.5373
104.5 37.1483 29.2147 7.9336
104.55 35.1214 29.2114 5.91
104.6 38.9018 29.2082 9.6936
104.65 28.8443 29.2049 -0.3606
104.7 33.5731 29.2016 4.3715
104.75 30.2485 29.1985 1.05
104.8 23.7627 29.1953 -5.4326
104.85 30.8468 29.1924 1.6544
104.9 43.8664 29.1895 14.6769
104.95 31.3932 29.1867 2.2065
105 27.7055 29.1839 -1.4784
105.05 27.0313 29.1812 -2.1499
105.1 23.9148 29.1784 -5.2636
105.15 41.8305 29.1756 12.6549
105.2 31.7189 29.1728 2.5461
105.25 26.3389 29.1699 -2.831
105.3 20.9436 29.1669 -8.2233
105.35 34.6965 29.1639 5.5326
105.4 24.9495 29.1609 -4.2114
105.45 35.0513 29.158 5.8933
105.5 25.7798 29.155 -3.3752
105.55 33.0416 29.1522 3.8894
105.6 42.2067 29.1494 13.0573
105.65 32.4433 29.1469 3.2964
105.7 33.1142 29.1443 3.9699
105.75 46.9249 29.1418 17.7831
105.8 26.9564 29.1394 -2.183
105.85 34.8719 29.1369 5.735
105.9 33.7185 29.1344 4.5841
105.95 30.4755 29.1318 1.3437
106 29.4573 29.1292 0.3281
106.05 35.9206 29.1265 6.7941
106.1 31.2302 29.1237 2.1065
106.15 32.2895 29.121 3.1685
106.2 29.5266 29.1183 0.4083
106.25 14.002 29.1156 -15.1136
106.3 30.5119 29.113 1.3989
106.35 24.4003 29.1106 -4.7103
106.4 25.8255 29.1082 -3.2827
106.45 30.4985 29.106 1.3925
106.5 33.264 29.1038 4.1602
106.55 33.6951 29.1016 4.5935
106.6 28.2962 29.0994 -0.8032
106.65 25.5274 29.0972 -3.5698
106.7 23.4527 29.0949 -5.6422
106.75 26.1011 29.0925 -2.9914
106.8 25.6611 29.0901 -3.429
106.85 22.6395 29.0876 -6.4481
106.9 25.7255 29.085 -3.3595
106.95 27.5376 29.0825 -1.5449
107 25.9753 29.08 -3.1047
107.05 39.7878 29.0776 10.7102
107.1 44.0869 29.0752 15.0117
107.15 39.4599 29.073 10.3869
107.2 39.0217 29.071 9.9507
107.25 25.9192 29.069 -3.1498
107.3 32.2557 29.067 3.1887
107.35 25.0995 29.065 -3.9655
107.4 32.0149 29.0631 2.9518
107.45 30.1642 29.061 1.1032
107.5 33.3585 29.0589 4.2996
107.55 35.8757 29.0566 6.8191
107.6 30.105 29.0543 1.0507
107.65 26.407 29.052 -2.645
107.7 24.6587 29.0496 -4.3909
107.75 33.3441 29.0472 4.2969
107.8 28.0042 29.0449 -1.0407
107.85 34.4892 29.0427 5.4465
107.9 29.4093 29.0406 0.3687
107.95 24.2592 29.0387 -4.7795
108 27.9802 29.0368 -1.0566
108.05 24.4377 29.035 -4.5973
108.1 28.9405 29.0333 -0.0928
108.15 33.6413 29.0315 4.6098
108.2 36.0413 29.0298 7.0115
108.25 40.8219 29.0279 11.794
108.3 35.3841 29.0259 6.3582
108.35 27.9675 29.0238 -1.0563
108.4 27.2818 29.0217 -1.7399
108.45 22.3833 29.0194 -6.6361
108.5 27.6122 29.0172 -1.405
108.55 29.5164 29.015 0.5014
108.6 34.9221 29.0128 5.9093
108.65 33.3846 29.0109 4.3737
108.7 34.1182 29.0089 5.1093
108.75 27.203 29.0072 -1.8042
108.8 31.1554 29.0055 2.1499
108.85 32.478 29.004 3.474
108.9 28.7743 29.0025 -0.2282
108.95 29.3606 29.001 0.3596
109 41.8866 28.9995 12.8871
109.05 30.5138 28.9978 1.516
109.1 37.1028 28.9961 8.1067
109.15 37.747 28.9941 8.7529
109.2 42.238 28.9922 13.2458
109.25 24.0484 28.9901 -4.9417
109.3 22.8403 28.988 -6.1477
109.35 28.9878 28.986 0.0018
109.4 27.2903 28.9839 -1.6936
109.45 30.2227 28.9821 1.2406
109.5 34.3493 28.9804 5.3689
109.55 35.1609 28.9789 6.182
109.6 25.0197 28.9774 -3.9577
109.65 25.025 28.9762 -3.9512
109.7 32.0885 28.9749 3.1136
109.75 29.9072 28.9737 0.9335
109.8 28.1489 28.9724 -0.8235
109.85 34.3687 28.971 5.3977
109.9 31.5298 28.9695 2.5603
109.95 28.3528 28.9678 -0.615
110 21.9496 28.966 -7.0164
110.05 26.5652 28.9641 -2.3989
110.1 26.997 28.9622 -1.9652
110.15 28.8901 28.9603 -0.0702
110.2 27.0221 28.9584 -1.9363
110.25 28.7549 28.9568 -0.2019
110.3 31.9205 28.9552 2.9653
110.35 31.5057 28.9539 2.5518
110.4 32.9858 28.9527 4.0331
110.45 40.6571 28.9517 11.7054
110.5 16.9112 28.9507 -12.0395
110.55 17.6086 28.9498 -11.3412
110.6 31.012 28.9489 2.0631
110.65 23.9508 28.9478 -4.997
110.7 27.3947 28.9467 -1.552
110.75 38.3844 28.9453 9.4391
110.8 30.6847 28.9439 1.7408
110.85 44.4236 28.9422 15.4814
110.9 31.5497 28.9405 2.6092
110.95 25.2899 28.9388 -3.6489
111 27.8982 28.9371 -1.0389
111.05 24.2957 28.9357 -4.64
111.1 29.1419 28.9342 0.2077
111.15 33.0621 28.9332 4.1289
111.2 34.7069 28.9321 5.7748
111.25 28.3535 28.9315 -0.578
111.3 26.1051 28.9308 -2.8257
111.35 26.3866 28.9304 -2.5438
111.4 21.9459 28.9299 -6.984
111.45 32.5023 28.9293 3.573
111.5 31.3567 28.9287 2.428
111.55 26.5486 28.9278 -2.3792
111.6 31.566 28.9269 2.6391
111.65 26.1993 28.9257 -2.7264
111.7 28.6155 28.9245 -0.309
111.75 22.5424 28.9231 -6.3807
111.8 27.5247 28.9218 -1.3971
111.85 28.5048 28.9206 -0.4158
111.9 28.3805 28.9195 -0.539
111.95 29.9642 28.9188 1.0454
112 35.2987 28.9181 6.3806
112.05 36.8859 28.9179 7.968
112.1 34.7845 28.9177 5.8668
112.15 33.6029 28.918 4.6849
112.2 38.4309 28.9182 9.5127
112.25 32.8574 28.9185 3.9389
112.3 32.8111 28.9188 3.8923
112.35 48.3896 28.9189 19.4707
112.4 40.6691 28.9189 11.7502
112.45 33.609 28.9186 4.6904
112.5 31.9602 28.9184 3.0418
112.55 34.3968 28.9179 5.4789
112.6 20.1744 28.9174 -8.743
112.65 20.4042 28.9171 -8.5129
112.7 28.0759 28.9167 -0.8408
112.75 38.4529 28.9169 9.536
112.8 26.6076 28.917 -2.3094
112.85 27.8783 28.9179 -1.0396
112.9 33.1338 28.9188 4.215
112.95 40.3802 28.9205 11.4597
113 37.3321 28.9222 8.4099
113.05 31.9976 28.9244 3.0732
113.1 39.7767 28.9266 10.8501
113.15 31.0499 28.9289 2.121
113.2 34.8127 28.9313 5.8814
113.25 31.8473 28.9336 2.9137
113.3 27.5599 28.936 -1.3761
113.35 26.3902 28.9383 -2.5481
113.4 31.7006 28.9406 2.76
113.45 28.233 28.9433 -0.7103
113.5 26.2638 28.946 -2.6822
113.55 26.2279 28.9495 -2.7216
113.6 26.0654 28.9531 -2.8877
113.65 35.0907 28.9581 6.1326
113.7 31.5981 28.9631 2.635
113.75 24.3741 28.97 -4.5959
113.8 21.8448 28.9769 -7.1321
113.85 36.827 28.9859 7.8411
113.9 31.6454 28.9948 2.6506
113.95 26.8158 29.0059 -2.1901
114 28.4466 29.017 -0.5704
114.05 19.0416 29.0305 -9.9889
114.1 25.5556 29.0439 -3.4883
114.15 42.6804 29.0602 13.6202
114.2 35.7364 29.0766 6.6598
114.25 29.5409 29.097 0.4439
114.3 30.8724 29.1175 1.7549
114.35 24.2692 29.1444 -4.8752
114.4 20.3495 29.1713 -8.8218
114.45 27.7558 29.2081 -1.4523
114.5 21.547 29.2449 -7.6979
114.55 25.6268 29.2968 -3.67
114.6 29.8898 29.3487 0.5411
114.65 36.9188 29.4225 7.4963
114.7 32.2065 29.4963 2.7102
114.75 25.1055 29.5988 -4.4933
114.8 25.1967 29.7013 -4.5046
114.85 23.3349 29.8409 -6.506
114.9 21.1665 29.9805 -8.814
114.95 22.1173 30.1764 -8.0591
115 21.1587 30.3723 -9.2136
115.05 31.3595 30.6608 0.6987
115.1 32.9083 30.9493 1.959
115.15 43.185 31.3437 11.8413
115.2 39.5827 31.8384 7.7443
115.25 34.7095 32.5542 2.1553
115.3 36.6795 33.27 3.4095
115.35 39.06 34.4765 4.5835
115.4 43.0109 35.6829 7.328
115.45 47.6846 37.5015 10.1831
115.5 40.9262 39.9433 0.9829
115.55 58.2577 43.3161 14.9416
115.6 46.6476 47.7459 -1.0983
115.65 55.2549 53.9255 1.3294
115.7 46.8555 61.8178 -14.9623
115.75 83.5025 71.8058 11.6967
115.8 69.1675 83.0989 -13.9314
115.85 79.8973 93.8784 -13.9811
115.9 117.034 101.404 15.63
115.95 98.9558 103.148 -4.1922
116 93.3222 98.6589 -5.3367
116.05 80.1506 89.3165 -9.1659
116.1 69.2789 78.0916 -8.8127
116.15 57.7746 67.2799 -9.5053
116.2 61.3332 58.1919 3.1413
116.25 52.17 51.2074 0.9626
116.3 39.5521 45.7945 -6.2424
116.35 43.5833 41.8654 1.7179
116.4 51.7001 38.9628 12.7373
116.45 38.4125 36.8045 1.608
116.5 37.6797 35.1836 2.4961
116.55 41.845 33.9523 7.8927
116.6 38.4967 33.006 5.4907
116.65 37.4766 32.3487 5.1279
116.7 31.8607 31.6915 0.1692
116.75 30.1766 31.2763 -1.0997
116.8 38.3202 30.8612 7.459
116.85 35.3546 30.5869 4.7677
116.9 26.737 30.3126 -3.5756
116.95 29.8916 30.1225 -0.2309
117 36.6633 29.9323 6.731
117.05 32.4656 29.794 2.6716
117.1 37.7589 29.6556 8.1033
117.15 24.6912 29.5534 -4.8622
117.2 36.5561 29.4512 7.1049
117.25 20.3428 29.3776 -9.0348
117.3 23.1461 29.3039 -6.1578
117.35 32.1131 29.2513 2.8618
117.4 35.4458 29.1987 6.2471
117.45 29.3174 29.1607 0.1567
117.5 30.3843 29.1226 1.2617
117.55 30.2272 29.0942 1.133
117.6 35.3542 29.0659 6.2883
117.65 35.5531 29.044 6.5091
117.7 41.0809 29.022 12.0589
117.75 42.755 29.0043 13.7507
117.8 29.3441 28.9866 0.3575
117.85 38.5852 28.9717 9.6135
117.9 20.6336 28.9567 -8.3231
117.95 30.421 28.9438 1.4772
118 32.4956 28.9309 3.5647
118.05 33.74 28.9197 4.8203
118.1 29.1724 28.9085 0.2639
118.15 36.9519 28.899 8.0529
118.2 29.6947 28.8896 0.8051
118.25 31.0555 28.882 2.1735
118.3 30.4294 28.8744 1.555
118.35 38.8995 28.8684 10.0311
118.4 28.5691 28.8624 -0.2933
118.45 32.8025 28.8578 3.9447
118.5 39.3235 28.8532 10.4703
118.55 35.5679 28.8493 6.7186
118.6 27.9307 28.8455 -0.9148
118.65 24.1449 28.8419 -4.697
118.7 30.9474 28.8383 2.1091
118.75 38.6681 28.8347 9.8334
118.8 30.2867 28.831 1.4557
118.85 38.946 28.8271 10.1189
118.9 20.4565 28.8232 -8.3667
118.95 29.5749 28.8193 0.7556
119 32.8319 28.8153 4.0166
119.05 37.3466 28.8117 8.5349
119.1 36.2494 28.808 7.4414
119.15 43.3378 28.805 14.5328
119.2 22.3792 28.8019 -6.4227
119.25 24.7709 28.7997 -4.0288
119.3 27.5376 28.7974 -1.2598
119.35 29.1003 28.7958 0.3045
119.4 30.7528 28.7943 1.9585
119.45 25.6708 28.7932 -3.1224
119.5 35.7158 28.792 6.9238
119.55 33.939 28.791 5.148
119.6 31.7379 28.7899 2.948
119.65 37.7749 28.7885 8.9864
119.7 47.9296 28.7872 19.1424
119.75 31.2186 28.7854 2.4332
119.8 27.6738 28.7836 -1.1098
119.85 22.3256 28.7814 -6.4558
119.9 32.2615 28.7793 3.4822
119.95 36.1627 28.777 7.3857
120 26.5202 28.7748 -2.2546
120.05 37.7664 28.7728 8.9936
120.1 33.832 28.7708 5.0612
120.15 31.3621 28.7693 2.5928
120.2 31.4771 28.7678 2.7093
120.25 32.265 28.7669 3.4981
120.3 25.9127 28.766 -2.8533
120.35 38.3594 28.7655 9.5939
120.4 29.5656 28.7651 0.8005
120.45 38.5007 28.7647 9.736
120.5 36.2558 28.7644 7.4914
120.55 25.5981 28.7639 -3.1658
120.6 45.4585 28.7634 16.6951
120.65 41.6108 28.7626 12.8482
120.7 33.6929 28.7616 4.9313
120.75 41.2197 28.7603 12.4594
120.8 24.986 28.7589 -3.7729
120.85 36.937 28.7573 8.1797
120.9 35.3281 28.7557 6.5724
120.95 22.139 28.7541 -6.6151
121 27.8123 28.7525 -0.9402
121.05 27.956 28.7512 -0.7952
121.1 28.4522 28.7499 -0.2977
121.15 27.6161 28.749 -1.1329
121.2 39.9574 28.7482 11.2092
121.25 30.0823 28.7478 1.3345
121.3 28.0492 28.7474 -0.6982
121.35 24.3049 28.7473 -4.4424
121.4 35.9292 28.7472 7.182
121.45 35.9316 28.747 7.1846
121.5 39.0734 28.7469 10.3265
121.55 39.5913 28.7466 10.8447
121.6 33.7962 28.7462 5.05
121.65 29.6988 28.7454 0.9534
121.7 27.1654 28.7446 -1.5792
121.75 21.1501 28.7435 -7.5934
121.8 33.0311 28.7423 4.2888
121.85 42.051 28.741 13.31
121.9 35.706 28.7397 6.9663
121.95 32.8276 28.7384 4.0892
122 34.0871 28.7371 5.35
122.05 34.9139 28.7362 6.1777
122.1 23.2411 28.7352 -5.4941
122.15 28.418 28.7347 -0.3167
122.2 24.1054 28.7341 -4.6287
122.25 35.6989 28.734 6.9649
122.3 38.3119 28.7338 9.5781
122.35 29.418 28.7338 0.6842
122.4 26.9669 28.7338 -1.7669
122.45 30.872 28.7338 2.1382
122.5 31.3278 28.7337 2.5941
122.55 30.1797 28.7334 1.4463
122.6 26.9402 28.7331 -1.7929
122.65 27.5787 28.7323 -1.1536
122.7 32.2302 28.7316 3.4986
122.75 23.4184 28.7298 -5.3114
122.8 29.5328 28.7281 0.8047
122.85 28.7606 28.727 0.0336
122.9 26.6596 28.726 -2.0664
122.95 26.2703 28.7251 -2.4548
123 26.7723 28.7241 -1.9518
123.05 24.019 28.7235 -4.7045
123.1 28.5986 28.7228 -0.1242
123.15 44.717 28.7225 15.9945
123.2 23.0709 28.7221 -5.6512
123.25 31.6117 28.722 2.8897
123.3 31.3597 28.7219 2.6378
123.35 34.5269 28.7218 5.8051
123.4 37.0393 28.7217 8.3176
123.45 27.7133 28.7215 -1.0082
123.5 35.0967 28.7214 6.3753
123.55 33.1208 28.721 4.3998
123.6 21.9962 28.7205 -6.7243
123.65 39.1145 28.7199 10.3946
123.7 32.2903 28.7192 3.5711
123.75 27.435 28.7183 -1.2833
123.8 33.3293 28.7174 4.6119
123.85 32.6736 28.7165 3.9571
123.9 24.2359 28.7156 -4.4797
123.95 39.5701 28.7148 10.8553
124 28.8487 28.7139 0.1348
124.05 23.7369 28.7134 -4.9765
124.1 33.597 28.7128 4.8842
124.15 37.4252 28.7125 8.7127
124.2 27.6666 28.7122 -1.0456
124.25 18.6277 28.712 -10.0843
124.3 30.4747 28.7119 1.7628
124.35 27.2415 28.7119 -1.4704
124.4 33.1119 28.7118 4.4001
124.45 35.1595 28.7116 6.4479
124.5 24.422 28.7115 -4.2895
124.55 37.5639 28.7111 8.8528
124.6 24.8107 28.7108 -3.9001
124.65 27.9634 28.7102 -0.7468
124.7 35.6968 28.7096 6.9872
124.75 30.4576 28.7088 1.7488
124.8 29.1789 28.708 0.4709
124.85 21.858 28.7071 -6.8491
124.9 29.717 28.7063 1.0107
124.95 41.4658 28.7055 12.7603
125 21.7917 28.7047 -6.913
125.05 32.9796 28.7042 4.2754
125.1 29.0334 28.7036 0.3298
125.15 32.8368 28.7033 4.1335
125.2 22.8684 28.7029 -5.8345
125.25 33.1356 28.7028 4.4328
125.3 35.4495 28.7026 6.7469
125.35 31.0479 28.7025 2.3454
125.4 33.5321 28.7025 4.8296
125.45 22.6934 28.7023 -6.0089
125.5 31.7122 28.7022 3.01
125.55 23.0365 28.7019 -5.6654
125.6 20.9469 28.7016 -7.7547
125.65 36.9539 28.7011 8.2528
125.7 28.5874 28.7006 -0.1132
125.75 29.35 28.6999 0.6501
125.8 17.4247 28.6991 -11.2744
125.85 37.345 28.6983 8.6467
125.9 29.0468 28.6975 0.3493
125.95 26.4054 28.6968 -2.2914
126 24.5171 28.696 -4.1789
126.05 38.8405 28.6954 10.1451
126.1 32.2268 28.6948 3.532
126.15 24.4341 28.6944 -4.2603
126.2 29.1666 28.694 0.4726
126.25 29.9116 28.6937 1.2179
126.3 40.3538 28.6935 11.6603
126.35 27.3436 28.6934 -1.3498
126.4 31.0107 28.6933 2.3174
126.45 27.8205 28.6932 -0.8727
126.5 36.9712 28.6931 8.2781
126.55 28.5025 28.6928 -0.1903
126.6 39.3009 28.6926 10.6083
126.65 28.6861 28.6922 -0.0061
126.7 30.6989 28.6917 2.0072
126.75 35.4683 28.6911 6.7772
126.8 39.4043 28.6905 10.7138
126.85 36.2493 28.6897 7.5596
126.9 31.0075 28.689 2.3185
126.95 24.4893 28.6882 -4.1989
127 24.1293 28.6874 -4.5581
127.05 33.4084 28.6867 4.7217
127.1 34.6553 28.686 5.9693
127.15 25.1475 28.6855 -3.538
127.2 37.9184 28.685 9.2334
127.25 27.2572 28.6847 -1.4275
127.3 32.4697 28.6844 3.7853
127.35 35.6902 28.6842 7.006
127.4 36.0336 28.684 7.3496
127.45 31.7124 28.6839 3.0285
127.5 29.5802 28.6837 0.8965
127.55 33.8659 28.6835 5.1824
127.6 29.9838 28.6833 1.3005
127.65 32.9939 28.683 4.3109
127.7 37.9084 28.6826 9.2258
127.75 33.232 28.6821 4.5499
127.8 18.8438 28.6816 -9.8378
127.85 32.84 28.6809 4.1591
127.9 27.237 28.6802 -1.4432
127.95 17.7755 28.6794 -10.9039
128 28.0709 28.6787 -0.6078
128.05 33.9445 28.6779 5.2666
128.1 26.0723 28.6772 -2.6049
128.15 40.8166 28.6765 12.1401
128.2 28.4591 28.6759 -0.2168
128.25 31.4129 28.6754 2.7375
128.3 22.1663 28.6749 -6.5086
128.35 25.622 28.6746 -3.0526
128.4 24.1916 28.6743 -4.4827
128.45 19.442 28.6741 -9.2321
128.5 19.6385 28.6738 -9.0353
128.55 29.5415 28.6736 0.8679
128.6 35.0256 28.6735 6.3521
128.65 22.0903 28.6732 -6.5829
128.7 39.9171 28.6729 11.2442
128.75 28.0067 28.6725 -0.6658
128.8 21.1703 28.6721 -7.5018
128.85 29.7977 28.6715 1.1262
128.9 27.238 28.6709 -1.4329
128.95 28.6927 28.6702 0.0225
129 27.2265 28.6694 -1.4429
129.05 35.4478 28.6686 6.7792
129.1 23.4443 28.6678 -5.2235
129.15 29.7706 28.6671 1.1035
129.2 25.8955 28.6663 -2.7708
129.25 19.1164 28.6656 -9.5492
129.3 32.4575 28.665 3.7925
129.35 37.2054 28.6645 8.5409
129.4 33.6104 28.664 4.9464
129.45 37.592 28.6636 8.9284
129.5 30.762 28.6633 2.0987
129.55 32.3712 28.663 3.7082
129.6 31.0983 28.6627 2.4356
129.65 24.8573 28.6625 -3.8052
129.7 28.198 28.6622 -0.4642
129.75 23.7961 28.6619 -4.8658
129.8 31.7763 28.6615 3.1148
129.85 28.3035 28.661 -0.3575
129.9 31.9681 28.6606 3.3075
129.95 25.2821 28.6716 -3.3895
130 35.396 28.6826 6.7134
