40 50.7235 7.12204324614784
40.05 35.7195 5.9765792891921
40.1 36.6107 6.05067764799944
40.15 42.9065 6.55030533639463
40.2 51.4472 7.17267035350155
40.25 39.2176 6.26239570771442
40.3 29.9567 5.47327141662096
40.35 40.7031 6.37989811830879
40.4 46.8372 6.84377089037908
40.45 38.9941 6.24452560247774
40.5 41.7132 6.45857569437721
40.55 51.1196 7.14979719992113
40.6 48.5026 6.96438080521162
40.65 29.3652 5.41896669116908
40.7 50.7736 7.12555962714509
40.75 31.2875 5.59352304008842
40.8 38.2531 6.18490905349464
40.85 41.3348 6.42921457100321
40.9 36.5867 6.04869407393034
40.95 41.2502 6.42263185929257
41 35.8815 5.9901168602958
41.05 28.4532 5.3341541035107
41.1 48.5037 6.96445977804453
41.15 40.5417 6.36723644919835
41.2 38.3916 6.19609554477656
41.25 40.8609 6.39225312389927
41.3 47.1289 6.86504916224203
41.35 40.3064 6.34873215689558
41.4 36.404 6.03357273926486
41.45 37.3068 6.10792927267499
41.5 48.1195 6.9368220389455
41.55 53.3234 7.30228731289039
41.6 40.6202 6.37339783788836
41.65 42.7608 6.53917425979764
41.7 38.8621 6.23394738508435
41.75 38.11 6.17332973362026
41.8 32.7515 5.7228926252377
41.85 41.5264 6.44409807498303
41.9 42.4114 6.51240355014951
41.95 41.7303 6.45989938002133
42 28.4715 5.33586918880139
42.05 29.3696 5.41937265742078
42.1 51.7648 7.19477588254144
42.15 35.2806 5.93974746937949
42.2 41.5152 6.44322900415622
42.25 46.9456 6.85168592391683
42.3 38.5119 6.20579567823498
42.35 30.5712 5.52912289608397
42.4 40.2478 6.3441153835661
42.45 37.3807 6.11397579321345
42.5 54.675 7.39425452631974
42.55 30.4323 5.51654783356403
42.6 40.2051 6.34074916709374
42.65 47.872 6.91895945934069
42.7 34.4596 5.87022997845911
42.75 52.9674 7.27787056768668
42.8 26.536 5.15131051286952
42.85 41.3628 6.43139176228598
42.9 45.8549 6.77162462042899
42.95 35.584 5.96523260233832
43 28.517 5.34013108453341
43.05 36.2768 6.02302249705246
43.1 43.4313 6.59024278763689
43.15 42.702 6.53467673263184
43.2 34.1289 5.84199452242126
43.25 21.9082 4.68061961710199
43.3 38.4487 6.20070157320928
43.35 37.2306 6.10168829095686
43.4 35.6685 5.97231111044962
43.45 32.0462 5.66093631831343
43.5 35.8189 5.98488930557617
43.55 42.7836 6.54091736685306
43.6 38.7263 6.22304587802468
43.65 37.1543 6.09543271638692
43.7 40.2948 6.34781852292581
43.75 31.0009 5.56784518462933
43.8 50.2734 7.09037375601597
43.85 47.7775 6.91212702429578
43.9 47.6713 6.90444060007761
43.95 54.5193 7.38371857535212
44 47.8606 6.91813558699163
44.05 57.8365 7.60503122939019
44.1 66.59 8.16026960338934
44.15 80.0948 8.94956982206408
44.2 153.713 12.3981046938635
44.25 397.2432 19.9309608398592
44.3 1177.8906 34.3204108367018
44.35 2144.9773 46.3138996414683
44.4 2153.2031 46.4026195381252
44.45 1483.2572 38.5130782981574
44.5 455.7122 21.3474167055407
44.55 180.5862 13.4382364914448
44.6 97.3006 9.86410664986952
44.65 53.6389 7.32385827279584
44.7 51.9447 7.2072671658542
44.75 44.9185 6.70212652819984
44.8 58.0337 7.61798529796429
44.85 53.9055 7.34203650222471
44.9 35.7089 5.9756924284973
44.95 43.3616 6.58495254348883
45 43.8763 6.62391877969529
45.05 42.0378 6.48365637584226
45.1 35.425 5.95189045598119
45.15 33.6855 5.80392108836776
45.2 36.1929 6.01605352369807
45.25 37.3962 6.1152432494546
45.3 34.3311 5.85927469914152
45.35 40.4343 6.35879705604763
45.4 36.5236 6.04347582108177
45.45 33.6632 5.80199965529127
45.5 39.8882 6.31571056968256
45.55 31.8967 5.64771635265087
45.6 36.7583 6.06286236030474
45.65 32.7971 5.72687523873185
45.7 41.1595 6.41556700533943
45.75 30.8159 5.55120707594303
45.8 39.7391 6.30389562096328
45.85 22.4957 4.7429632087968
45.9 35.1374 5.92768082811482
45.95 29.2703 5.41020332335117
46 36.7122 6.05905933293279
46.05 31.2945 5.59414872880584
46.1 38.3935 6.19624886524097
46.15 41.0473 6.40681668225336
46.2 34.6532 5.8866968666647
46.25 46.5974 6.82622882710505
46.3 40.6423 6.37513137119542
46.35 40.0324 6.32711624675887
46.4 33.6587 5.80161184499618
46.45 26.9195 5.18840052424637
46.5 31.6513 5.62594880886771
46.55 32.3161 5.68472514726965
46.6 42.3375 6.50672728796897
46.65 31.5939 5.62084513218431
46.7 24.8587 4.98584997768685
46.75 46.235 6.79963234300208
46.8 36.8945 6.074084293126
46.85 43.9272 6.62775980252755
46.9 42.9045 6.55015266997648
46.95 44.6086 6.67896698599417
47 32.1098 5.66655097921125
47.05 38.972 6.24275580172731
47.1 30.5589 5.52801049203056
47.15 31.2657 5.59157401810975
47.2 38.6354 6.21573808972032
47.25 35.4585 5.95470402287133
47.3 26.8478 5.18148627326176
47.35 26.4418 5.14215907960849
47.4 30.8504 5.55431363896566
47.45 46.5424 6.82219905895452
47.5 41.1079 6.4115442757576
47.55 44.8682 6.69837293676606
47.6 40.4389 6.35915874939445
47.65 30.973 5.56533916306994
47.7 40.4736 6.36188651266273
47.75 33.7535 5.80977624353985
47.8 32.5171 5.70237669748325
47.85 45.585 6.75166646095614
47.9 27.6175 5.2552354847333
47.95 29.1723 5.40113876881533
48 24.8622 4.98620095864577
48.05 51.1698 7.15330692756854
48.1 38.5575 6.2094685762954
48.15 35.1808 5.93134048929919
48.2 31.4937 5.61192480348766
48.25 37.6298 6.13431332750455
48.3 29.1737 5.40126836955914
48.35 27.5326 5.24715160825376
48.4 30.4545 5.51855959467686
48.45 32.8442 5.73098595356855
48.5 37.6318 6.13447634276961
48.55 39.6253 6.29486298500611
48.6 32.6178 5.7111995237428
48.65 41.4623 6.43912261103949
48.7 31.1592 5.58204263688482
48.75 30.2723 5.50202689924359
48.8 31.4736 5.61013368824665
48.85 34.6223 5.88407171948133
48.9 45.3742 6.73603741082248
48.95 30.6036 5.53205206049256
49 47.7892 6.91297331110138
49.05 30.1691 5.49264053074657
49.1 41.3882 6.43336614844826
49.15 30.9548 5.56370380232449
49.2 27.0189 5.19797075790159
49.25 27.2574 5.22086199779308
49.3 29.9994 5.47717080252205
49.35 30.3127 5.50569704942072
49.4 43.6651 6.6079573243174
49.45 33.476 5.78584479570616
49.5 37.92 6.15792172733626
49.55 32.4155 5.69346116171877
49.6 24.8726 4.98724372775183
49.65 29.4255 5.42452762920422
49.7 33.29 5.76974869470066
49.75 36.4682 6.03889062659691
49.8 39.1728 6.25881777974084
49.85 23.5228 4.85003092773644
49.9 19.2086 4.38276168642558
49.95 40.8822 6.39391898603665
50 30.3188 5.50625099318947
50.05 40.9449 6.39882020375631
50.1 23.3757 4.83484229318806
50.15 31.3989 5.60347213788023
50.2 39.2526 6.26518954222456
50.25 26.248 5.12328019924735
50.3 50.4649 7.10386514511642
50.35 31.5996 5.62135215050614
50.4 44.8345 6.69585692798166
50.45 39.8039 6.30903320644297
50.5 28.7671 5.36349699356679
50.55 43.0851 6.5639241311886
50.6 31.972 5.65437883414261
50.65 35.1683 5.93028667097974
50.7 34.7507 5.89497243420188
50.75 30.5096 5.52354958337481
50.8 39.7421 6.30413356457491
50.85 35.7845 5.98201471078098
50.9 32.1673 5.67162234285746
50.95 28.9499 5.38051112813643
51 37.2462 6.10296649179725
51.05 33.6658 5.80222371164711
51.1 44.3443 6.65915159761362
51.15 23.7639 4.87482307371252
51.2 32.7894 5.72620293038939
51.25 33.5352 5.7909584698908
51.3 35.9474 5.99561506436162
51.35 32.0828 5.66416807660225
51.4 43.0781 6.56339089190946
51.45 25.6985 5.06936879700027
51.5 32.407 5.69271464241797
51.55 35.7371 5.97805152202622
51.6 39.0023 6.24518214306036
51.65 31.2909 5.59382695477792
51.7 25.9223 5.09139470086537
51.75 47.1821 6.86892276852783
51.8 37.9218 6.15806787880744
51.85 38.2968 6.18844083756159
51.9 28.8898 5.37492325526607
51.95 32.7013 5.71850504939884
52 40.1023 6.33263768109308
52.05 36.1397 6.01163039449366
52.1 40.3245 6.35015747836225
52.15 32.8784 5.73396895701398
52.2 34.578 5.88030611448078
52.25 42.766 6.53957185142881
52.3 31.097 5.57646841648009
52.35 33.2841 5.76923738461159
52.4 41.7871 6.46429423835271
52.45 24.3598 4.93556481063718
52.5 17.5641 4.19095454520805
52.55 33.4531 5.78386548944562
52.6 30.4814 5.5209962869033
52.65 30.1743 5.4931138710207
52.7 40.2151 6.34153766842081
52.75 31.0334 5.5707629639036
52.8 29.8282 5.46151993496316
52.85 44.2658 6.65325484255639
52.9 41.0196 6.40465455742931
52.95 24.1301 4.91223981499275
53 29.5207 5.43329550089078
53.05 27.4621 5.24042937172137
53.1 36.2064 6.01717541708732
53.15 26.9629 5.19258124635523
53.2 27.5241 5.2463415824744
53.25 30.5396 5.52626456116607
53.3 34.4888 5.87271657753037
53.35 29.8324 5.46190442977539
53.4 31.1939 5.58514995322417
53.45 39.0342 6.24773558979571
53.5 32.4382 5.69545432779511
53.55 20.4983 4.52750483158218
53.6 37.5927 6.13128860844113
53.65 38.41 6.19758017293847
53.7 31.9299 5.65065482930961
53.75 30.4187 5.51531504086575
53.8 35.8827 5.99021702444911
53.85 29.2013 5.40382272100038
53.9 31.7742 5.63686082851085
53.95 39.5422 6.28825890052247
54 25.3528 5.03515640273468
54.05 35.4469 5.95372992333377
54.1 28.8606 5.3722062506944
54.15 28.2268 5.31288998568576
54.2 33.2323 5.76474630838166
54.25 28.0274 5.2940910456848
54.3 36.9586 6.07935851879127
54.35 33.0161 5.74596380079095
54.4 30.7936 5.54919814027216
54.45 37.1658 6.09637597265785
54.5 38.5995 6.21284958774957
54.55 35.5749 5.96446980040976
54.6 43.3774 6.58615213914771
54.65 41.5415 6.44526958319045
54.7 21.3748 4.62328887265332
54.75 30.3301 5.50727700411011
54.8 35.612 5.96757907362776
54.85 24.2053 4.9198882101121
54.9 34.5942 5.88168343248767
54.95 31.6572 5.62647314043176
55 42.2791 6.50223807623191
55.05 29.0922 5.39371856885396
55.1 36.5517 6.04580019517681
55.15 27.3821 5.23279084237083
55.2 28.6154 5.34933640744345
55.25 29.2622 5.40945468601041
55.3 28.0316 5.29448769948519
55.35 24.4768 4.94740335933912
55.4 41.4162 6.43554193522193
55.45 28.7629 5.3631054436772
55.5 28.7527 5.36215441776904
55.55 36.1811 6.01507273438983
55.6 41.8162 6.4665446723888
55.65 39.2394 6.264136013849
55.7 28.562 5.3443428033763
55.75 34.2761 5.85457940419293
55.8 25.6836 5.06789897294727
55.85 35.867 5.98890641102363
55.9 32.7848 5.72580125397311
55.95 16.6079 4.07527913154424
56 35.7767 5.98136272098591
56.05 27.8847 5.28059655720829
56.1 23.9967 4.89864266914826
56.15 37.5073 6.12432037045744
56.2 32.057 5.66189014375941
56.25 33.8127 5.81486887212429
56.3 30.1121 5.48744931639464
56.35 37.4665 6.1209884822633
56.4 47.49 6.89129886160802
56.45 31.1174 5.57829723123464
56.5 25.6725 5.06680372621636
56.55 29.5011 5.43149150786412
56.6 32.9871 5.74343973590739
56.65 30.0006 5.47728034703355
56.7 33.4723 5.78552504099671
56.75 33.0475 5.74869550419919
56.8 26.6109 5.1585753847356
56.85 32.492 5.70017543589669
56.9 24.1929 4.91862785744155
56.95 29.2602 5.40926982133448
57 36.0186 6.00154979984337
57.05 28.4605 5.3348383293217
57.1 41.4072 6.43484265541901
57.15 39.0304 6.2474314722132
57.2 32.5231 5.70290276964284
57.25 40.8966 6.39504495683963
57.3 27.0518 5.20113449162776
57.35 36.1245 6.01036604542519
57.4 32.6263 5.7119436271728
57.45 31.5762 5.61927041527635
57.5 38.9785 6.24327638343843
57.55 32.9864 5.74337879649253
57.6 32.7366 5.72159068791189
57.65 34.028 5.83335238092128
57.7 34.0935 5.8389639491951
57.75 38.0879 6.17153951619853
57.8 29.3439 5.41700101532204
57.85 34.1753 5.84596442000805
57.9 25.1099 5.01097794846475
57.95 38.2936 6.18818228561506
58 33.1379 5.75655278791049
58.05 32.292 5.68260503642476
58.1 35.3274 5.94368572520452
58.15 31.1708 5.58308158636429
58.2 29.4875 5.43023940540378
58.25 31.9988 5.65674818248081
58.3 29.541 5.43516329101528
58.35 30.9733 5.56536611553993
58.4 32.742 5.72206256519448
58.45 28.8589 5.37204802659098
58.5 34.2887 5.85565538603494
58.55 37.1103 6.09182238743055
58.6 34.5396 5.87704007132842
58.65 38.3738 6.19465898980727
58.7 30.907 5.55940644313761
58.75 34.1753 5.84596442000805
58.8 39.5301 6.28729671639569
58.85 32.8976 5.73564294565134
58.9 20.3952 4.51610451606249
58.95 32.819 5.72878695711405
59 33.6804 5.80348171359228
59.05 26.2686 5.12529023568422
59.1 31.6296 5.62401991461623
59.15 36.3233 6.02688144897508
59.2 40.3435 6.35165332807136
59.25 31.2076 5.58637628521388
59.3 31.1124 5.57784904779611
59.35 35.9336 5.99446411282944
59.4 23.3084 4.82787738038157
59.45 33.0174 5.74607692256204
59.5 25.0874 5.00873237456345
59.55 30.5775 5.52969257735003
59.6 39.4499 6.28091553835904
59.65 33.1308 5.75593606635793
59.7 27.7434 5.2672003948967
59.75 32.7967 5.72684031556669
59.8 32.5809 5.70796811483736
59.85 27.9034 5.28236689373239
59.9 41.9148 6.47416403870029
59.95 33.4958 5.78755561528354
60 25.8724 5.08649191486628
60.05 40.1532 6.33665526914633
60.1 34.1279 5.84190893458636
60.15 27.5528 5.24907610918341
60.2 25.4639 5.04617677058583
60.25 36.7966 6.06602011206689
60.3 19.5533 4.42191135144069
60.35 17.5556 4.18994033370405
60.4 40.3863 6.35502163646986
60.45 30.2177 5.49706285210566
60.5 32.4584 5.69722739584791
60.55 21.5544 4.642671644646
60.6 31.0363 5.57102324532935
60.65 28.9096 5.37676482654765
60.7 29.2374 5.4071619173093
60.75 33.4665 5.78502376831764
60.8 33.7464 5.80916517238062
60.85 22.5188 4.74539777047193
60.9 36.7225 6.05990924024444
60.95 36.4678 6.03885750784037
61 28.783 5.36497903071391
61.05 26.6979 5.16700106444735
61.1 31.5333 5.61545189633034
61.15 31.8937 5.64745075233065
61.2 33.6607 5.80178420832764
61.25 23.4027 4.83763371908209
61.3 37.7696 6.14569768211877
61.35 32.9482 5.74005226457042
61.4 31.1716 5.58315323092605
61.45 32.699 5.71830394435273
61.5 28.211 5.3114028278789
61.55 34.2505 5.8523926730868
61.6 30.6664 5.53772516472242
61.65 34.1475 5.84358622765165
61.7 26.2024 5.11882799085885
61.75 35.2023 5.93315261897079
61.8 35.9451 5.99542325445001
61.85 37.2428 6.10268793237865
61.9 28.2426 5.31437672733125
61.95 27.6337 5.25677657885514
62 38.7783 6.22722249482062
62.05 27.5836 5.25200913936752
62.1 26.3596 5.13416010658024
62.15 27.7781 5.2704933355427
62.2 21.7069 4.6590664300909
62.25 31.969 5.65411354679051
62.3 36.1543 6.01284458472028
62.35 33.6645 5.80211168455072
62.4 30.1181 5.48799599125218
62.45 35.2111 5.93389416825073
62.5 30.2056 5.49596215416373
62.55 23.5109 4.84880397623991
62.6 28.2633 5.31632391789665
62.65 34.3096 5.85743971373159
62.7 36.1583 6.0131771967904
62.75 32.5645 5.70653134574761
62.8 29.1444 5.39855536231685
62.85 26.8752 5.18412962800893
62.9 38.6065 6.21341291079226
62.95 50.4541 7.10310495487713
63 35.0239 5.91809935705713
63.05 32.1654 5.67145483980962
63.1 27.937 5.28554632937788
63.15 30.6127 5.53287447896661
63.2 26.3697 5.13514362019214
63.25 28.0664 5.29777311707476
63.3 25.7904 5.07842495267972
63.35 30.2116 5.49650798234661
63.4 27.0687 5.20275888351555
63.45 30.194 5.49490673260247
63.5 30.651 5.5363345274649
63.55 22.5178 4.74529240405689
63.6 32.4508 5.69656036569437
63.65 31.156 5.58175599610015
63.7 31.1307 5.57948922393439
63.75 39.1001 6.25300727650304
63.8 38.7128 6.22196110563221
63.85 39.1677 6.25841034129275
63.9 32.2242 5.67663632796747
63.95 33.7547 5.80987951682305
64 34.7141 5.89186727616975
64.05 28.6315 5.35084105538559
64.1 31.7203 5.63207776934943
64.15 26.9011 5.1866270349814
64.2 32.506 5.70140333602176
64.25 39.7914 6.30804248558933
64.3 37.3945 6.11510425095108
64.35 38.7741 6.22688525669134
64.4 53.2173 7.29501884850204
64.45 51.2772 7.16081001004775
64.5 50.1539 7.08194182410446
64.55 79.4052 8.91095954429151
64.6 96.3876 9.81771867594504
64.65 127.2173 11.2790646775342
64.7 168.7279 12.9895303995179
64.75 152.9341 12.3666527403336
64.8 101.305 10.065038499678
64.85 73.3293 8.56325288660799
64.9 55.4854 7.44885226058351
64.95 45.9311 6.77724870430472
65 45.5515 6.74918513599975
65.05 29.2714 5.41030498216136
65.1 39.5897 6.29203464707562
65.15 33.6103 5.79743908980508
65.2 38.2783 6.18694593478883
65.25 38.8238 6.23087473794812
65.3 32.7066 5.71896843845112
65.35 26.8738 5.18399459876262
65.4 36.8482 6.07027182257928
65.45 29.8403 5.46262757288102
65.5 30.0638 5.48304659837941
65.55 24.5047 4.95022221723429
65.6 32.6642 5.71526027403827
65.65 32.1126 5.66679803769289
65.7 33.2294 5.76449477404568
65.75 32.8024 5.72733795056656
65.8 28.4533 5.33416347705992
65.85 39.763 6.30579098924156
65.9 31.9762 5.65475021552677
65.95 30.2249 5.49771770828587
66 28.6592 5.35342880778291
66.05 25.0138 5.00137980961254
66.1 34.0748 5.83736241807891
66.15 27.576 5.25128555688986
66.2 29.8576 5.46421083048595
66.25 28.534 5.34172256861024
66.3 29.7049 5.45022017903864
66.35 27.4478 5.23906480204244
66.4 31.8205 5.64096622929087
66.45 36.0481 6.00400699533237
66.5 33.2414 5.76553553453623
66.55 22.45 4.73814309619285
66.6 31.1052 5.57720360037179
66.65 38.3237 6.19061386293799
66.7 24.1134 4.91053968520773
66.75 38.352 6.19289915952133
66.8 35.3151 5.94265092361986
66.85 30.5933 5.53112104369449
66.9 27.564 5.25014285519928
66.95 21.2787 4.61288413034622
67 34.5742 5.87998299317268
67.05 27.8477 5.27709200223002
67.1 22.8795 4.78325203182939
67.15 28.0836 5.29939619202037
67.2 33.4622 5.78465210708475
67.25 35.7285 5.97733218083118
67.3 35.1134 5.92565608181913
67.35 26.3669 5.13487098182613
67.4 27.4633 5.24054386490563
67.45 31.809 5.63994680825981
67.5 23.1234 4.80867965246179
67.55 26.4473 5.14269384661385
67.6 34.1666 5.84522026958779
67.65 32.5273 5.70327099128211
67.7 40.5214 6.3656421514251
67.75 29.394 5.42162337312359
67.8 29.173 5.40120356957595
67.85 31.7949 5.63869665791661
67.9 32.0011 5.65695147583926
67.95 34.8868 5.90650488867994
68 26.5753 5.15512366486004
68.05 31.3641 5.60036605946433
68.1 22.8798 4.78328339114462
68.15 50.0788 7.07663761966091
68.2 38.6237 6.21479685910972
68.25 31.0624 5.57336523116869
68.3 28.4785 5.33652508660833
68.35 29.5017 5.43154674103059
68.4 33.4673 5.78509291195915
68.45 30.9656 5.56467429415235
68.5 34.5699 5.879617334487
68.55 29.6573 5.44585163220593
68.6 28.1566 5.30627929909461
68.65 33.0476 5.74870420181801
68.7 41.7836 6.46402351480871
68.75 36.4017 6.03338213608255
68.8 36.0094 6.00078328220575
68.85 25.1443 5.01440923738779
68.9 33.7141 5.80638441717391
68.95 28.7253 5.35959886558686
69 27.4325 5.23760441423367
69.05 24.4929 4.94903020803066
69.1 25.0319 5.00318898303872
69.15 26.4814 5.1460081616725
69.2 32.9031 5.73612238363165
69.25 29.5387 5.43495170171732
69.3 24.4013 4.93976720099237
69.35 22.8418 4.77930957356813
69.4 32.9282 5.73830985569793
69.45 28.7423 5.36118457059632
69.5 22.0931 4.70032977566468
69.55 24.6217 4.96202579598293
69.6 27.3142 5.22629888161785
69.65 30.5191 5.52440947070363
69.7 37.4517 6.11977940778914
69.75 29.4547 5.42721844041678
69.8 32.1406 5.66926803035454
69.85 28.957 5.38117087630564
69.9 31.8697 5.64532549991584
69.95 34.0611 5.83618882490963
70 27.8928 5.28136346031969
70.05 32.5299 5.70349892609791
70.1 26.0272 5.1016859958253
70.15 29.3684 5.41926194236817
70.2 31.6462 5.62549553372856
70.25 30.6805 5.53899810435064
70.3 51.2856 7.16139651185437
70.35 26.2114 5.11970702286762
70.4 28.2729 5.31722672076337
70.45 30.4981 5.5225084879971
70.5 29.2562 5.40890007302779
70.55 26.8003 5.17690061716468
70.6 26.0262 5.10158798806803
70.65 24.2183 4.92120920099928
70.7 36.6395 6.05305707886519
70.75 29.1932 5.40307319957818
70.8 37.0335 6.08551559031772
70.85 25.8095 5.08030510894769
70.9 29.5807 5.43881420899813
70.95 22.7791 4.77274554109058
71 23.282 4.8251424849428
71.05 30.2598 5.50089083694632
71.1 49.412 7.02936697007632
71.15 35.538 5.96137568015974
71.2 36.3842 6.03193169722602
71.25 31.0976 5.5765222137099
71.3 26.6844 5.16569453219991
71.35 36.931 6.07708811849886
71.4 30.0349 5.48041056856145
71.45 38.306 6.18918411424317
71.5 33.4494 5.78354562530633
71.55 35.6328 5.9693215694918
71.6 37.5048 6.12411626277621
71.65 30.3577 5.50978220985186
71.7 23.2875 4.82571238264362
71.75 37.8476 6.15204031196155
71.8 31.8011 5.63924640355429
71.85 36.5782 6.04799140211029
71.9 36.3322 6.02761976239378
71.95 34.0258 5.83316380706045
72 32.9925 5.74390981823357
72.05 35.3241 5.94340811319566
72.1 32.765 5.72407197718547
72.15 40.1017 6.33259030729132
72.2 33.0599 5.74977390859849
72.25 26.1385 5.11258251767148
72.3 29.46 5.42770669804476
72.35 31.0294 5.57040393508406
72.4 23.6847 4.8666929223036
72.45 27.2303 5.21826599551997
72.5 30.7826 5.54820691755453
72.55 33.8573 5.81870260453308
72.6 30.0968 5.48605504893999
72.65 30.5658 5.52863455113467
72.7 26.495 5.14732940465248
72.75 24.7451 4.9744446926265
72.8 21.9999 4.6904050997755
72.85 26.8803 5.18462149052368
72.9 37.4351 6.11842299943376
72.95 28.522 5.34059921731635
73 33.8021 5.81395734418477
73.05 38.7167 6.22227450374861
73.1 29.251 5.40841936243853
73.15 25.1455 5.01452889113225
73.2 38.2 6.18061485614498
73.25 41.865 6.4703168392282
73.3 18.6606 4.31979166164296
73.35 24.3515 4.93472390311758
73.4 23.507 4.84840179853114
73.45 20.8249 4.563430726986
73.5 24.5962 4.95945561528682
73.55 30.4508 5.51822435209008
73.6 32.3039 5.68365199497647
73.65 27.4785 5.24199389545619
73.7 30.9359 5.5620050341581
73.75 15.775 3.9717754216471
73.8 36.8152 6.06755304879982
73.85 32.2402 5.67804543835288
73.9 29.2433 5.40770746250202
73.95 31.9737 5.65452915811741
74 33.0427 5.74827800301969
74.05 22.2045 4.71216510746387
74.1 26.4934 5.14717398190502
74.15 17.2339 4.15137326676366
74.2 35.934 5.99449747685325
74.25 30.7588 5.5460616657228
74.3 23.2515 4.82198092074201
74.35 30.1596 5.49177566912561
74.4 35.5712 5.96415962227706
74.45 30.3572 5.50973683582075
74.5 34.9055 5.90808767707454
74.55 23.0298 4.79893738237956
74.6 37.0166 6.08412688888061
74.65 36.87 6.07206719330411
74.7 25.5598 5.05567008417282
74.75 28.5422 5.34249005614423
74.8 27.5686 5.25058092024111
74.85 33.2841 5.76923738461159
74.9 26.5428 5.15197049680993
74.95 30.0922 5.48563578812885
75 40.9629 6.40022655848994
75.05 25.1007 5.01005987988168
75.1 44.9889 6.70737653632178
75.15 25.8037 5.07973424501715
75.2 33.6339 5.79947411409
75.25 26.8233 5.17912154713519
75.3 30.8819 5.55714854939114
75.35 31.4646 5.60933151097348
75.4 37.1758 6.09719607688649
75.45 30.6738 5.53839326881001
75.5 34.8474 5.90316864065393
75.55 37.6794 6.13835482845363
75.6 40.8462 6.39110319115566
75.65 32.1471 5.6698412676194
75.7 28.9746 5.38280595972026
75.75 38.3071 6.1892729783069
75.8 35.2267 5.93520850518328
75.85 31.6027 5.62162787811502
75.9 23.7148 4.86978438947763
75.95 27.1784 5.21329070741312
76 25.4101 5.04084318343668
76.05 28.8736 5.37341604568267
76.1 34.153 5.8440568101277
76.15 23.7066 4.86894239029381
76.2 29.885 5.46671747943864
76.25 29.9605 5.473618547177
76.3 34.6728 5.88836140195216
76.35 38.2133 6.18169070724183
76.4 30.2561 5.50055451750094
76.45 31.8147 5.64045210953874
76.5 24.1679 4.91608584139862
76.55 26.8062 5.17747042483103
76.6 20.2848 4.503865006858
76.65 27.6787 5.26105502727352
76.7 36.6604 6.05478323311413
76.75 29.8308 5.46175795875284
76.8 41.075 6.40897807766574
76.85 28.4492 5.33377914803378
76.9 27.1107 5.20679363908346
76.95 36.0638 6.00531431317296
77 28.0513 5.29634779824739
77.05 27.4544 5.23969464759159
77.1 33.5477 5.79203763799926
77.15 31.1979 5.58550803418991
77.2 28.9195 5.37768537569836
77.25 29.1684 5.40077772177304
77.3 35.1596 5.92955310289064
77.35 36.2369 6.01970929530654
77.4 34.1521 5.84397980831556
77.45 29.0384 5.38872897815431
77.5 37.8016 6.14830057820858
77.55 29.9808 5.47547258234392
77.6 26.7339 5.17048353638226
77.65 30.6662 5.53770710673651
77.7 32.7165 5.71983391367267
77.75 32.6407 5.7132040047595
77.8 40.0778 6.33070296254689
77.85 35.5954 5.96618806274157
77.9 30.9597 5.56414413903882
77.95 27.838 5.27617285539433
78 28.2089 5.31120513631323
78.05 29.2552 5.40880763200172
78.1 36.8708 6.07213306837062
78.15 38.162 6.17753996344823
78.2 34.5385 5.8769464860589
78.25 38.0983 6.17238203613483
78.3 32.0574 5.66192546754194
78.35 35.9545 5.99620713451428
78.4 33.005 5.74499782419454
78.45 24.2292 4.92231652781493
78.5 22.085 4.69946805500367
78.55 26.3548 5.13369262811867
78.6 29.2479 5.40813276464253
78.65 34.7111 5.89161268244952
78.7 41.7506 6.46147042088718
78.75 35.2951 5.9409679346046
78.8 36.1866 6.01552990184572
78.85 23.1955 4.81617067803873
78.9 25.0901 5.00900189658579
78.95 28.4483 5.33369477941886
79 33.3762 5.77721386136951
79.05 17.8447 4.22429875837399
79.1 30.8879 5.55768836837763
79.15 23.5672 4.85460606022775
79.2 27.4329 5.23764259949073
79.25 34.0129 5.83205795581628
79.3 29.0821 5.39278221329213
79.35 42.539 6.52219288276573
79.4 30.9751 5.56552782761887
79.45 33.3507 5.77500649350284
79.5 32.6984 5.71825148100361
79.55 33.5952 5.79613664435199
79.6 28.7101 5.35818066138125
79.65 23.8903 4.88777045287522
79.7 39.4976 6.28471160833972
79.75 26.3753 5.13568885350349
79.8 28.4604 5.33482895695823
79.85 37.0939 6.09047617186046
79.9 28.1653 5.30709901923829
79.95 34.5919 5.88148790698408
80 31.6499 5.62582438403475
80.05 24.2973 4.92922914866006
80.1 29.2719 5.41035119007999
80.15 34.0157 5.83229800336025
80.2 31.3777 5.60158013421213
80.25 31.1594 5.58206055144514
80.3 37.739 6.14320763119724
80.35 35.5585 5.96309483406058
80.4 30.6371 5.53507904189272
80.45 26.2365 5.12215774844938
80.5 29.631 5.44343641461899
80.55 38.5924 6.21227816505346
80.6 27.8314 5.27554736496603
80.65 28.8642 5.37254129811954
80.7 34.8483 5.90324487040814
80.75 35.8851 5.99041734773129
80.8 33.582 5.79499784296767
80.85 23.5122 4.84893802806346
80.9 25.881 5.08733722098309
80.95 28.0724 5.29833936247953
81 31.7481 5.63454523453313
81.05 37.3772 6.11368955705145
81.1 49.0677 7.0048340451434
81.15 34.4621 5.87044291344358
81.2 31.4048 5.60399857244807
81.25 29.3896 5.42121757541606
81.3 28.938 5.37940517157799
81.35 27.782 5.27086330689765
81.4 36.683 6.05664923864673
81.45 31.7167 5.63175816242139
81.5 33.5589 5.79300440186265
81.55 31.3797 5.60175865242336
81.6 49.6569 7.04676521533107
81.65 41.7179 6.45893954144177
81.7 42.143 6.49176401296289
81.75 50.5658 7.11096336652074
81.8 52.3002 7.23188772036734
81.85 107.3722 10.3620557805872
81.9 209.1047 14.4604529666259
81.95 285.5984 16.899656801249
82 273.7322 16.544854184912
82.05 210.8207 14.5196659741194
82.1 121.6794 11.030838590062
82.15 89.7 9.47100839404126
82.2 50.668 7.11814582598587
82.25 46.6262 6.82833801155157
82.3 38.2966 6.1884246783814
82.35 36.6795 6.05636029311335
82.4 24.8339 4.98336231875628
82.45 37.1166 6.09233945213167
82.5 35.9087 5.99238683664531
82.55 36.2737 6.02276514567852
82.6 33.6366 5.79970688914535
82.65 33.7863 5.8125983862641
82.7 40.8523 6.39158039924399
82.75 44.1695 6.64601384289861
82.8 21.8668 4.67619503442703
82.85 30.2626 5.50114533529155
82.9 37.9268 6.15847383691771
82.95 51.4838 7.17522125094411
83 30.2163 5.49693550990004
83.05 28.2011 5.31047078892258
83.1 31.7879 5.63807591293342
83.15 24.7895 4.97890550221633
83.2 36.0913 6.00760351554595
83.25 31.4001 5.60357921332428
83.3 30.5208 5.52456333116021
83.35 27.0533 5.20127868893794
83.4 28.9024 5.37609523725166
83.45 39.2231 6.26283482138879
83.5 29.5326 5.43439049020219
83.55 26.8656 5.18320364253615
83.6 23.2981 4.82681054113376
83.65 38.9409 6.24026441747463
83.7 25.6975 5.06927016443196
83.75 37.4429 6.11906038538598
83.8 23.8781 4.88652228072276
83.85 33.795 5.81334671252283
83.9 20.3023 4.50580736383614
83.95 43.2002 6.57268590455987
84 28.7702 5.36378597634171
84.05 30.122 5.48835130070953
84.1 22.1678 4.70826932109878
84.15 36.2407 6.02002491689196
84.2 33.2218 5.7638355285348
84.25 31.2976 5.59442579716632
84.3 31.8118 5.64019503208887
84.35 24.7119 4.97110651666206
84.4 26.5009 5.14790248547892
84.45 24.6589 4.96577285022181
84.5 35.3704 5.94730190926945
84.55 32.8269 5.72947641586908
84.6 39.4331 6.2795780112998
84.65 40.7871 6.38647790256883
84.7 30.8404 5.55341336476945
84.75 25.3891 5.03875976803816
84.8 33.4066 5.77984428856003
84.85 36.5388 6.04473324473463
84.9 30.848 5.55409758646713
84.95 31.2444 5.58966904208111
85 25.8117 5.08052162676235
85.05 32.1597 5.67095230098085
85.1 29.0891 5.39343118988274
85.15 32.9724 5.74215987238252
85.2 29.3232 5.41509002695246
85.25 29.3088 5.41376024589194
85.3 28.9372 5.37933081340049
85.35 24.2212 4.92150383521135
85.4 35.4989 5.95809533324199
85.45 33.0062 5.74510226192711
85.5 32.5483 5.70511174298979
85.55 31.0007 5.56782722433087
85.6 31.1916 5.58494404627298
85.65 36.2677 6.02226701500357
85.7 36.5983 6.04965288260409
85.75 30.6455 5.53583778664079
85.8 27.8458 5.27691197576765
85.85 30.7376 5.54415007011895
85.9 21.7883 4.66779391147467
85.95 26.0216 5.10113712813133
86 13.6393 3.6931422934948
86.05 23.5721 4.85511070934536
86.1 31.1026 5.57697050377712
86.15 20.7616 4.55648987708741
86.2 26.26 5.12445119012758
86.25 26.7379 5.17087033293236
86.3 28.7643 5.36323596348324
86.35 23.9792 4.89685613429678
86.4 34.3482 5.86073374245922
86.45 29.9989 5.47712515832896
86.5 23.5245 4.85020618118447
86.55 27.7558 5.26837735930144
86.6 35.1386 5.92778204727535
86.65 43.9673 6.63078426733972
86.7 32.4964 5.70056137586466
86.75 25.2879 5.02870758744232
86.8 37.8222 6.14997560970773
86.85 35.6664 5.97213529652502
86.9 35.1967 5.93268067571482
86.95 23.9923 4.89819354456314
87 35.1153 5.9258163994508
87.05 31.739 5.6337376580739
87.1 23.7632 4.87475127570628
87.15 29.1361 5.3977865834062
87.2 34.8229 5.90109311907548
87.25 33.4016 5.77941173477024
87.3 32.208 5.67520924724366
87.35 31.6216 5.62330863460294
87.4 30.5367 5.52600217155223
87.45 26.2025 5.11883775871047
87.5 32.3644 5.68897178759044
87.55 26.7608 5.17308418644043
87.6 30.2502 5.50001818178813
87.65 33.6526 5.80108610520478
87.7 30.2737 5.50215412361377
87.75 29.076 5.39221661285969
87.8 25.0333 5.00332889184791
87.85 29.7984 5.45879107495423
87.9 26.0089 5.09989215572251
87.95 37.164 6.09622834218011
88 30.8662 5.55573577485467
88.05 23.8623 4.88490532149805
88.1 30.1303 5.48910739556077
88.15 34.6148 5.88343437118151
88.2 27.3788 5.23247551355952
88.25 28.247 5.31479068261394
88.3 30.4358 5.51686505182064
88.35 22.5035 4.7437854083
88.4 32.7634 5.72393221483274
88.45 35.9433 5.99527313806469
88.5 26.9405 5.19042387479096
88.55 23.3686 4.83410798389941
88.6 35.0825 5.92304820172857
88.65 29.4857 5.43007366432537
88.7 30.2682 5.50165429666387
88.75 31.0666 5.57374201053475
88.8 38.6597 6.21769249802529
88.85 26.2678 5.12521219072928
88.9 21.1244 4.5961288058539
88.95 28.7528 5.36216374237117
89 26.2516 5.12363152461221
89.05 37.6477 6.13577216004636
89.1 23.1295 4.80931388037836
89.15 24.9438 4.99437683800492
89.2 29.9822 5.47560042369784
89.25 38.2015 6.18073620210408
89.3 31.1502 5.58123642215594
89.35 28.6063 5.34848576701855
89.4 33.1507 5.75766445705201
89.45 36.0594 6.00494795980781
89.5 27.6511 5.2584313250246
89.55 31.26 5.59106429939775
89.6 22.9549 4.79112721601086
89.65 31.4735 5.61012477579599
89.7 30.5164 5.52416509528816
89.75 25.5787 5.05753892718583
89.8 29.0597 5.39070496317504
89.85 36.6882 6.05707850370127
89.9 29.3532 5.4178593558711
89.95 26.1162 5.11040115842191
90 35.1735 5.93072508214636
90.05 22.4563 4.73880786696401
90.1 26.2172 5.12027343019882
90.15 30.7811 5.5480717370993
90.2 38.8287 6.23126792876057
90.25 39.2114 6.26190066992443
90.3 30.5883 5.53066903728654
90.35 38.4614 6.20172556632426
90.4 40.5433 6.3673620911646
90.45 21.246 4.6093383473119
90.5 31.4595 5.60887689292607
90.55 24.7972 4.9796787044949
90.6 28.3887 5.32810472870044
90.65 28.8861 5.37457905328408
90.7 36.4638 6.03852631028465
90.75 46.9908 6.8549835886018
90.8 34.3532 5.86116029468569
90.85 25.0283 5.00282919956298
90.9 35.1787 5.93116346090714
90.95 37.1634 6.09617913122638
91 42.9853 6.55631756399886
91.05 26.712 5.16836531216593
91.1 29.7971 5.45867199967172
91.15 22.2583 4.71787028223541
91.2 28.123 5.30311229373846
91.25 26.5517 5.15283417159916
91.3 41.9766 6.47893509768388
91.35 30.7671 5.54680989398411
91.4 27.7386 5.26674472515993
91.45 37.9098 6.1570934701367
91.5 32.1999 5.67449557229539
91.55 27.6834 5.26150168678107
91.6 38.119 6.17405863269859
91.65 38.788 6.22800128452138
91.7 37.4288 6.11790813922537
91.75 28.2599 5.31600413844835
91.8 39.0986 6.25288733306462
91.85 42.4288 6.51373932545662
91.9 27.1339 5.20902102126686
91.95 36.2528 6.02102981224973
92 28.6638 5.35385842173661
92.05 39.4083 6.27760304574923
92.1 27.4833 5.24245171651585
92.15 25.2016 5.02011952048953
92.2 30.5189 5.52439136919172
92.25 34.9624 5.91290114918218
92.3 28.1221 5.30302743722866
92.35 30.2309 5.49826336218992
92.4 34.4945 5.87320185248217
92.45 23.0621 4.80230153155755
92.5 24.2217 4.92155463243069
92.55 43.4128 6.58883904796589
92.6 27.9958 5.29110574454905
92.65 30.1152 5.48773177187078
92.7 37.5132 6.12480203761722
92.75 23.6905 4.86728877302344
92.8 31.3626 5.60023213804571
92.85 20.9743 4.5797707366199
92.9 25.7292 5.07239588360372
92.95 29.4978 5.43118771540811
93 31.3367 5.59791925629515
93.05 32.9471 5.73995644582779
93.1 23.5595 4.85381293417865
93.15 18.5867 4.31122952300153
93.2 38.0673 6.16987033899417
93.25 31.0492 5.57218090158602
93.3 30.1949 5.49498862601189
93.35 23.0545 4.80151017909991
93.4 30.4946 5.52219159392356
93.45 29.1439 5.39850905343318
93.5 30.0829 5.48478805424603
93.55 26.3981 5.13790813464001
93.6 27.9315 5.28502601696529
93.65 32.7358 5.72152077685645
93.7 29.3398 5.41662256392302
93.75 29.9232 5.47021023361991
93.8 31.9859 5.65560783647523
93.85 32.0562 5.66181949553322
93.9 24.4935 4.94909082559615
93.95 32.8807 5.73416951266703
94 34.7392 5.89399694604604
94.05 31.0536 5.57257570608063
94.1 27.8087 5.27339549057341
94.15 28.6445 5.35205567982995
94.2 26.2543 5.12389500282744
94.25 38.917 6.23834914059802
94.3 46.0857 6.78864493105951
94.35 35.776 5.981304205606
94.4 21.1506 4.59897814737144
94.45 18.8681 4.34374262589302
94.5 18.0405 4.24741097611239
94.55 32.4272 5.69448856351473
94.6 33.0104 5.74546777904115
94.65 33.991 5.83018010013413
94.7 29.1972 5.40344334660779
94.75 39.2903 6.26819750805604
94.8 36.1336 6.01112302319625
94.85 26.1145 5.11023482826377
94.9 28.583 5.34630713670661
94.95 36.6932 6.05749122987396
95 35.3227 5.94329033448644
95.05 29.8557 5.46403696912823
95.1 27.9539 5.28714478712282
95.15 36.879 6.07280824660223
95.2 27.738 5.26668776367083
95.25 26.8462 5.18133187510702
95.3 35.7982 5.983159700359
95.35 29.7332 5.45281578636212
95.4 36.2222 6.01848818225973
95.45 22.222 4.71402163762535
95.5 31.3727 5.60113381379163
95.55 30.2283 5.49802691881369
95.6 32.0902 5.66482126814254
95.65 31.2712 5.59206580791035
95.7 32.7812 5.72548687886017
95.75 33.532 5.79068217052188
95.8 35.1155 5.92583327473867
95.85 37.7559 6.14458298015415
95.9 30.729 5.54337442357992
95.95 28.5017 5.33869834322937
96 28.2786 5.31776268744667
96.05 34.564 5.87911557974497
96.1 28.8112 5.36760654295748
96.15 30.4513 5.5182696563325
96.2 35.1361 5.92757117207377
96.25 27.6435 5.2577086263885
96.3 27.3717 5.23179701441101
96.35 28.8061 5.36713144985289
96.4 32.1617 5.67112863546578
96.45 30.0242 5.47943427736842
96.5 24.8382 4.98379373569974
96.55 25.8014 5.07950785017604
96.6 36.9684 6.08016447145963
96.65 36.2643 6.02198472266411
96.7 25.9211 5.09127685359969
96.75 29.5454 5.43556804759171
96.8 27.7418 5.26704850936461
96.85 28.8052 5.36704760552764
96.9 30.3554 5.5095734862147
96.95 33.4434 5.78302688909536
97 23.5368 4.85147400281605
97.05 40.2206 6.34197130236333
97.1 22.3553 4.72813916884856
97.15 34.7084 5.89138353869445
97.2 36.3534 6.02937807738078
97.25 20.7935 4.55998903507454
97.3 31.4347 5.60666567578271
97.35 35.9721 5.99767454935661
97.4 37.0578 6.08751180697007
97.45 32.1824 5.6729533754474
97.5 34.6408 5.88564355019908
97.55 35.2696 5.93882143190044
97.6 21.8595 4.67541442013433
97.65 20.7849 4.55904595282829
97.7 37.5308 6.12623865026494
97.75 34.0909 5.83874130271243
97.8 37.1153 6.09223275983444
97.85 26.463 5.14422005750143
97.9 31.1264 5.57910387069465
97.95 33.4568 5.78418533589649
98 31.2148 5.58702067295263
98.05 33.4219 5.78116770211694
98.1 31.7594 5.63554788818266
98.15 39.9921 6.32393073965868
98.2 43.3218 6.58192980819455
98.25 37.2998 6.10735622016597
98.3 44.9926 6.70765234638767
98.35 55.5364 7.45227482048267
98.4 67.3578 8.20717978357974
98.45 102.172 10.1080166204849
98.5 151.8638 12.3233031286259
98.55 163.6934 12.7942721559298
98.6 143.0206 11.959122041354
98.65 105.8845 10.2900194363276
98.7 62.0254 7.8756206104662
98.75 65.9613 8.1216562350299
98.8 49.2883 7.02056265551416
98.85 35.997 5.99974999479145
98.9 36.7168 6.05943891791971
98.95 32.5535 5.70556745644112
99 28.9492 5.38044607816118
99.05 25.6838 5.06791870495177
99.1 38.101 6.172600748469
99.15 33.5982 5.79639543164543
99.2 29.3902 5.4212729132557
99.25 39.4224 6.27872598542093
99.3 24.5851 4.95833641456487
99.35 30.9208 5.56064744431797
99.4 24.1312 4.9123517789344
99.45 32.5639 5.70647877416538
99.5 32.3641 5.68894542072606
99.55 33.3254 5.77281560419177
99.6 45.2906 6.72982912115902
99.65 33.9667 5.8280957438944
99.7 30.7789 5.54787346647344
99.75 27.0558 5.201519008905
99.8 32.4789 5.69902623261202
99.85 27.0008 5.19622940217231
99.9 34.7147 5.89191819359366
99.95 30.697 5.54048734318562
100 27.9409 5.285915247145
100.05 30.1727 5.49296823220379
100.1 27.316 5.22647108477604
100.15 34.6487 5.88631463651069
100.2 27.043 5.20028845353794
100.25 26.0058 5.09958821867021
100.3 31.6132 5.62256169374779
100.35 25.7331 5.07278030275312
100.4 24.1562 4.9148957262591
100.45 34.1046 5.83991438293405
100.5 39.8483 6.31255098989307
100.55 32.2886 5.68230586997919
100.6 38.6097 6.21367041288802
100.65 30.0681 5.48343870212844
100.7 29.6679 5.4468247631074
100.75 29.9641 5.47394738739787
100.8 29.5118 5.43247641504314
100.85 28.2992 5.31969923961872
100.9 29.1754 5.40142573771037
100.95 30.0813 5.48464219434595
101 42.7995 6.54213267979181
101.05 22.4489 4.73802701554138
101.1 26.3992 5.13801518098185
101.15 34.4063 5.86568836540094
101.2 35.3585 5.94630137144091
101.25 23.0929 4.80550725730385
101.3 24.8524 4.98521814969014
101.35 23.5609 4.85395714855416
101.4 24.9259 4.99258450103751
101.45 27.6952 5.26262292017963
101.5 29.9254 5.47041131908744
101.55 19.7347 4.44237549065812
101.6 29.9389 5.47164509082963
101.65 36.1715 6.01427468611137
101.7 27.8193 5.27440043986044
101.75 21.8405 4.67338207297456
101.8 28.4135 5.33043150223319
101.85 22.6499 4.75919110774089
101.9 30.5504 5.52724162670676
101.95 33.5841 5.79517903088421
102 29.7256 5.45211885417037
102.05 28.2514 5.31520460565725
102.1 25.5094 5.05068312211329
102.15 28.6995 5.35719142835124
102.2 37.2157 6.10046719522366
102.25 20.2101 4.49556448068538
102.3 38.73 6.22334315300064
102.35 32.604 5.70999124342586
102.4 26.8012 5.17698754103195
102.45 29.3109 5.41395419263961
102.5 23.5397 4.85177287184798
102.55 25.7663 5.07605161518281
102.6 31.8276 5.64159551899992
102.65 37.7608 6.1449816924056
102.7 39.6718 6.29855538992871
102.75 40.2717 6.34599873936325
102.8 31.5115 5.61351048809922
102.85 36.7443 6.06170768018386
102.9 34.2862 5.85544191329741
102.95 35.4137 5.95094110204428
103 28.8883 5.37478371657874
103.05 30.7449 5.54480838262243
103.1 36.8027 6.06652289206923
103.15 32.9019 5.73601778239921
103.2 19.9479 4.4663071994658
103.25 37.1858 6.09801607082172
103.3 25.1846 5.01842604807523
103.35 20.8664 4.56797548154541
103.4 27.534 5.24728501227063
103.45 28.2945 5.31925746697789
103.5 25.7351 5.07297742947867
103.55 30.2345 5.49859072854127
103.6 26.4943 5.14726140777793
103.65 34.489 5.87273360540047
103.7 29.8285 5.461547399776
103.75 22.7781 4.77264077843703
103.8 27.656 5.25889722280251
103.85 23.4424 4.84173522613536
103.9 33.9911 5.83018867619222
103.95 34.3235 5.85862611880977
104 25.7712 5.07653425084476
104.05 43.7848 6.61700838748146
104.1 37.7337 6.14277624531449
104.15 25.2456 5.0244999751219
104.2 31.056 5.5727910421978
104.25 29.1304 5.39725856338197
104.3 24.2773 4.9272000162364
104.35 38.3779 6.19498991121051
104.4 31.0435 5.57166940871405
104.45 30.7551 5.54572808565296
104.5 37.1483 6.09494052473033
104.55 35.1214 5.92633107411322
104.6 38.9018 6.23713075059358
104.65 28.8443 5.37068896883817
104.7 33.5731 5.79422988843211
104.75 30.2485 5.49986363467314
104.8 23.7627 4.87469999076866
104.85 30.8468 5.55398955706616
104.9 43.8664 6.62317144576524
104.95 31.3932 5.60296350157664
105 27.7055 5.2636014286798
105.05 27.0313 5.1991633942395
105.1 23.9148 4.89027606582696
105.15 41.8305 6.46765026883798
105.2 31.7189 5.63195347992151
105.25 26.3389 5.13214380157065
105.3 20.9436 4.57641781309356
105.35 34.6965 5.89037350258878
105.4 24.9495 4.99494744717099
105.45 35.0513 5.92041383688674
105.5 25.7798 5.07738121476022
105.55 33.0416 5.74818232139517
105.6 42.2067 6.49666837694522
105.65 32.4433 5.69590203567442
105.7 33.1142 5.75449389607809
105.75 46.9249 6.85017518024174
105.8 26.9564 5.19195531567828
105.85 34.8719 5.90524343274687
105.9 33.7185 5.80676329808612
105.95 30.4755 5.5204619371933
106 29.4573 5.42745796851528
106.05 35.9206 5.99337968094797
106.1 31.2302 5.5883986973014
106.15 32.2895 5.68238506262995
106.2 29.5266 5.43383842233094
106.25 14.002 3.74192463847149
106.3 30.5119 5.52375777890378
106.35 24.4003 4.93966598061043
106.4 25.8255 5.08187957354363
106.45 30.4985 5.52254470330481
106.5 33.264 5.767495123535
106.55 33.6951 5.80474805654819
106.6 28.2962 5.31941726131726
106.65 25.5274 5.05246474505266
106.7 23.4527 4.84279877756654
106.75 26.1011 5.10892356568387
106.8 25.6611 5.06567863173336
106.85 22.6395 4.75809835963907
106.9 25.7255 5.0720311513239
106.95 27.5376 5.24762803559856
107 25.9753 5.09659690381729
107.05 39.7878 6.30775712912284
107.1 44.0869 6.63979668363422
107.15 39.4599 6.28171155020668
107.2 39.0217 6.24673514725893
107.25 25.9192 5.09109025651677
107.3 32.2557 5.67941018064376
107.35 25.0995 5.00994011940263
107.4 32.0149 5.65817108260257
107.45 30.1642 5.49219446123314
107.5 33.3585 5.77568177793756
107.55 35.8757 5.9896327099414
107.6 30.105 5.48680234745156
107.65 26.407 5.13877417289376
107.7 24.6587 4.96575271232872
107.75 33.3441 5.77443503730019
107.8 28.0042 5.29189946994461
107.85 34.4892 5.8727506332212
107.9 29.4093 5.42303420605107
107.95 24.2592 4.92536293078997
108 27.9802 5.28963136711813
108.05 24.4377 4.94345021214941
108.1 28.9405 5.37963753425823
108.15 33.6413 5.80011206788283
108.2 36.0413 6.00344068014335
108.25 40.8219 6.38920182808463
108.3 35.3841 5.94845358055352
108.35 27.9675 5.28843076914126
108.4 27.2818 5.22319825394365
108.45 22.3833 4.7310992380207
108.5 27.6122 5.25473120149832
108.55 29.5164 5.43289977820316
108.6 34.9221 5.90949236398525
108.65 33.3846 5.77794080966567
108.7 34.1182 5.84107866750654
108.75 27.203 5.2156495281029
108.8 31.1554 5.58170224931427
108.85 32.478 5.6989472712072
108.9 28.7743 5.36416815545523
108.95 29.3606 5.41854223938505
109 41.8866 6.47198578490404
109.05 30.5138 5.52392976059616
109.1 37.1028 6.09120677698599
109.15 37.747 6.14385872233404
109.2 42.238 6.49907685752369
109.25 24.0484 4.90391680190437
109.3 22.8403 4.77915264455949
109.35 28.9878 5.38403194641339
109.4 27.2903 5.22401186828667
109.45 30.2227 5.49751762161796
109.5 34.3493 5.86082758661266
109.55 35.1609 5.92966272228025
109.6 25.0197 5.00196961206283
109.65 25.025 5.00249937531231
109.7 32.0885 5.66467121729055
109.75 29.9072 5.46874757142803
109.8 28.1489 5.30555369400782
109.85 34.3687 5.86248240935527
109.9 31.5298 5.61514024758064
109.95 28.3528 5.32473473517696
110 21.9496 4.68504002117378
110.05 26.5652 5.15414396384113
110.1 26.997 5.19586373955284
110.15 28.8901 5.37495116256883
110.2 27.0221 5.1982785612162
110.25 28.7549 5.36235955527042
110.3 31.9205 5.64982300607727
110.35 31.5057 5.61299385355088
110.4 32.9858 5.74332656219373
110.45 40.6571 6.37629202593482
110.5 16.9112 4.11232294451688
110.55 17.6086 4.19626023978494
110.6 31.012 5.56884189037541
110.65 23.9508 4.89395545545727
110.7 27.3947 5.23399465036028
110.75 38.3844 6.19551450647967
110.8 30.6847 5.53937722131288
110.85 44.4236 6.6651031499895
110.9 31.5497 5.61691196299176
110.95 25.2899 5.02890644176246
111 27.8982 5.28187466719914
111.05 24.2957 4.92906684880617
111.1 29.1419 5.39832381392595
111.15 33.0621 5.7499652172861
111.2 34.7069 5.89125623275715
111.25 28.3535 5.32480046574517
111.3 26.1051 5.10931502258375
111.35 26.3866 5.13678888022469
111.4 21.9459 4.6846451306369
111.45 32.5023 5.70107884527131
111.5 31.3567 5.59970534939116
111.55 26.5486 5.15253335748542
111.6 31.566 5.61836275083765
111.65 26.1993 5.11852517821296
111.7 28.6155 5.34934575438904
111.75 22.5424 4.74788373909893
111.8 27.5247 5.24639876486719
111.85 28.5048 5.33898866827792
111.9 28.3805 5.32733516873117
111.95 29.9642 5.47395652156646
112 35.2987 5.94127090781089
112.05 36.8859 6.07337632622909
112.1 34.7845 5.8978385871436
112.15 33.6029 5.79680084184371
112.2 38.4309 6.19926608559433
112.25 32.8574 5.73213747218261
112.3 32.8111 5.72809741537275
112.35 48.3896 6.95626336476704
112.4 40.6691 6.37723294227206
112.45 33.609 5.79732697025103
112.5 31.9602 5.6533352987418
112.55 34.3968 5.86487851536585
112.6 20.1744 4.4915921453311
112.65 20.4042 4.51710084014072
112.7 28.0759 5.29866964435414
112.75 38.4529 6.20104023531536
112.8 26.6076 5.15825551906844
112.85 27.8783 5.27999053029454
112.9 33.1338 5.75619666099066
112.95 40.3802 6.35454168292254
113 37.3321 6.11
113.05 31.9976 5.6566421134804
113.1 39.7767 6.30687719874107
113.15 31.0499 5.57224371326309
113.2 34.8127 5.90022880912258
113.25 31.8473 5.64334120889389
113.3 27.5599 5.24975237511256
113.35 26.3902 5.13713928174037
113.4 31.7006 5.63032858721407
113.45 28.233 5.31347344022721
113.5 26.2638 5.12482194812659
113.55 26.2279 5.12131818968515
113.6 26.0654 5.10542848348696
113.65 35.0907 5.92374037243362
113.7 31.5981 5.62121872906579
113.75 24.3741 4.93701326714847
113.8 21.8448 4.67384210259611
113.85 36.827 6.06852535629538
113.9 31.6454 5.62542442843205
113.95 26.8158 5.17839743550068
114 28.4466 5.33353541283828
114.05 19.0416 4.36366818170218
114.1 25.5556 5.05525469190228
114.15 42.6804 6.53302380219145
114.2 35.7364 5.97799297423475
114.25 29.5409 5.43515409165186
114.3 30.8724 5.55629372873681
114.35 24.2692 4.92637797981438
114.4 20.3495 4.51104200822825
114.45 27.7558 5.26837735930144
114.5 21.547 4.64187462131411
114.55 25.6268 5.06229197103446
114.6 29.8898 5.46715648212121
114.65 36.9188 6.07608426538013
114.7 32.2065 5.67507709198739
114.75 25.1055 5.01053889317307
114.8 25.1967 5.01963146057557
114.85 23.3349 4.83062107808095
114.9 21.1665 4.60070646748953
114.95 22.1173 4.70290335856479
115 21.1587 4.59985869348179
115.05 31.3595 5.59995535696491
115.1 32.9083 5.73657563359885
115.15 43.185 6.57152950233049
115.2 39.5827 6.29147836362806
115.25 34.7095 5.89147689463347
115.3 36.6795 6.05636029311335
115.35 39.06 6.2497999967999
115.4 43.0109 6.55826958884735
115.45 47.6846 6.90540368117607
115.5 40.9262 6.39735883001728
115.55 58.2577 7.63267318833972
115.6 46.6476 6.82990483096214
115.65 55.2549 7.43336397602055
115.7 46.8555 6.84510774203007
115.75 83.5025 9.13797023413843
115.8 69.1675 8.3167000667332
115.85 79.8973 8.93852896174756
115.9 117.0343 10.8182392282663
115.95 98.9558 9.94765298952471
116 93.3222 9.66034160886663
116.05 80.1506 8.95268674756355
116.1 69.2789 8.32339474012857
116.15 57.7746 7.60096046562538
116.2 61.3332 7.83155157041055
116.25 52.17 7.22288031189774
116.3 39.5521 6.28904603258714
116.35 43.5833 6.60176491553584
116.4 51.7001 7.19027815873628
116.45 38.4125 6.19778186127908
116.5 37.6797 6.13837926492002
116.55 41.845 6.46877113523117
116.6 38.4967 6.20457089571874
116.65 37.4766 6.12181345681163
116.7 31.8607 5.64452832396118
116.75 30.1766 5.49332322005542
116.8 38.3202 6.19033117046253
116.85 35.3546 5.94597342745492
116.9 26.737 5.17078330623127
116.95 29.8916 5.46732109903927
117 36.6633 6.05502270846278
117.05 32.4656 5.6978592471208
117.1 37.7589 6.14482709276673
117.15 24.6912 4.96902404904625
117.2 36.5561 6.0461640731955
117.25 20.3428 4.51029932487856
117.3 23.1461 4.81103938873919
117.35 32.1131 5.66684215414546
117.4 35.4458 5.95363754355268
117.45 29.3174 5.41455445997175
117.5 30.3843 5.51219556982515
117.55 30.2272 5.49792688201653
117.6 35.3542 5.94593979115161
117.65 35.5531 5.96264203185132
117.7 41.0809 6.40943835292922
117.75 42.755 6.53873076368801
117.8 29.3441 5.41701947568956
117.85 38.5852 6.21169864046864
117.9 20.6336 4.54242226130509
117.95 30.421 5.51552354722559
118 32.4956 5.70049120690489
118.05 33.74 5.80861429258304
118.1 29.1724 5.40114802611445
118.15 36.9519 6.07880744883402
118.2 29.6947 5.44928435668391
118.25 31.0555 5.5727461811929
118.3 30.4294 5.51628498176082
118.35 38.8995 6.23694636821578
118.4 28.5691 5.34500701589811
118.45 32.8025 5.72734668061922
118.5 39.3235 6.27084523808394
118.55 35.5679 5.96388296330503
118.6 27.9307 5.28495033089243
118.65 24.1449 4.91374602518282
118.7 30.9474 5.56303873795608
118.75 38.6681 6.21836795308866
118.8 30.2867 5.50333535231136
118.85 38.946 6.24067304062631
118.9 20.4565 4.522886246635
118.95 29.5749 5.43828097839749
119 32.8319 5.72991273930066
119.05 37.3466 6.11118646418189
119.1 36.2494 6.02074746190205
119.15 43.3378 6.58314514498959
119.2 22.3792 4.73066591506946
119.25 24.7709 4.97703727130911
119.3 27.5376 5.24762803559856
119.35 29.1003 5.39446939003272
119.4 30.7528 5.54552071495545
119.45 25.6708 5.06663596481926
119.5 35.7158 5.97626973956163
119.55 33.939 5.82571883976561
119.6 31.7379 5.6336400310989
119.65 37.7749 6.14612886295105
119.7 47.9296 6.92312068362238
119.75 31.2186 5.58736073651952
119.8 27.6738 5.26058932059898
119.85 22.3256 4.72499735449661
119.9 32.2615 5.67992077409536
119.95 36.1627 6.01354304881906
120 26.5202 5.14977669418782
120.05 37.7664 6.14543733187476
120.1 33.832 5.81652817409148
120.15 31.3621 5.60018749686115
120.2 31.4771 5.61044561510046
120.25 32.265 5.68022886862845
120.3 25.9127 5.0904518463492
120.35 38.3594 6.19349658916512
120.4 29.5656 5.43742586156354
120.45 38.5007 6.20489323034651
120.5 36.2558 6.02127893391429
120.55 25.5981 5.05945649254937
120.6 45.4585 6.7422918951941
120.65 41.6108 6.45064337876463
120.7 33.6929 5.804558553413
120.75 41.2197 6.42025700420162
120.8 24.986 4.9985998039451
120.85 36.937 6.07758175592892
120.9 35.3281 5.94374461093341
120.95 22.139 4.705209878422
121 27.8123 5.27373681557963
121.05 27.956 5.287343378295
121.1 28.4522 5.33406036711247
121.15 27.6161 5.25510228254408
121.2 39.9574 6.32118659746728
121.25 30.0823 5.48473335723807
121.3 28.0492 5.29614954471643
121.35 24.3049 4.93
121.4 35.9292 5.99409709631067
121.45 35.9316 5.99429728992482
121.5 39.0734 6.25087193917777
121.55 39.5913 6.29216179067258
121.6 33.7962 5.81344992237828
121.65 29.6988 5.44966053988686
121.7 27.1654 5.2120437450198
121.75 21.1501 4.59892378714847
121.8 33.0311 5.74726891662466
121.85 42.051 6.48467424008331
121.9 35.706 5.9754497738664
121.95 32.8276 5.7295375031498
122 34.0871 5.83841588104171
122.05 34.9139 5.90879852423485
122.1 23.2411 4.82090240515196
122.15 28.418 5.3308535901861
122.2 24.1054 4.9097250432178
122.25 35.6989 5.97485564679181
122.3 38.3119 6.18966073383671
122.35 29.418 5.42383628071497
122.4 26.9669 5.19296639696426
122.45 30.872 5.55625773340294
122.5 31.3278 5.59712426161864
122.55 30.1797 5.49360537352293
122.6 26.9402 5.19039497533666
122.65 27.5787 5.25154263050392
122.7 32.2302 5.67716478534841
122.75 23.4184 4.83925614118534
122.8 29.5328 5.43440889149869
122.85 28.7606 5.36289101138556
122.9 26.6596 5.16329352254934
122.95 26.2703 5.12545607726766
123 26.7723 5.17419558965449
123.05 24.019 4.90091828130198
123.1 28.5986 5.3477658886679
123.15 44.717 6.68707708943152
123.2 23.0709 4.80321767151979
123.25 31.6117 5.62242830101016
123.3 31.3597 5.59997321422165
123.35 34.5269 5.87595949611636
123.4 37.0393 6.08599211304123
123.45 27.7133 5.26434231409775
123.5 35.0967 5.92424678756718
123.55 33.1208 5.75506733236024
123.6 21.9962 4.69001066096869
123.65 39.1145 6.25415861647272
123.7 32.2903 5.68245545517077
123.75 27.435 5.23784306752312
123.8 33.3293 5.77315338441653
123.85 32.6736 5.71608257463099
123.9 24.2359 4.9229970546406
123.95 39.5701 6.29047692945455
124 28.8487 5.37109858408873
124.05 23.7369 4.87205295537723
124.1 33.597 5.79629191811455
124.15 37.4252 6.11761391393736
124.2 27.6666 5.25990494210684
124.25 18.6277 4.31598192767301
124.3 30.4747 5.52038947901323
124.35 27.2415 5.21933903861399
124.4 33.1119 5.75429404879521
124.45 35.1595 5.92954467054596
124.5 24.422 4.94186199726378
124.55 37.5639 6.12893954938373
124.6 24.8107 4.98103402919514
124.65 27.9634 5.28804311631439
124.7 35.6968 5.97467990774401
124.75 30.4576 5.5188404579223
124.8 29.1789 5.40174971652704
124.85 21.858 4.67525400379487
124.9 29.717 5.4513301129174
124.95 41.4658 6.43939438146166
125 21.7917 4.66815809500921
125.05 32.9796 5.74278677995274
125.1 29.0334 5.38826502688945
125.15 32.8368 5.73034030403082
125.2 22.8684 4.78209159259837
125.25 33.1356 5.75635301210758
125.3 35.4495 5.95394826984582
125.35 31.0479 5.57206424945011
125.4 33.5321 5.79069080507671
125.45 22.6934 4.76375901993373
125.5 31.7122 5.63135862825304
125.55 23.0365 4.79963540281968
125.6 20.9469 4.5767783428958
125.65 36.9539 6.07897195255908
125.7 28.5874 5.34671861986396
125.75 29.35 5.41756402823261
125.8 17.4247 4.17429035885143
125.85 37.345 6.11105555530303
125.9 29.0468 5.38950832636893
125.95 26.4054 5.13861849138462
126 24.5171 4.95147452785531
126.05 38.8405 6.23221469463304
126.1 32.2268 5.67686533220579
126.15 24.4341 4.9430860805776
126.2 29.1666 5.40061107653569
126.25 29.9116 5.4691498425258
126.3 40.3538 6.35246408883986
126.35 27.3436 5.22911082307499
126.4 31.0107 5.5687251682948
126.45 27.8205 5.27451419563925
126.5 36.9712 6.08039472402903
126.55 28.5025 5.33877326733399
126.6 39.3009 6.26904298916509
126.65 28.6861 5.35594062700475
126.7 30.6989 5.54065880559343
126.75 35.4683 5.95552684487275
126.8 39.4043 6.27728444472608
126.85 36.2493 6.02073915727961
126.9 31.0075 5.56843784198046
126.95 24.4893 4.94866648704477
127 24.1293 4.91215838506862
127.05 33.4084 5.78
127.1 34.6553 5.88687523224333
127.15 25.1475 5.01472830769524
127.2 37.9184 6.15779181200534
127.25 27.2572 5.22084284383279
127.3 32.4697 5.69821902000967
127.35 35.6902 5.97412755136681
127.4 36.0336 6.00279934697138
127.45 31.7124 5.63137638592911
127.5 29.5802 5.43876824290206
127.55 33.8659 5.81944155396375
127.6 29.9838 5.4757465244476
127.65 32.9939 5.74403168514938
127.7 37.9084 6.15697977908
127.75 33.232 5.76472028809725
127.8 18.8438 4.34094459766535
127.85 32.84 5.73061951275776
127.9 27.237 5.21890793174204
127.95 17.7755 4.21610009368848
128 28.0709 5.29819780680186
128.05 33.9445 5.82619086539396
128.1 26.0723 5.10610419008465
128.15 40.8166 6.38878705232848
128.2 28.4591 5.3347071147346
128.25 31.4129 5.60472122411097
128.3 22.1663 4.70811002420292
128.35 25.622 5.0618178552769
128.4 24.1916 4.91849570498948
128.45 19.442 4.40930833578238
128.5 19.6385 4.43153472286972
128.55 29.5415 5.43520928759878
128.6 35.0256 5.91824298250756
128.65 22.0903 4.70003191478526
128.7 39.9171 6.31799810066448
128.75 28.0067 5.29213567475362
128.8 21.1703 4.60111942900855
128.85 29.7977 5.45872695781718
128.9 27.238 5.21900373634662
128.95 28.6927 5.35655672984054
129 27.2265 5.21790187719164
129.05 35.4478 5.95380550572489
129.1 23.4443 4.84193143280654
129.15 29.7706 5.45624412943556
129.2 25.8955 5.08876212845521
129.25 19.1164 4.37223055201804
129.3 32.4575 5.69714840951155
129.35 37.2054 6.09962293916599
129.4 33.6104 5.79744771429635
129.45 37.592 6.13123152392731
129.5 30.762 5.54635015122558
129.55 32.3712 5.68956940374226
129.6 31.0983 5.57658497648875
129.65 24.8573 4.98570957838501
129.7 28.198 5.31017890470745
129.75 23.7961 4.87812463965405
129.8 31.7763 5.63704709932426
129.85 28.3035 5.32010338245414
129.9 31.9681 5.65403395815766
129.95 25.2821 5.02813086544095
130 35.396 5.94945375643849
130 35.396 5.94945375643849
