
#Surface 0 of 1 surfaces

#IsoCurve 0, 1801 points
#x y z type
 40  50.7235  37.4172 i
 40.05  35.7195  37.3937 i
 40.1  36.6107  37.3702 i
 40.15  42.9065  37.3468 i
 40.2  51.4472  37.3233 i
 40.25  39.2176  37.2998 i
 40.3  29.9567  37.2763 i
 40.35  40.7031  37.2528 i
 40.4  46.8372  37.2293 i
 40.45  38.9941  37.2058 i
 40.5  41.7132  37.1823 i
 40.55  51.1196  37.1587 i
 40.6  48.5026  37.1352 i
 40.65  29.3652  37.1117 i
 40.7  50.7736  37.0882 i
 40.75  31.2875  37.0647 i
 40.8  38.2531  37.0411 i
 40.85  41.3348  37.0176 i
 40.9  36.5867  36.9941 i
 40.95  41.2502  36.9706 i
 41  35.8815  36.9471 i
 41.05  28.4532  36.9235 i
 41.1  48.5037  36.9 i
 41.15  40.5417  36.8765 i
 41.2  38.3916  36.8529 i
 41.25  40.8609  36.8294 i
 41.3  47.1289  36.8059 i
 41.35  40.3064  36.7824 i
 41.4  36.404  36.7589 i
 41.45  37.3068  36.7353 i
 41.5  48.1195  36.7118 i
 41.55  53.3234  36.6883 i
 41.6  40.6202  36.6648 i
 41.65  42.7608  36.6413 i
 41.7  38.8621  36.6177 i
 41.75  38.11  36.5942 i
 41.8  32.7515  36.5707 i
 41.85  41.5264  36.5472 i
 41.9  42.4114  36.5237 i
 41.95  41.7303  36.5002 i
 42  28.4715  36.4767 i
 42.05  29.3696  36.4532 i
 42.1  51.7648  36.4298 i
 42.15  35.2806  36.4063 i
 42.2  41.5152  36.3828 i
 42.25  46.9456  36.3593 i
 42.3  38.5119  36.3358 i
 42.35  30.5712  36.3124 i
 42.4  40.2478  36.2889 i
 42.45  37.3807  36.2655 i
 42.5  54.675  36.242 i
 42.55  30.4323  36.2186 i
 42.6  40.2051  36.1951 i
 42.65  47.872  36.1717 i
 42.7  34.4596  36.1483 i
 42.75  52.9674  36.1248 i
 42.8  26.536  36.1014 i
 42.85  41.3628  36.078 i
 42.9  45.8549  36.0546 i
 42.95  35.584  36.0312 i
 43  28.517  36.0078 i
 43.05  36.2768  35.9845 i
 43.1  43.4313  35.9611 i
 43.15  42.702  35.9377 i
 43.2  34.1289  35.9144 i
 43.25  21.9082  35.891 i
 43.3  38.4487  35.8677 i
 43.35  37.2306  35.8443 i
 43.4  35.6685  35.821 i
 43.45  32.0462  35.7977 i
 43.5  35.8189  35.7744 i
 43.55  42.7836  35.7511 i
 43.6  38.7263  35.7278 i
 43.65  37.1543  35.7046 i
 43.7  40.2948  35.6813 i
 43.75  31.0009  35.658 i
 43.8  50.2734  35.6348 i
 43.85  47.7775  35.6116 i
 43.9  47.6713  35.5883 i
 43.95  54.5193  35.5651 i
 44  47.8606  35.5419 i
 44.05  57.8365  35.5187 i
 44.1  66.59  35.4956 i
 44.15  80.0948  35.4724 i
 44.2  153.713  35.4492 i
 44.25  397.243  35.4261 i
 44.3  1177.89  35.403 i
 44.35  2144.98  35.3799 i
 44.4  2153.2  35.3568 i
 44.45  1483.26  35.3337 i
 44.5  455.712  35.3106 i
 44.55  180.586  35.2875 i
 44.6  97.3006  35.2645 i
 44.65  53.6389  35.2414 i
 44.7  51.9447  35.2184 i
 44.75  44.9185  35.1954 i
 44.8  58.0337  35.1724 i
 44.85  53.9055  35.1494 i
 44.9  35.7089  35.1265 i
 44.95  43.3616  35.1035 i
 45  43.8763  35.0806 i
 45.05  42.0378  35.0577 i
 45.1  35.425  35.0348 i
 45.15  33.6855  35.0119 i
 45.2  36.1929  34.989 i
 45.25  37.3962  34.9662 i
 45.3  34.3311  34.9433 i
 45.35  40.4343  34.9205 i
 45.4  36.5236  34.8977 i
 45.45  33.6632  34.8749 i
 45.5  39.8882  34.8521 i
 45.55  31.8967  34.8294 i
 45.6  36.7583  34.8067 i
 45.65  32.7971  34.7839 i
 45.7  41.1595  34.7612 i
 45.75  30.8159  34.7386 i
 45.8  39.7391  34.7159 i
 45.85  22.4957  34.6933 i
 45.9  35.1374  34.6706 i
 45.95  29.2703  34.648 i
 46  36.7122  34.6254 i
 46.05  31.2945  34.6029 i
 46.1  38.3935  34.5803 i
 46.15  41.0473  34.5578 i
 46.2  34.6532  34.5353 i
 46.25  46.5974  34.5128 i
 46.3  40.6423  34.4903 i
 46.35  40.0324  34.4679 i
 46.4  33.6587  34.4454 i
 46.45  26.9195  34.423 i
 46.5  31.6513  34.4006 i
 46.55  32.3161  34.3783 i
 46.6  42.3375  34.3559 i
 46.65  31.5939  34.3336 i
 46.7  24.8587  34.3113 i
 46.75  46.235  34.289 i
 46.8  36.8945  34.2668 i
 46.85  43.9272  34.2446 i
 46.9  42.9045  34.2223 i
 46.95  44.6086  34.2002 i
 47  32.1098  34.178 i
 47.05  38.972  34.1558 i
 47.1  30.5589  34.1337 i
 47.15  31.2657  34.1116 i
 47.2  38.6354  34.0896 i
 47.25  35.4585  34.0675 i
 47.3  26.8478  34.0455 i
 47.35  26.4418  34.0235 i
 47.4  30.8504  34.0015 i
 47.45  46.5424  33.9796 i
 47.5  41.1079  33.9577 i
 47.55  44.8682  33.9358 i
 47.6  40.4389  33.9139 i
 47.65  30.973  33.892 i
 47.7  40.4736  33.8702 i
 47.75  33.7535  33.8484 i
 47.8  32.5171  33.8267 i
 47.85  45.585  33.8049 i
 47.9  27.6175  33.7832 i
 47.95  29.1723  33.7615 i
 48  24.8622  33.7399 i
 48.05  51.1698  33.7182 i
 48.1  38.5575  33.6966 i
 48.15  35.1808  33.675 i
 48.2  31.4937  33.6535 i
 48.25  37.6298  33.632 i
 48.3  29.1737  33.6105 i
 48.35  27.5326  33.589 i
 48.4  30.4545  33.5676 i
 48.45  32.8442  33.5462 i
 48.5  37.6318  33.5248 i
 48.55  39.6253  33.5034 i
 48.6  32.6178  33.4821 i
 48.65  41.4623  33.4608 i
 48.7  31.1592  33.4396 i
 48.75  30.2723  33.4183 i
 48.8  31.4736  33.3971 i
 48.85  34.6223  33.3759 i
 48.9  45.3742  33.3548 i
 48.95  30.6036  33.3337 i
 49  47.7892  33.3126 i
 49.05  30.1691  33.2916 i
 49.1  41.3882  33.2706 i
 49.15  30.9548  33.2496 i
 49.2  27.0189  33.2286 i
 49.25  27.2574  33.2077 i
 49.3  29.9994  33.1868 i
 49.35  30.3127  33.1659 i
 49.4  43.6651  33.1451 i
 49.45  33.476  33.1243 i
 49.5  37.92  33.1036 i
 49.55  32.4155  33.0829 i
 49.6  24.8726  33.0622 i
 49.65  29.4255  33.0415 i
 49.7  33.29  33.0209 i
 49.75  36.4682  33.0003 i
 49.8  39.1728  32.9797 i
 49.85  23.5228  32.9592 i
 49.9  19.2086  32.9387 i
 49.95  40.8822  32.9183 i
 50  30.3188  32.8978 i
 50.05  40.9449  32.8775 i
 50.1  23.3757  32.8571 i
 50.15  31.3989  32.8368 i
 50.2  39.2526  32.8165 i
 50.25  26.248  32.7963 i
 50.3  50.4649  32.7761 i
 50.35  31.5996  32.7559 i
 50.4  44.8345  32.7358 i
 50.45  39.8039  32.7157 i
 50.5  28.7671  32.6956 i
 50.55  43.0851  32.6756 i
 50.6  31.972  32.6556 i
 50.65  35.1683  32.6357 i
 50.7  34.7507  32.6158 i
 50.75  30.5096  32.5959 i
 50.8  39.7421  32.5761 i
 50.85  35.7845  32.5563 i
 50.9  32.1673  32.5365 i
 50.95  28.9499  32.5168 i
 51  37.2462  32.4971 i
 51.05  33.6658  32.4775 i
 51.1  44.3443  32.4579 i
 51.15  23.7639  32.4383 i
 51.2  32.7894  32.4188 i
 51.25  33.5352  32.3993 i
 51.3  35.9474  32.3799 i
 51.35  32.0828  32.3605 i
 51.4  43.0781  32.3411 i
 51.45  25.6985  32.3218 i
 51.5  32.407  32.3025 i
 51.55  35.7371  32.2833 i
 51.6  39.0023  32.2641 i
 51.65  31.2909  32.2449 i
 51.7  25.9223  32.2258 i
 51.75  47.1821  32.2067 i
 51.8  37.9218  32.1877 i
 51.85  38.2968  32.1687 i
 51.9  28.8898  32.1498 i
 51.95  32.7013  32.1309 i
 52  40.1023  32.112 i
 52.05  36.1397  32.0932 i
 52.1  40.3245  32.0744 i
 52.15  32.8784  32.0557 i
 52.2  34.578  32.037 i
 52.25  42.766  32.0184 i
 52.3  31.097  31.9998 i
 52.35  33.2841  31.9812 i
 52.4  41.7871  31.9627 i
 52.45  24.3598  31.9442 i
 52.5  17.5641  31.9258 i
 52.55  33.4531  31.9074 i
 52.6  30.4814  31.8891 i
 52.65  30.1743  31.8708 i
 52.7  40.2151  31.8526 i
 52.75  31.0334  31.8344 i
 52.8  29.8282  31.8162 i
 52.85  44.2658  31.7981 i
 52.9  41.0196  31.7801 i
 52.95  24.1301  31.7621 i
 53  29.5207  31.7441 i
 53.05  27.4621  31.7262 i
 53.1  36.2064  31.7083 i
 53.15  26.9629  31.6905 i
 53.2  27.5241  31.6727 i
 53.25  30.5396  31.655 i
 53.3  34.4888  31.6373 i
 53.35  29.8324  31.6197 i
 53.4  31.1939  31.6021 i
 53.45  39.0342  31.5846 i
 53.5  32.4382  31.5671 i
 53.55  20.4983  31.5497 i
 53.6  37.5927  31.5323 i
 53.65  38.41  31.5149 i
 53.7  31.9299  31.4976 i
 53.75  30.4187  31.4804 i
 53.8  35.8827  31.4632 i
 53.85  29.2013  31.4461 i
 53.9  31.7742  31.429 i
 53.95  39.5422  31.412 i
 54  25.3528  31.395 i
 54.05  35.4469  31.378 i
 54.1  28.8606  31.3612 i
 54.15  28.2268  31.3443 i
 54.2  33.2323  31.3275 i
 54.25  28.0274  31.3108 i
 54.3  36.9586  31.2941 i
 54.35  33.0161  31.2775 i
 54.4  30.7936  31.2609 i
 54.45  37.1658  31.2444 i
 54.5  38.5995  31.2279 i
 54.55  35.5749  31.2115 i
 54.6  43.3774  31.1952 i
 54.65  41.5415  31.1789 i
 54.7  21.3748  31.1626 i
 54.75  30.3301  31.1464 i
 54.8  35.612  31.1303 i
 54.85  24.2053  31.1142 i
 54.9  34.5942  31.0981 i
 54.95  31.6572  31.0821 i
 55  42.2791  31.0662 i
 55.05  29.0922  31.0503 i
 55.1  36.5517  31.0345 i
 55.15  27.3821  31.0187 i
 55.2  28.6154  31.003 i
 55.25  29.2622  30.9874 i
 55.3  28.0316  30.9718 i
 55.35  24.4768  30.9562 i
 55.4  41.4162  30.9407 i
 55.45  28.7629  30.9253 i
 55.5  28.7527  30.9099 i
 55.55  36.1811  30.8946 i
 55.6  41.8162  30.8794 i
 55.65  39.2394  30.8642 i
 55.7  28.562  30.849 i
 55.75  34.2761  30.8339 i
 55.8  25.6836  30.8189 i
 55.85  35.867  30.8039 i
 55.9  32.7848  30.789 i
 55.95  16.6079  30.7742 i
 56  35.7767  30.7594 i
 56.05  27.8847  30.7446 i
 56.1  23.9967  30.7299 i
 56.15  37.5073  30.7153 i
 56.2  32.057  30.7008 i
 56.25  33.8127  30.6863 i
 56.3  30.1121  30.6718 i
 56.35  37.4665  30.6574 i
 56.4  47.49  30.6431 i
 56.45  31.1174  30.6289 i
 56.5  25.6725  30.6147 i
 56.55  29.5011  30.6005 i
 56.6  32.9871  30.5864 i
 56.65  30.0006  30.5724 i
 56.7  33.4723  30.5585 i
 56.75  33.0475  30.5446 i
 56.8  26.6109  30.5307 i
 56.85  32.492  30.517 i
 56.9  24.1929  30.5033 i
 56.95  29.2602  30.4896 i
 57  36.0186  30.476 i
 57.05  28.4605  30.4625 i
 57.1  41.4072  30.4491 i
 57.15  39.0304  30.4357 i
 57.2  32.5231  30.4223 i
 57.25  40.8966  30.4091 i
 57.3  27.0518  30.3959 i
 57.35  36.1245  30.3827 i
 57.4  32.6263  30.3696 i
 57.45  31.5762  30.3566 i
 57.5  38.9785  30.3437 i
 57.55  32.9864  30.3308 i
 57.6  32.7366  30.318 i
 57.65  34.028  30.3052 i
 57.7  34.0935  30.2925 i
 57.75  38.0879  30.2799 i
 57.8  29.3439  30.2674 i
 57.85  34.1753  30.2549 i
 57.9  25.1099  30.2425 i
 57.95  38.2936  30.2301 i
 58  33.1379  30.2178 i
 58.05  32.292  30.2056 i
 58.1  35.3274  30.1934 i
 58.15  31.1708  30.1813 i
 58.2  29.4875  30.1693 i
 58.25  31.9988  30.1574 i
 58.3  29.541  30.1455 i
 58.35  30.9733  30.1336 i
 58.4  32.742  30.1219 i
 58.45  28.8589  30.1102 i
 58.5  34.2887  30.0986 i
 58.55  37.1103  30.087 i
 58.6  34.5396  30.0756 i
 58.65  38.3738  30.0642 i
 58.7  30.907  30.0528 i
 58.75  34.1753  30.0415 i
 58.8  39.5301  30.0303 i
 58.85  32.8976  30.0192 i
 58.9  20.3952  30.0082 i
 58.95  32.819  29.9972 i
 59  33.6804  29.9862 i
 59.05  26.2686  29.9754 i
 59.1  31.6296  29.9646 i
 59.15  36.3233  29.9539 i
 59.2  40.3435  29.9433 i
 59.25  31.2076  29.9327 i
 59.3  31.1124  29.9222 i
 59.35  35.9336  29.9118 i
 59.4  23.3084  29.9014 i
 59.45  33.0174  29.8912 i
 59.5  25.0874  29.881 i
 59.55  30.5775  29.8708 i
 59.6  39.4499  29.8608 i
 59.65  33.1308  29.8508 i
 59.7  27.7434  29.8409 i
 59.75  32.7967  29.831 i
 59.8  32.5809  29.8212 i
 59.85  27.9034  29.8116 i
 59.9  41.9148  29.8019 i
 59.95  33.4958  29.7924 i
 60  25.8724  29.7829 i
 60.05  40.1532  29.7735 i
 60.1  34.1279  29.7642 i
 60.15  27.5528  29.755 i
 60.2  25.4639  29.7458 i
 60.25  36.7966  29.7367 i
 60.3  19.5533  29.7277 i
 60.35  17.5556  29.7187 i
 60.4  40.3863  29.7099 i
 60.45  30.2177  29.7011 i
 60.5  32.4584  29.6923 i
 60.55  21.5544  29.6837 i
 60.6  31.0363  29.6751 i
 60.65  28.9096  29.6667 i
 60.7  29.2374  29.6582 i
 60.75  33.4665  29.6499 i
 60.8  33.7464  29.6417 i
 60.85  22.5188  29.6335 i
 60.9  36.7225  29.6254 i
 60.95  36.4678  29.6174 i
 61  28.783  29.6094 i
 61.05  26.6979  29.6016 i
 61.1  31.5333  29.5938 i
 61.15  31.8937  29.5862 i
 61.2  33.6607  29.5787 i
 61.25  23.4027  29.5714 i
 61.3  37.7696  29.5642 i
 61.35  32.9482  29.5571 i
 61.4  31.1716  29.5502 i
 61.45  32.699  29.5434 i
 61.5  28.211  29.5368 i
 61.55  34.2505  29.5303 i
 61.6  30.6664  29.524 i
 61.65  34.1475  29.5178 i
 61.7  26.2024  29.5117 i
 61.75  35.2023  29.5057 i
 61.8  35.9451  29.4999 i
 61.85  37.2428  29.4943 i
 61.9  28.2426  29.4887 i
 61.95  27.6337  29.4833 i
 62  38.7783  29.478 i
 62.05  27.5836  29.4729 i
 62.1  26.3596  29.4679 i
 62.15  27.7781  29.463 i
 62.2  21.7069  29.4583 i
 62.25  31.969  29.4536 i
 62.3  36.1543  29.4492 i
 62.35  33.6645  29.4448 i
 62.4  30.1181  29.4406 i
 62.45  35.2111  29.4365 i
 62.5  30.2056  29.4325 i
 62.55  23.5109  29.4286 i
 62.6  28.2633  29.4249 i
 62.65  34.3096  29.4213 i
 62.7  36.1583  29.4178 i
 62.75  32.5645  29.4144 i
 62.8  29.1444  29.4112 i
 62.85  26.8752  29.4081 i
 62.9  38.6065  29.4051 i
 62.95  50.4541  29.4022 i
 63  35.0239  29.3994 i
 63.05  32.1654  29.3968 i
 63.1  27.937  29.3943 i
 63.15  30.6127  29.3919 i
 63.2  26.3697  29.3896 i
 63.25  28.0664  29.3874 i
 63.3  25.7904  29.3853 i
 63.35  30.2116  29.3834 i
 63.4  27.0687  29.3816 i
 63.45  30.194  29.3798 i
 63.5  30.651  29.3782 i
 63.55  22.5178  29.3767 i
 63.6  32.4508  29.3754 i
 63.65  31.156  29.3741 i
 63.7  31.1307  29.3729 i
 63.75  39.1001  29.3719 i
 63.8  38.7128  29.3709 i
 63.85  39.1677  29.3701 i
 63.9  32.2242  29.3694 i
 63.95  33.7547  29.3687 i
 64  34.7141  29.3682 i
 64.05  28.6315  29.3678 i
 64.1  31.7203  29.3675 i
 64.15  26.9011  29.3673 i
 64.2  32.506  29.3672 i
 64.25  39.7914  29.3672 i
 64.3  37.3945  29.3673 i
 64.35  38.7741  29.3675 i
 64.4  53.2173  29.3678 i
 64.45  51.2772  29.3682 i
 64.5  50.1539  29.3687 i
 64.55  79.4052  29.3693 i
 64.6  96.3876  29.37 i
 64.65  127.217  29.3708 i
 64.7  168.728  29.3717 i
 64.75  152.934  29.3727 i
 64.8  101.305  29.3737 i
 64.85  73.3293  29.3749 i
 64.9  55.4854  29.3762 i
 64.95  45.9311  29.3775 i
 65  45.5515  29.379 i
 65.05  29.2714  29.3805 i
 65.1  39.5897  29.3822 i
 65.15  33.6103  29.3839 i
 65.2  38.2783  29.3857 i
 65.25  38.8238  29.3876 i
 65.3  32.7066  29.3896 i
 65.35  26.8738  29.3917 i
 65.4  36.8482  29.3938 i
 65.45  29.8403  29.3961 i
 65.5  30.0638  29.3984 i
 65.55  24.5047  29.4008 i
 65.6  32.6642  29.4033 i
 65.65  32.1126  29.4059 i
 65.7  33.2294  29.4086 i
 65.75  32.8024  29.4114 i
 65.8  28.4533  29.4142 i
 65.85  39.763  29.4171 i
 65.9  31.9762  29.4201 i
 65.95  30.2249  29.4232 i
 66  28.6592  29.4263 i
 66.05  25.0138  29.4295 i
 66.1  34.0748  29.4329 i
 66.15  27.576  29.4362 i
 66.2  29.8576  29.4397 i
 66.25  28.534  29.4432 i
 66.3  29.7049  29.4468 i
 66.35  27.4478  29.4505 i
 66.4  31.8205  29.4543 i
 66.45  36.0481  29.4581 i
 66.5  33.2414  29.462 i
 66.55  22.45  29.466 i
 66.6  31.1052  29.47 i
 66.65  38.3237  29.4741 i
 66.7  24.1134  29.4783 i
 66.75  38.352  29.4825 i
 66.8  35.3151  29.4868 i
 66.85  30.5933  29.4912 i
 66.9  27.564  29.4957 i
 66.95  21.2787  29.5002 i
 67  34.5742  29.5048 i
 67.05  27.8477  29.5094 i
 67.1  22.8795  29.5141 i
 67.15  28.0836  29.5189 i
 67.2  33.4622  29.5237 i
 67.25  35.7285  29.5286 i
 67.3  35.1134  29.5336 i
 67.35  26.3669  29.5386 i
 67.4  27.4633  29.5437 i
 67.45  31.809  29.5488 i
 67.5  23.1234  29.554 i
 67.55  26.4473  29.5592 i
 67.6  34.1666  29.5645 i
 67.65  32.5273  29.5699 i
 67.7  40.5214  29.5753 i
 67.75  29.394  29.5808 i
 67.8  29.173  29.5863 i
 67.85  31.7949  29.5919 i
 67.9  32.0011  29.5975 i
 67.95  34.8868  29.6032 i
 68  26.5753  29.6089 i
 68.05  31.3641  29.6147 i
 68.1  22.8798  29.6206 i
 68.15  50.0788  29.6264 i
 68.2  38.6237  29.6324 i
 68.25  31.0624  29.6384 i
 68.3  28.4785  29.6444 i
 68.35  29.5017  29.6505 i
 68.4  33.4673  29.6566 i
 68.45  30.9656  29.6627 i
 68.5  34.5699  29.669 i
 68.55  29.6573  29.6752 i
 68.6  28.1566  29.6815 i
 68.65  33.0476  29.6878 i
 68.7  41.7836  29.6942 i
 68.75  36.4017  29.7007 i
 68.8  36.0094  29.7071 i
 68.85  25.1443  29.7136 i
 68.9  33.7141  29.7202 i
 68.95  28.7253  29.7268 i
 69  27.4325  29.7334 i
 69.05  24.4929  29.74 i
 69.1  25.0319  29.7467 i
 69.15  26.4814  29.7535 i
 69.2  32.9031  29.7602 i
 69.25  29.5387  29.767 i
 69.3  24.4013  29.7738 i
 69.35  22.8418  29.7807 i
 69.4  32.9282  29.7876 i
 69.45  28.7423  29.7945 i
 69.5  22.0931  29.8015 i
 69.55  24.6217  29.8085 i
 69.6  27.3142  29.8155 i
 69.65  30.5191  29.8226 i
 69.7  37.4517  29.8296 i
 69.75  29.4547  29.8368 i
 69.8  32.1406  29.8439 i
 69.85  28.957  29.851 i
 69.9  31.8697  29.8582 i
 69.95  34.0611  29.8654 i
 70  27.8928  29.8727 i
 70.05  32.5299  29.8799 i
 70.1  26.0272  29.8872 i
 70.15  29.3684  29.8945 i
 70.2  31.6462  29.9018 i
 70.25  30.6805  29.9092 i
 70.3  51.2856  29.9166 i
 70.35  26.2114  29.9239 i
 70.4  28.2729  29.9313 i
 70.45  30.4981  29.9388 i
 70.5  29.2562  29.9462 i
 70.55  26.8003  29.9537 i
 70.6  26.0262  29.9611 i
 70.65  24.2183  29.9686 i
 70.7  36.6395  29.9761 i
 70.75  29.1932  29.9836 i
 70.8  37.0335  29.9912 i
 70.85  25.8095  29.9987 i
 70.9  29.5807  30.0063 i
 70.95  22.7791  30.0138 i
 71  23.282  30.0214 i
 71.05  30.2598  30.029 i
 71.1  49.412  30.0366 i
 71.15  35.538  30.0442 i
 71.2  36.3842  30.0518 i
 71.25  31.0976  30.0594 i
 71.3  26.6844  30.0671 i
 71.35  36.931  30.0747 i
 71.4  30.0349  30.0823 i
 71.45  38.306  30.09 i
 71.5  33.4494  30.0976 i
 71.55  35.6328  30.1053 i
 71.6  37.5048  30.1129 i
 71.65  30.3577  30.1206 i
 71.7  23.2875  30.1282 i
 71.75  37.8476  30.1359 i
 71.8  31.8011  30.1435 i
 71.85  36.5782  30.1512 i
 71.9  36.3322  30.1589 i
 71.95  34.0258  30.1665 i
 72  32.9925  30.1742 i
 72.05  35.3241  30.1818 i
 72.1  32.765  30.1894 i
 72.15  40.1017  30.1971 i
 72.2  33.0599  30.2047 i
 72.25  26.1385  30.2123 i
 72.3  29.46  30.22 i
 72.35  31.0294  30.2276 i
 72.4  23.6847  30.2352 i
 72.45  27.2303  30.2428 i
 72.5  30.7826  30.2503 i
 72.55  33.8573  30.2579 i
 72.6  30.0968  30.2655 i
 72.65  30.5658  30.273 i
 72.7  26.495  30.2806 i
 72.75  24.7451  30.2881 i
 72.8  21.9999  30.2956 i
 72.85  26.8803  30.3031 i
 72.9  37.4351  30.3106 i
 72.95  28.522  30.318 i
 73  33.8021  30.3255 i
 73.05  38.7167  30.3329 i
 73.1  29.251  30.3403 i
 73.15  25.1455  30.3477 i
 73.2  38.2  30.3551 i
 73.25  41.865  30.3625 i
 73.3  18.6606  30.3698 i
 73.35  24.3515  30.3771 i
 73.4  23.507  30.3844 i
 73.45  20.8249  30.3917 i
 73.5  24.5962  30.3989 i
 73.55  30.4508  30.4062 i
 73.6  32.3039  30.4134 i
 73.65  27.4785  30.4205 i
 73.7  30.9359  30.4277 i
 73.75  15.775  30.4348 i
 73.8  36.8152  30.4419 i
 73.85  32.2402  30.449 i
 73.9  29.2433  30.456 i
 73.95  31.9737  30.463 i
 74  33.0427  30.47 i
 74.05  22.2045  30.4769 i
 74.1  26.4934  30.4839 i
 74.15  17.2339  30.4908 i
 74.2  35.934  30.4976 i
 74.25  30.7588  30.5044 i
 74.3  23.2515  30.5112 i
 74.35  30.1596  30.518 i
 74.4  35.5712  30.5247 i
 74.45  30.3572  30.5314 i
 74.5  34.9055  30.538 i
 74.55  23.0298  30.5446 i
 74.6  37.0166  30.5512 i
 74.65  36.87  30.5577 i
 74.7  25.5598  30.5642 i
 74.75  28.5422  30.5706 i
 74.8  27.5686  30.577 i
 74.85  33.2841  30.5834 i
 74.9  26.5428  30.5897 i
 74.95  30.0922  30.596 i
 75  40.9629  30.6022 i
 75.05  25.1007  30.6084 i
 75.1  44.9889  30.6146 i
 75.15  25.8037  30.6207 i
 75.2  33.6339  30.6267 i
 75.25  26.8233  30.6328 i
 75.3  30.8819  30.6387 i
 75.35  31.4646  30.6446 i
 75.4  37.1758  30.6505 i
 75.45  30.6738  30.6563 i
 75.5  34.8474  30.6621 i
 75.55  37.6794  30.6678 i
 75.6  40.8462  30.6734 i
 75.65  32.1471  30.6791 i
 75.7  28.9746  30.6846 i
 75.75  38.3071  30.6901 i
 75.8  35.2267  30.6956 i
 75.85  31.6027  30.701 i
 75.9  23.7148  30.7063 i
 75.95  27.1784  30.7116 i
 76  25.4101  30.7168 i
 76.05  28.8736  30.722 i
 76.1  34.153  30.7271 i
 76.15  23.7066  30.7321 i
 76.2  29.885  30.7371 i
 76.25  29.9605  30.742 i
 76.3  34.6728  30.7469 i
 76.35  38.2133  30.7517 i
 76.4  30.2561  30.7565 i
 76.45  31.8147  30.7611 i
 76.5  24.1679  30.7658 i
 76.55  26.8062  30.7703 i
 76.6  20.2848  30.7748 i
 76.65  27.6787  30.7792 i
 76.7  36.6604  30.7836 i
 76.75  29.8308  30.7879 i
 76.8  41.075  30.7921 i
 76.85  28.4492  30.7962 i
 76.9  27.1107  30.8003 i
 76.95  36.0638  30.8043 i
 77  28.0513  30.8083 i
 77.05  27.4544  30.8121 i
 77.1  33.5477  30.8159 i
 77.15  31.1979  30.8196 i
 77.2  28.9195  30.8233 i
 77.25  29.1684  30.8269 i
 77.3  35.1596  30.8304 i
 77.35  36.2369  30.8338 i
 77.4  34.1521  30.8372 i
 77.45  29.0384  30.8404 i
 77.5  37.8016  30.8436 i
 77.55  29.9808  30.8467 i
 77.6  26.7339  30.8498 i
 77.65  30.6662  30.8527 i
 77.7  32.7165  30.8556 i
 77.75  32.6407  30.8584 i
 77.8  40.0778  30.8611 i
 77.85  35.5954  30.8638 i
 77.9  30.9597  30.8663 i
 77.95  27.838  30.8688 i
 78  28.2089  30.8712 i
 78.05  29.2552  30.8735 i
 78.1  36.8708  30.8757 i
 78.15  38.162  30.8778 i
 78.2  34.5385  30.8799 i
 78.25  38.0983  30.8818 i
 78.3  32.0574  30.8837 i
 78.35  35.9545  30.8855 i
 78.4  33.005  30.8871 i
 78.45  24.2292  30.8887 i
 78.5  22.085  30.8903 i
 78.55  26.3548  30.8917 i
 78.6  29.2479  30.893 i
 78.65  34.7111  30.8942 i
 78.7  41.7506  30.8954 i
 78.75  35.2951  30.8964 i
 78.8  36.1866  30.8973 i
 78.85  23.1955  30.8982 i
 78.9  25.0901  30.8989 i
 78.95  28.4483  30.8996 i
 79  33.3762  30.9002 i
 79.05  17.8447  30.9006 i
 79.1  30.8879  30.901 i
 79.15  23.5672  30.9012 i
 79.2  27.4329  30.9014 i
 79.25  34.0129  30.9015 i
 79.3  29.0821  30.9014 i
 79.35  42.539  30.9013 i
 79.4  30.9751  30.901 i
 79.45  33.3507  30.9007 i
 79.5  32.6984  30.9002 i
 79.55  33.5952  30.8997 i
 79.6  28.7101  30.8991 i
 79.65  23.8903  30.8985 i
 79.7  39.4976  30.8979 i
 79.75  26.3753  30.8972 i
 79.8  28.4604  30.8965 i
 79.85  37.0939  30.8958 i
 79.9  28.1653  30.8951 i
 79.95  34.5919  30.8944 i
 80  31.6499  30.8936 i
 80.05  24.2973  30.8928 i
 80.1  29.2719  30.892 i
 80.15  34.0157  30.8912 i
 80.2  31.3777  30.8903 i
 80.25  31.1594  30.8894 i
 80.3  37.739  30.8885 i
 80.35  35.5585  30.8876 i
 80.4  30.6371  30.8866 i
 80.45  26.2365  30.8856 i
 80.5  29.631  30.8846 i
 80.55  38.5924  30.8836 i
 80.6  27.8314  30.8826 i
 80.65  28.8642  30.8815 i
 80.7  34.8483  30.8804 i
 80.75  35.8851  30.8793 i
 80.8  33.582  30.8782 i
 80.85  23.5122  30.877 i
 80.9  25.881  30.8758 i
 80.95  28.0724  30.8746 i
 81  31.7481  30.8734 i
 81.05  37.3772  30.8722 i
 81.1  49.0677  30.8709 i
 81.15  34.4621  30.8696 i
 81.2  31.4048  30.8683 i
 81.25  29.3896  30.867 i
 81.3  28.938  30.8656 i
 81.35  27.782  30.8642 i
 81.4  36.683  30.8628 i
 81.45  31.7167  30.8614 i
 81.5  33.5589  30.86 i
 81.55  31.3797  30.8585 i
 81.6  49.6569  30.857 i
 81.65  41.7179  30.8555 i
 81.7  42.143  30.854 i
 81.75  50.5658  30.8525 i
 81.8  52.3002  30.8509 i
 81.85  107.372  30.8493 i
 81.9  209.105  30.8477 i
 81.95  285.598  30.8461 i
 82  273.732  30.8444 i
 82.05  210.821  30.8427 i
 82.1  121.679  30.8411 i
 82.15  89.7  30.8393 i
 82.2  50.668  30.8376 i
 82.25  46.6262  30.8359 i
 82.3  38.2966  30.8341 i
 82.35  36.6795  30.8323 i
 82.4  24.8339  30.8305 i
 82.45  37.1166  30.8287 i
 82.5  35.9087  30.8268 i
 82.55  36.2737  30.825 i
 82.6  33.6366  30.8231 i
 82.65  33.7863  30.8212 i
 82.7  40.8523  30.8192 i
 82.75  44.1695  30.8173 i
 82.8  21.8668  30.8153 i
 82.85  30.2626  30.8133 i
 82.9  37.9268  30.8113 i
 82.95  51.4838  30.8093 i
 83  30.2163  30.8073 i
 83.05  28.2011  30.8052 i
 83.1  31.7879  30.8031 i
 83.15  24.7895  30.801 i
 83.2  36.0913  30.7989 i
 83.25  31.4001  30.7968 i
 83.3  30.5208  30.7946 i
 83.35  27.0533  30.7924 i
 83.4  28.9024  30.7903 i
 83.45  39.2231  30.788 i
 83.5  29.5326  30.7858 i
 83.55  26.8656  30.7836 i
 83.6  23.2981  30.7813 i
 83.65  38.9409  30.779 i
 83.7  25.6975  30.7767 i
 83.75  37.4429  30.7744 i
 83.8  23.8781  30.7721 i
 83.85  33.795  30.7697 i
 83.9  20.3023  30.7674 i
 83.95  43.2002  30.765 i
 84  28.7702  30.7626 i
 84.05  30.122  30.7601 i
 84.1  22.1678  30.7577 i
 84.15  36.2407  30.7553 i
 84.2  33.2218  30.7528 i
 84.25  31.2976  30.7503 i
 84.3  31.8118  30.7478 i
 84.35  24.7119  30.7453 i
 84.4  26.5009  30.7427 i
 84.45  24.6589  30.7402 i
 84.5  35.3704  30.7376 i
 84.55  32.8269  30.735 i
 84.6  39.4331  30.7324 i
 84.65  40.7871  30.7298 i
 84.7  30.8404  30.7271 i
 84.75  25.3891  30.7245 i
 84.8  33.4066  30.7218 i
 84.85  36.5388  30.7191 i
 84.9  30.848  30.7164 i
 84.95  31.2444  30.7137 i
 85  25.8117  30.7109 i
 85.05  32.1597  30.7082 i
 85.1  29.0891  30.7054 i
 85.15  32.9724  30.7026 i
 85.2  29.3232  30.6998 i
 85.25  29.3088  30.697 i
 85.3  28.9372  30.6942 i
 85.35  24.2212  30.6914 i
 85.4  35.4989  30.6885 i
 85.45  33.0062  30.6856 i
 85.5  32.5483  30.6827 i
 85.55  31.0007  30.6798 i
 85.6  31.1916  30.6769 i
 85.65  36.2677  30.674 i
 85.7  36.5983  30.671 i
 85.75  30.6455  30.6681 i
 85.8  27.8458  30.6651 i
 85.85  30.7376  30.6621 i
 85.9  21.7883  30.6591 i
 85.95  26.0216  30.656 i
 86  13.6393  30.653 i
 86.05  23.5721  30.65 i
 86.1  31.1026  30.6469 i
 86.15  20.7616  30.6438 i
 86.2  26.26  30.6407 i
 86.25  26.7379  30.6376 i
 86.3  28.7643  30.6345 i
 86.35  23.9792  30.6314 i
 86.4  34.3482  30.6282 i
 86.45  29.9989  30.625 i
 86.5  23.5245  30.6219 i
 86.55  27.7558  30.6187 i
 86.6  35.1386  30.6155 i
 86.65  43.9673  30.6123 i
 86.7  32.4964  30.609 i
 86.75  25.2879  30.6058 i
 86.8  37.8222  30.6025 i
 86.85  35.6664  30.5993 i
 86.9  35.1967  30.596 i
 86.95  23.9923  30.5927 i
 87  35.1153  30.5894 i
 87.05  31.739  30.5861 i
 87.1  23.7632  30.5827 i
 87.15  29.1361  30.5794 i
 87.2  34.8229  30.576 i
 87.25  33.4016  30.5727 i
 87.3  32.208  30.5693 i
 87.35  31.6216  30.5659 i
 87.4  30.5367  30.5625 i
 87.45  26.2025  30.5591 i
 87.5  32.3644  30.5556 i
 87.55  26.7608  30.5522 i
 87.6  30.2502  30.5487 i
 87.65  33.6526  30.5453 i
 87.7  30.2737  30.5418 i
 87.75  29.076  30.5383 i
 87.8  25.0333  30.5348 i
 87.85  29.7984  30.5313 i
 87.9  26.0089  30.5278 i
 87.95  37.164  30.5242 i
 88  30.8662  30.5207 i
 88.05  23.8623  30.5171 i
 88.1  30.1303  30.5136 i
 88.15  34.6148  30.51 i
 88.2  27.3788  30.5064 i
 88.25  28.247  30.5028 i
 88.3  30.4358  30.4992 i
 88.35  22.5035  30.4956 i
 88.4  32.7634  30.4919 i
 88.45  35.9433  30.4883 i
 88.5  26.9405  30.4846 i
 88.55  23.3686  30.481 i
 88.6  35.0825  30.4773 i
 88.65  29.4857  30.4736 i
 88.7  30.2682  30.4699 i
 88.75  31.0666  30.4662 i
 88.8  38.6597  30.4625 i
 88.85  26.2678  30.4588 i
 88.9  21.1244  30.455 i
 88.95  28.7528  30.4513 i
 89  26.2516  30.4475 i
 89.05  37.6477  30.4438 i
 89.1  23.1295  30.44 i
 89.15  24.9438  30.4362 i
 89.2  29.9822  30.4324 i
 89.25  38.2015  30.4286 i
 89.3  31.1502  30.4248 i
 89.35  28.6063  30.421 i
 89.4  33.1507  30.4172 i
 89.45  36.0594  30.4133 i
 89.5  27.6511  30.4095 i
 89.55  31.26  30.4056 i
 89.6  22.9549  30.4018 i
 89.65  31.4735  30.3979 i
 89.7  30.5164  30.394 i
 89.75  25.5787  30.3901 i
 89.8  29.0597  30.3862 i
 89.85  36.6882  30.3823 i
 89.9  29.3532  30.3784 i
 89.95  26.1162  30.3745 i
 90  35.1735  30.3705 i
 90.05  22.4563  30.3666 i
 90.1  26.2172  30.3626 i
 90.15  30.7811  30.3587 i
 90.2  38.8287  30.3547 i
 90.25  39.2114  30.3508 i
 90.3  30.5883  30.3468 i
 90.35  38.4614  30.3428 i
 90.4  40.5433  30.3388 i
 90.45  21.246  30.3348 i
 90.5  31.4595  30.3308 i
 90.55  24.7972  30.3268 i
 90.6  28.3887  30.3228 i
 90.65  28.8861  30.3187 i
 90.7  36.4638  30.3147 i
 90.75  46.9908  30.3106 i
 90.8  34.3532  30.3066 i
 90.85  25.0283  30.3025 i
 90.9  35.1787  30.2985 i
 90.95  37.1634  30.2944 i
 91  42.9853  30.2903 i
 91.05  26.712  30.2862 i
 91.1  29.7971  30.2821 i
 91.15  22.2583  30.278 i
 91.2  28.123  30.2739 i
 91.25  26.5517  30.2698 i
 91.3  41.9766  30.2657 i
 91.35  30.7671  30.2616 i
 91.4  27.7386  30.2575 i
 91.45  37.9098  30.2533 i
 91.5  32.1999  30.2492 i
 91.55  27.6834  30.2451 i
 91.6  38.119  30.2409 i
 91.65  38.788  30.2367 i
 91.7  37.4288  30.2326 i
 91.75  28.2599  30.2284 i
 91.8  39.0986  30.2242 i
 91.85  42.4288  30.2201 i
 91.9  27.1339  30.2159 i
 91.95  36.2528  30.2117 i
 92  28.6638  30.2075 i
 92.05  39.4083  30.2033 i
 92.1  27.4833  30.1991 i
 92.15  25.2016  30.1949 i
 92.2  30.5189  30.1907 i
 92.25  34.9624  30.1865 i
 92.3  28.1221  30.1822 i
 92.35  30.2309  30.178 i
 92.4  34.4945  30.1738 i
 92.45  23.0621  30.1696 i
 92.5  24.2217  30.1653 i
 92.55  43.4128  30.1611 i
 92.6  27.9958  30.1568 i
 92.65  30.1152  30.1526 i
 92.7  37.5132  30.1483 i
 92.75  23.6905  30.1441 i
 92.8  31.3626  30.1398 i
 92.85  20.9743  30.1355 i
 92.9  25.7292  30.1313 i
 92.95  29.4978  30.127 i
 93  31.3367  30.1227 i
 93.05  32.9471  30.1184 i
 93.1  23.5595  30.1141 i
 93.15  18.5867  30.1098 i
 93.2  38.0673  30.1056 i
 93.25  31.0492  30.1013 i
 93.3  30.1949  30.097 i
 93.35  23.0545  30.0927 i
 93.4  30.4946  30.0884 i
 93.45  29.1439  30.0841 i
 93.5  30.0829  30.0797 i
 93.55  26.3981  30.0754 i
 93.6  27.9315  30.0711 i
 93.65  32.7358  30.0668 i
 93.7  29.3398  30.0625 i
 93.75  29.9232  30.0582 i
 93.8  31.9859  30.0538 i
 93.85  32.0562  30.0495 i
 93.9  24.4935  30.0452 i
 93.95  32.8807  30.0409 i
 94  34.7392  30.0365 i
 94.05  31.0536  30.0322 i
 94.1  27.8087  30.0279 i
 94.15  28.6445  30.0235 i
 94.2  26.2543  30.0192 i
 94.25  38.917  30.0148 i
 94.3  46.0857  30.0105 i
 94.35  35.776  30.0062 i
 94.4  21.1506  30.0018 i
 94.45  18.8681  29.9975 i
 94.5  18.0405  29.9931 i
 94.55  32.4272  29.9888 i
 94.6  33.0104  29.9844 i
 94.65  33.991  29.9801 i
 94.7  29.1972  29.9757 i
 94.75  39.2903  29.9714 i
 94.8  36.1336  29.967 i
 94.85  26.1145  29.9627 i
 94.9  28.583  29.9583 i
 94.95  36.6932  29.954 i
 95  35.3227  29.9496 i
 95.05  29.8557  29.9453 i
 95.1  27.9539  29.9409 i
 95.15  36.879  29.9366 i
 95.2  27.738  29.9322 i
 95.25  26.8462  29.9278 i
 95.3  35.7982  29.9235 i
 95.35  29.7332  29.9191 i
 95.4  36.2222  29.9148 i
 95.45  22.222  29.9104 i
 95.5  31.3727  29.9061 i
 95.55  30.2283  29.9017 i
 95.6  32.0902  29.8974 i
 95.65  31.2712  29.893 i
 95.7  32.7812  29.8887 i
 95.75  33.532  29.8843 i
 95.8  35.1155  29.88 i
 95.85  37.7559  29.8756 i
 95.9  30.729  29.8713 i
 95.95  28.5017  29.8669 i
 96  28.2786  29.8626 i
 96.05  34.564  29.8582 i
 96.1  28.8112  29.8539 i
 96.15  30.4513  29.8495 i
 96.2  35.1361  29.8452 i
 96.25  27.6435  29.8409 i
 96.3  27.3717  29.8365 i
 96.35  28.8061  29.8322 i
 96.4  32.1617  29.8279 i
 96.45  30.0242  29.8235 i
 96.5  24.8382  29.8192 i
 96.55  25.8014  29.8149 i
 96.6  36.9684  29.8105 i
 96.65  36.2643  29.8062 i
 96.7  25.9211  29.8019 i
 96.75  29.5454  29.7976 i
 96.8  27.7418  29.7933 i
 96.85  28.8052  29.7889 i
 96.9  30.3554  29.7846 i
 96.95  33.4434  29.7803 i
 97  23.5368  29.776 i
 97.05  40.2206  29.7717 i
 97.1  22.3553  29.7674 i
 97.15  34.7084  29.7631 i
 97.2  36.3534  29.7588 i
 97.25  20.7935  29.7545 i
 97.3  31.4347  29.7502 i
 97.35  35.9721  29.7459 i
 97.4  37.0578  29.7417 i
 97.45  32.1824  29.7374 i
 97.5  34.6408  29.7331 i
 97.55  35.2696  29.7288 i
 97.6  21.8595  29.7246 i
 97.65  20.7849  29.7203 i
 97.7  37.5308  29.716 i
 97.75  34.0909  29.7118 i
 97.8  37.1153  29.7075 i
 97.85  26.463  29.7033 i
 97.9  31.1264  29.699 i
 97.95  33.4568  29.6948 i
 98  31.2148  29.6906 i
 98.05  33.4219  29.6863 i
 98.1  31.7594  29.6821 i
 98.15  39.9921  29.6779 i
 98.2  43.3218  29.6737 i
 98.25  37.2998  29.6694 i
 98.3  44.9926  29.6652 i
 98.35  55.5364  29.661 i
 98.4  67.3578  29.6568 i
 98.45  102.172  29.6526 i
 98.5  151.864  29.6484 i
 98.55  163.693  29.6443 i
 98.6  143.021  29.6401 i
 98.65  105.885  29.6359 i
 98.7  62.0254  29.6317 i
 98.75  65.9613  29.6276 i
 98.8  49.2883  29.6234 i
 98.85  35.997  29.6193 i
 98.9  36.7168  29.6151 i
 98.95  32.5535  29.611 i
 99  28.9492  29.6068 i
 99.05  25.6838  29.6027 i
 99.1  38.101  29.5986 i
 99.15  33.5982  29.5945 i
 99.2  29.3902  29.5903 i
 99.25  39.4224  29.5862 i
 99.3  24.5851  29.5821 i
 99.35  30.9208  29.578 i
 99.4  24.1312  29.574 i
 99.45  32.5639  29.5699 i
 99.5  32.3641  29.5658 i
 99.55  33.3254  29.5617 i
 99.6  45.2906  29.5577 i
 99.65  33.9667  29.5536 i
 99.7  30.7789  29.5496 i
 99.75  27.0558  29.5455 i
 99.8  32.4789  29.5415 i
 99.85  27.0008  29.5375 i
 99.9  34.7147  29.5335 i
 99.95  30.697  29.5294 i
 100  27.9409  29.5254 i
 100.05  30.1727  29.5214 i
 100.1  27.316  29.5175 i
 100.15  34.6487  29.5135 i
 100.2  27.043  29.5095 i
 100.25  26.0058  29.5055 i
 100.3  31.6132  29.5016 i
 100.35  25.7331  29.4976 i
 100.4  24.1562  29.4937 i
 100.45  34.1046  29.4897 i
 100.5  39.8483  29.4858 i
 100.55  32.2886  29.4819 i
 100.6  38.6097  29.478 i
 100.65  30.0681  29.4741 i
 100.7  29.6679  29.4702 i
 100.75  29.9641  29.4663 i
 100.8  29.5118  29.4624 i
 100.85  28.2992  29.4586 i
 100.9  29.1754  29.4547 i
 100.95  30.0813  29.4508 i
 101  42.7995  29.447 i
 101.05  22.4489  29.4432 i
 101.1  26.3992  29.4394 i
 101.15  34.4063  29.4355 i
 101.2  35.3585  29.4317 i
 101.25  23.0929  29.4279 i
 101.3  24.8524  29.4241 i
 101.35  23.5609  29.4204 i
 101.4  24.9259  29.4166 i
 101.45  27.6952  29.4128 i
 101.5  29.9254  29.4091 i
 101.55  19.7347  29.4054 i
 101.6  29.9389  29.4016 i
 101.65  36.1715  29.3979 i
 101.7  27.8193  29.3942 i
 101.75  21.8405  29.3905 i
 101.8  28.4135  29.3868 i
 101.85  22.6499  29.3831 i
 101.9  30.5504  29.3795 i
 101.95  33.5841  29.3758 i
 102  29.7256  29.3722 i
 102.05  28.2514  29.3685 i
 102.1  25.5094  29.3649 i
 102.15  28.6995  29.3613 i
 102.2  37.2157  29.3577 i
 102.25  20.2101  29.3541 i
 102.3  38.73  29.3505 i
 102.35  32.604  29.3469 i
 102.4  26.8012  29.3434 i
 102.45  29.3109  29.3398 i
 102.5  23.5397  29.3363 i
 102.55  25.7663  29.3327 i
 102.6  31.8276  29.3292 i
 102.65  37.7608  29.3257 i
 102.7  39.6718  29.3222 i
 102.75  40.2717  29.3187 i
 102.8  31.5115  29.3153 i
 102.85  36.7443  29.3118 i
 102.9  34.2862  29.3084 i
 102.95  35.4137  29.3049 i
 103  28.8883  29.3015 i
 103.05  30.7449  29.2981 i
 103.1  36.8027  29.2947 i
 103.15  32.9019  29.2913 i
 103.2  19.9479  29.2879 i
 103.25  37.1858  29.2846 i
 103.3  25.1846  29.2812 i
 103.35  20.8664  29.2779 i
 103.4  27.534  29.2745 i
 103.45  28.2945  29.2712 i
 103.5  25.7351  29.2679 i
 103.55  30.2345  29.2646 i
 103.6  26.4943  29.2614 i
 103.65  34.489  29.2581 i
 103.7  29.8285  29.2549 i
 103.75  22.7781  29.2516 i
 103.8  27.656  29.2484 i
 103.85  23.4424  29.2452 i
 103.9  33.9911  29.242 i
 103.95  34.3235  29.2388 i
 104  25.7712  29.2357 i
 104.05  43.7848  29.2325 i
 104.1  37.7337  29.2294 i
 104.15  25.2456  29.2262 i
 104.2  31.056  29.2231 i
 104.25  29.1304  29.22 i
 104.3  24.2773  29.2169 i
 104.35  38.3779  29.2139 i
 104.4  31.0435  29.2108 i
 104.45  30.7551  29.2078 i
 104.5  37.1483  29.2047 i
 104.55  35.1214  29.2017 i
 104.6  38.9018  29.1987 i
 104.65  28.8443  29.1957 i
 104.7  33.5731  29.1928 i
 104.75  30.2485  29.1898 i
 104.8  23.7627  29.1869 i
 104.85  30.8468  29.1839 i
 104.9  43.8664  29.181 i
 104.95  31.3932  29.1781 i
 105  27.7055  29.1752 i
 105.05  27.0313  29.1724 i
 105.1  23.9148  29.1695 i
 105.15  41.8305  29.1667 i
 105.2  31.7189  29.1639 i
 105.25  26.3389  29.1611 i
 105.3  20.9436  29.1583 i
 105.35  34.6965  29.1555 i
 105.4  24.9495  29.1527 i
 105.45  35.0513  29.15 i
 105.5  25.7798  29.1473 i
 105.55  33.0416  29.1446 i
 105.6  42.2067  29.1419 i
 105.65  32.4433  29.1392 i
 105.7  33.1142  29.1365 i
 105.75  46.9249  29.1339 i
 105.8  26.9564  29.1312 i
 105.85  34.8719  29.1286 i
 105.9  33.7185  29.126 i
 105.95  30.4755  29.1234 i
 106  29.4573  29.1209 i
 106.05  35.9206  29.1183 i
 106.1  31.2302  29.1158 i
 106.15  32.2895  29.1133 i
 106.2  29.5266  29.1108 i
 106.25  14.002  29.1083 i
 106.3  30.5119  29.1058 i
 106.35  24.4003  29.1034 i
 106.4  25.8255  29.101 i
 106.45  30.4985  29.0986 i
 106.5  33.264  29.0962 i
 106.55  33.6951  29.0938 i
 106.6  28.2962  29.0914 i
 106.65  25.5274  29.089 i
 106.7  23.4527  29.0867 i
 106.75  26.1011  29.0843 i
 106.8  25.6611  29.082 i
 106.85  22.6395  29.0796 i
 106.9  25.7255  29.0773 i
 106.95  27.5376  29.075 i
 107  25.9753  29.0727 i
 107.05  39.7878  29.0704 i
 107.1  44.0869  29.0682 i
 107.15  39.4599  29.0659 i
 107.2  39.0217  29.0636 i
 107.25  25.9192  29.0614 i
 107.3  32.2557  29.0592 i
 107.35  25.0995  29.0569 i
 107.4  32.0149  29.0547 i
 107.45  30.1642  29.0525 i
 107.5  33.3585  29.0503 i
 107.55  35.8757  29.0481 i
 107.6  30.105  29.046 i
 107.65  26.407  29.0438 i
 107.7  24.6587  29.0417 i
 107.75  33.3441  29.0395 i
 107.8  28.0042  29.0374 i
 107.85  34.4892  29.0353 i
 107.9  29.4093  29.0332 i
 107.95  24.2592  29.031 i
 108  27.9802  29.029 i
 108.05  24.4377  29.0269 i
 108.1  28.9405  29.0248 i
 108.15  33.6413  29.0227 i
 108.2  36.0413  29.0207 i
 108.25  40.8219  29.0186 i
 108.3  35.3841  29.0166 i
 108.35  27.9675  29.0146 i
 108.4  27.2818  29.0126 i
 108.45  22.3833  29.0106 i
 108.5  27.6122  29.0086 i
 108.55  29.5164  29.0066 i
 108.6  34.9221  29.0046 i
 108.65  33.3846  29.0026 i
 108.7  34.1182  29.0007 i
 108.75  27.203  28.9987 i
 108.8  31.1554  28.9968 i
 108.85  32.478  28.9949 i
 108.9  28.7743  28.993 i
 108.95  29.3606  28.991 i
 109  41.8866  28.9891 i
 109.05  30.5138  28.9873 i
 109.1  37.1028  28.9854 i
 109.15  37.747  28.9835 i
 109.2  42.238  28.9816 i
 109.25  24.0484  28.9798 i
 109.3  22.8403  28.9779 i
 109.35  28.9878  28.9761 i
 109.4  27.2903  28.9743 i
 109.45  30.2227  28.9725 i
 109.5  34.3493  28.9706 i
 109.55  35.1609  28.9688 i
 109.6  25.0197  28.9671 i
 109.65  25.025  28.9653 i
 109.7  32.0885  28.9635 i
 109.75  29.9072  28.9617 i
 109.8  28.1489  28.96 i
 109.85  34.3687  28.9582 i
 109.9  31.5298  28.9565 i
 109.95  28.3528  28.9548 i
 110  21.9496  28.953 i
 110.05  26.5652  28.9513 i
 110.1  26.997  28.9496 i
 110.15  28.8901  28.9479 i
 110.2  27.0221  28.9463 i
 110.25  28.7549  28.9446 i
 110.3  31.9205  28.9429 i
 110.35  31.5057  28.9413 i
 110.4  32.9858  28.9396 i
 110.45  40.6571  28.938 i
 110.5  16.9112  28.9363 i
 110.55  17.6086  28.9347 i
 110.6  31.012  28.9331 i
 110.65  23.9508  28.9315 i
 110.7  27.3947  28.9299 i
 110.75  38.3844  28.9283 i
 110.8  30.6847  28.9267 i
 110.85  44.4236  28.9251 i
 110.9  31.5497  28.9236 i
 110.95  25.2899  28.922 i
 111  27.8982  28.9204 i
 111.05  24.2957  28.9189 i
 111.1  29.1419  28.9174 i
 111.15  33.0621  28.9158 i
 111.2  34.7069  28.9143 i
 111.25  28.3535  28.9128 i
 111.3  26.1051  28.9113 i
 111.35  26.3866  28.9098 i
 111.4  21.9459  28.9083 i
 111.45  32.5023  28.9068 i
 111.5  31.3567  28.9054 i
 111.55  26.5486  28.9039 i
 111.6  31.566  28.9025 i
 111.65  26.1993  28.901 i
 111.7  28.6155  28.8996 i
 111.75  22.5424  28.8981 i
 111.8  27.5247  28.8967 i
 111.85  28.5048  28.8953 i
 111.9  28.3805  28.8939 i
 111.95  29.9642  28.8925 i
 112  35.2987  28.8911 i
 112.05  36.8859  28.8897 i
 112.1  34.7845  28.8883 i
 112.15  33.6029  28.887 i
 112.2  38.4309  28.8856 i
 112.25  32.8574  28.8842 i
 112.3  32.8111  28.8829 i
 112.35  48.3896  28.8815 i
 112.4  40.6691  28.8802 i
 112.45  33.609  28.8789 i
 112.5  31.9602  28.8776 i
 112.55  34.3968  28.8763 i
 112.6  20.1744  28.875 i
 112.65  20.4042  28.8737 i
 112.7  28.0759  28.8724 i
 112.75  38.4529  28.8711 i
 112.8  26.6076  28.8698 i
 112.85  27.8783  28.8685 i
 112.9  33.1338  28.8673 i
 112.95  40.3802  28.866 i
 113  37.3321  28.8648 i
 113.05  31.9976  28.8635 i
 113.1  39.7767  28.8623 i
 113.15  31.0499  28.8611 i
 113.2  34.8127  28.8598 i
 113.25  31.8473  28.8586 i
 113.3  27.5599  28.8574 i
 113.35  26.3902  28.8562 i
 113.4  31.7006  28.855 i
 113.45  28.233  28.8538 i
 113.5  26.2638  28.8527 i
 113.55  26.2279  28.8515 i
 113.6  26.0654  28.8503 i
 113.65  35.0907  28.8492 i
 113.7  31.5981  28.848 i
 113.75  24.3741  28.8469 i
 113.8  21.8448  28.8457 i
 113.85  36.827  28.8446 i
 113.9  31.6454  28.8435 i
 113.95  26.8158  28.8424 i
 114  28.4466  28.8412 i
 114.05  19.0416  28.8401 i
 114.1  25.5556  28.839 i
 114.15  42.6804  28.8379 i
 114.2  35.7364  28.8368 i
 114.25  29.5409  28.8358 i
 114.3  30.8724  28.8347 i
 114.35  24.2692  28.8336 i
 114.4  20.3495  28.8326 i
 114.45  27.7558  28.8315 i
 114.5  21.547  28.8304 i
 114.55  25.6268  28.8294 i
 114.6  29.8898  28.8284 i
 114.65  36.9188  28.8273 i
 114.7  32.2065  28.8263 i
 114.75  25.1055  28.8253 i
 114.8  25.1967  28.8243 i
 114.85  23.3349  28.8233 i
 114.9  21.1665  28.8223 i
 114.95  22.1173  28.8213 i
 115  21.1587  28.8203 i
 115.05  31.3595  28.8193 i
 115.1  32.9083  28.8183 i
 115.15  43.185  28.8173 i
 115.2  39.5827  28.8164 i
 115.25  34.7095  28.8154 i
 115.3  36.6795  28.8144 i
 115.35  39.06  28.8135 i
 115.4  43.0109  28.8126 i
 115.45  47.6846  28.8116 i
 115.5  40.9262  28.8107 i
 115.55  58.2577  28.8097 i
 115.6  46.6476  28.8088 i
 115.65  55.2549  28.8079 i
 115.7  46.8555  28.807 i
 115.75  83.5025  28.8061 i
 115.8  69.1675  28.8052 i
 115.85  79.8973  28.8043 i
 115.9  117.034  28.8034 i
 115.95  98.9558  28.8025 i
 116  93.3222  28.8016 i
 116.05  80.1506  28.8008 i
 116.1  69.2789  28.7999 i
 116.15  57.7746  28.799 i
 116.2  61.3332  28.7982 i
 116.25  52.17  28.7973 i
 116.3  39.5521  28.7965 i
 116.35  43.5833  28.7956 i
 116.4  51.7001  28.7948 i
 116.45  38.4125  28.7939 i
 116.5  37.6797  28.7931 i
 116.55  41.845  28.7923 i
 116.6  38.4967  28.7915 i
 116.65  37.4766  28.7907 i
 116.7  31.8607  28.7899 i
 116.75  30.1766  28.7891 i
 116.8  38.3202  28.7883 i
 116.85  35.3546  28.7875 i
 116.9  26.737  28.7867 i
 116.95  29.8916  28.7859 i
 117  36.6633  28.7851 i
 117.05  32.4656  28.7843 i
 117.1  37.7589  28.7836 i
 117.15  24.6912  28.7828 i
 117.2  36.5561  28.782 i
 117.25  20.3428  28.7813 i
 117.3  23.1461  28.7805 i
 117.35  32.1131  28.7798 i
 117.4  35.4458  28.779 i
 117.45  29.3174  28.7783 i
 117.5  30.3843  28.7776 i
 117.55  30.2272  28.7768 i
 117.6  35.3542  28.7761 i
 117.65  35.5531  28.7754 i
 117.7  41.0809  28.7747 i
 117.75  42.755  28.7739 i
 117.8  29.3441  28.7732 i
 117.85  38.5852  28.7725 i
 117.9  20.6336  28.7718 i
 117.95  30.421  28.7711 i
 118  32.4956  28.7704 i
 118.05  33.74  28.7697 i
 118.1  29.1724  28.7691 i
 118.15  36.9519  28.7684 i
 118.2  29.6947  28.7677 i
 118.25  31.0555  28.767 i
 118.3  30.4294  28.7664 i
 118.35  38.8995  28.7657 i
 118.4  28.5691  28.765 i
 118.45  32.8025  28.7644 i
 118.5  39.3235  28.7637 i
 118.55  35.5679  28.7631 i
 118.6  27.9307  28.7624 i
 118.65  24.1449  28.7618 i
 118.7  30.9474  28.7612 i
 118.75  38.6681  28.7605 i
 118.8  30.2867  28.7599 i
 118.85  38.946  28.7593 i
 118.9  20.4565  28.7586 i
 118.95  29.5749  28.758 i
 119  32.8319  28.7574 i
 119.05  37.3466  28.7568 i
 119.1  36.2494  28.7562 i
 119.15  43.3378  28.7556 i
 119.2  22.3792  28.755 i
 119.25  24.7709  28.7544 i
 119.3  27.5376  28.7538 i
 119.35  29.1003  28.7532 i
 119.4  30.7528  28.7526 i
 119.45  25.6708  28.752 i
 119.5  35.7158  28.7514 i
 119.55  33.939  28.7509 i
 119.6  31.7379  28.7503 i
 119.65  37.7749  28.7497 i
 119.7  47.9296  28.7491 i
 119.75  31.2186  28.7486 i
 119.8  27.6738  28.748 i
 119.85  22.3256  28.7475 i
 119.9  32.2615  28.7469 i
 119.95  36.1627  28.7463 i
 120  26.5202  28.7458 i
 120.05  37.7664  28.7452 i
 120.1  33.832  28.7447 i
 120.15  31.3621  28.7442 i
 120.2  31.4771  28.7436 i
 120.25  32.265  28.7431 i
 120.3  25.9127  28.7425 i
 120.35  38.3594  28.742 i
 120.4  29.5656  28.7415 i
 120.45  38.5007  28.741 i
 120.5  36.2558  28.7404 i
 120.55  25.5981  28.7399 i
 120.6  45.4585  28.7394 i
 120.65  41.6108  28.7389 i
 120.7  33.6929  28.7384 i
 120.75  41.2197  28.7379 i
 120.8  24.986  28.7374 i
 120.85  36.937  28.7368 i
 120.9  35.3281  28.7363 i
 120.95  22.139  28.7358 i
 121  27.8123  28.7353 i
 121.05  27.956  28.7349 i
 121.1  28.4522  28.7344 i
 121.15  27.6161  28.7339 i
 121.2  39.9574  28.7334 i
 121.25  30.0823  28.7329 i
 121.3  28.0492  28.7324 i
 121.35  24.3049  28.7319 i
 121.4  35.9292  28.7314 i
 121.45  35.9316  28.731 i
 121.5  39.0734  28.7305 i
 121.55  39.5913  28.73 i
 121.6  33.7962  28.7296 i
 121.65  29.6988  28.7291 i
 121.7  27.1654  28.7286 i
 121.75  21.1501  28.7281 i
 121.8  33.0311  28.7277 i
 121.85  42.051  28.7272 i
 121.9  35.706  28.7268 i
 121.95  32.8276  28.7263 i
 122  34.0871  28.7259 i
 122.05  34.9139  28.7254 i
 122.1  23.2411  28.7249 i
 122.15  28.418  28.7245 i
 122.2  24.1054  28.724 i
 122.25  35.6989  28.7236 i
 122.3  38.3119  28.7232 i
 122.35  29.418  28.7227 i
 122.4  26.9669  28.7223 i
 122.45  30.872  28.7218 i
 122.5  31.3278  28.7214 i
 122.55  30.1797  28.7209 i
 122.6  26.9402  28.7205 i
 122.65  27.5787  28.7201 i
 122.7  32.2302  28.7196 i
 122.75  23.4184  28.7192 i
 122.8  29.5328  28.7188 i
 122.85  28.7606  28.7183 i
 122.9  26.6596  28.7179 i
 122.95  26.2703  28.7175 i
 123  26.7723  28.7171 i
 123.05  24.019  28.7166 i
 123.1  28.5986  28.7162 i
 123.15  44.717  28.7158 i
 123.2  23.0709  28.7154 i
 123.25  31.6117  28.715 i
 123.3  31.3597  28.7145 i
 123.35  34.5269  28.7141 i
 123.4  37.0393  28.7137 i
 123.45  27.7133  28.7133 i
 123.5  35.0967  28.7129 i
 123.55  33.1208  28.7125 i
 123.6  21.9962  28.712 i
 123.65  39.1145  28.7116 i
 123.7  32.2903  28.7112 i
 123.75  27.435  28.7108 i
 123.8  33.3293  28.7104 i
 123.85  32.6736  28.71 i
 123.9  24.2359  28.7096 i
 123.95  39.5701  28.7092 i
 124  28.8487  28.7088 i
 124.05  23.7369  28.7084 i
 124.1  33.597  28.708 i
 124.15  37.4252  28.7076 i
 124.2  27.6666  28.7071 i
 124.25  18.6277  28.7067 i
 124.3  30.4747  28.7063 i
 124.35  27.2415  28.7059 i
 124.4  33.1119  28.7055 i
 124.45  35.1595  28.7051 i
 124.5  24.422  28.7047 i
 124.55  37.5639  28.7043 i
 124.6  24.8107  28.7039 i
 124.65  27.9634  28.7035 i
 124.7  35.6968  28.7031 i
 124.75  30.4576  28.7027 i
 124.8  29.1789  28.7023 i
 124.85  21.858  28.7019 i
 124.9  29.717  28.7015 i
 124.95  41.4658  28.7011 i
 125  21.7917  28.7007 i
 125.05  32.9796  28.7003 i
 125.1  29.0334  28.6999 i
 125.15  32.8368  28.6995 i
 125.2  22.8684  28.6991 i
 125.25  33.1356  28.6987 i
 125.3  35.4495  28.6983 i
 125.35  31.0479  28.6979 i
 125.4  33.5321  28.6975 i
 125.45  22.6934  28.6971 i
 125.5  31.7122  28.6967 i
 125.55  23.0365  28.6963 i
 125.6  20.9469  28.6959 i
 125.65  36.9539  28.6955 i
 125.7  28.5874  28.6951 i
 125.75  29.35  28.6947 i
 125.8  17.4247  28.6943 i
 125.85  37.345  28.6939 i
 125.9  29.0468  28.6935 i
 125.95  26.4054  28.6931 i
 126  24.5171  28.6927 i
 126.05  38.8405  28.6923 i
 126.1  32.2268  28.6919 i
 126.15  24.4341  28.6915 i
 126.2  29.1666  28.6911 i
 126.25  29.9116  28.6907 i
 126.3  40.3538  28.6903 i
 126.35  27.3436  28.6898 i
 126.4  31.0107  28.6894 i
 126.45  27.8205  28.689 i
 126.5  36.9712  28.6886 i
 126.55  28.5025  28.6882 i
 126.6  39.3009  28.6878 i
 126.65  28.6861  28.6874 i
 126.7  30.6989  28.687 i
 126.75  35.4683  28.6865 i
 126.8  39.4043  28.6861 i
 126.85  36.2493  28.6857 i
 126.9  31.0075  28.6853 i
 126.95  24.4893  28.6849 i
 127  24.1293  28.6845 i
 127.05  33.4084  28.684 i
 127.1  34.6553  28.6836 i
 127.15  25.1475  28.6832 i
 127.2  37.9184  28.6828 i
 127.25  27.2572  28.6823 i
 127.3  32.4697  28.6819 i
 127.35  35.6902  28.6815 i
 127.4  36.0336  28.681 i
 127.45  31.7124  28.6806 i
 127.5  29.5802  28.6802 i
 127.55  33.8659  28.6798 i
 127.6  29.9838  28.6793 i
 127.65  32.9939  28.6789 i
 127.7  37.9084  28.6784 i
 127.75  33.232  28.678 i
 127.8  18.8438  28.6776 i
 127.85  32.84  28.6771 i
 127.9  27.237  28.6767 i
 127.95  17.7755  28.6762 i
 128  28.0709  28.6758 i
 128.05  33.9445  28.6753 i
 128.1  26.0723  28.6749 i
 128.15  40.8166  28.6744 i
 128.2  28.4591  28.674 i
 128.25  31.4129  28.6735 i
 128.3  22.1663  28.6731 i
 128.35  25.622  28.6726 i
 128.4  24.1916  28.6721 i
 128.45  19.442  28.6717 i
 128.5  19.6385  28.6712 i
 128.55  29.5415  28.6707 i
 128.6  35.0256  28.6703 i
 128.65  22.0903  28.6698 i
 128.7  39.9171  28.6693 i
 128.75  28.0067  28.6688 i
 128.8  21.1703  28.6684 i
 128.85  29.7977  28.6679 i
 128.9  27.238  28.6674 i
 128.95  28.6927  28.6669 i
 129  27.2265  28.6664 i
 129.05  35.4478  28.6659 i
 129.1  23.4443  28.6654 i
 129.15  29.7706  28.6649 i
 129.2  25.8955  28.6645 i
 129.25  19.1164  28.664 i
 129.3  32.4575  28.6635 i
 129.35  37.2054  28.6629 i
 129.4  33.6104  28.6624 i
 129.45  37.592  28.6619 i
 129.5  30.762  28.6614 i
 129.55  32.3712  28.6609 i
 129.6  31.0983  28.6604 i
 129.65  24.8573  28.6599 i
 129.7  28.198  28.6594 i
 129.75  23.7961  28.6588 i
 129.8  31.7763  28.6583 i
 129.85  28.3035  28.6578 i
 129.9  31.9681  28.6572 i
 129.95  25.2821  28.6567 i
 130  35.396  28.6562 i

