
#Surface 0 of 1 surfaces

#IsoCurve 0, 1801 points
#x y z type
 40  41.6084  32.1967 i
 40.05  41.3732  32.1943 i
 40.1  39.3909  32.192 i
 40.15  34.0527  32.1896 i
 40.2  51.7072  32.1872 i
 40.25  33.3644  32.1849 i
 40.3  34.1208  32.1825 i
 40.35  45.0854  32.1801 i
 40.4  43.718  32.1777 i
 40.45  40.0726  32.1753 i
 40.5  42.4308  32.1729 i
 40.55  32.6221  32.1705 i
 40.6  49.6135  32.168 i
 40.65  44.5603  32.1656 i
 40.7  40.4635  32.1632 i
 40.75  45.8025  32.1607 i
 40.8  40.2386  32.1583 i
 40.85  41.2022  32.1558 i
 40.9  36.0483  32.1534 i
 40.95  32.6445  32.1509 i
 41  36.4433  32.1484 i
 41.05  41.9755  32.146 i
 41.1  43.1043  32.1435 i
 41.15  44.7385  32.141 i
 41.2  33.2086  32.1385 i
 41.25  41.0334  32.136 i
 41.3  49.2402  32.1335 i
 41.35  51.1746  32.131 i
 41.4  39.9609  32.1284 i
 41.45  36.6537  32.1259 i
 41.5  35.5346  32.1234 i
 41.55  39.5538  32.1208 i
 41.6  48.349  32.1183 i
 41.65  29.2995  32.1157 i
 41.7  27.8307  32.1132 i
 41.75  19.7892  32.1106 i
 41.8  39.0971  32.108 i
 41.85  39.5082  32.1054 i
 41.9  45.424  32.1029 i
 41.95  41.5289  32.1003 i
 42  50.649  32.0977 i
 42.05  41.1252  32.0951 i
 42.1  45.5129  32.0925 i
 42.15  31.7323  32.0898 i
 42.2  40.5881  32.0872 i
 42.25  36.6979  32.0846 i
 42.3  48.874  32.082 i
 42.35  33.1446  32.0793 i
 42.4  35.3835  32.0767 i
 42.45  44.4612  32.074 i
 42.5  36.1546  32.0714 i
 42.55  31.6656  32.0687 i
 42.6  45.8615  32.0661 i
 42.65  44.1566  32.0634 i
 42.7  44.6732  32.0607 i
 42.75  33.1598  32.058 i
 42.8  44.4974  32.0553 i
 42.85  28.963  32.0526 i
 42.9  30.5308  32.0499 i
 42.95  39.2837  32.0472 i
 43  37.9898  32.0445 i
 43.05  55.4978  32.0418 i
 43.1  42.4278  32.0391 i
 43.15  44.4926  32.0364 i
 43.2  31.4849  32.0336 i
 43.25  48.1052  32.0309 i
 43.3  31.905  32.0282 i
 43.35  38.4255  32.0254 i
 43.4  33.6195  32.0227 i
 43.45  45.6728  32.0199 i
 43.5  31.6897  32.0171 i
 43.55  43.0563  32.0144 i
 43.6  48.0764  32.0116 i
 43.65  47.1378  32.0088 i
 43.7  42.6213  32.006 i
 43.75  32.8943  32.0032 i
 43.8  52.7252  32.0004 i
 43.85  47.2311  31.9976 i
 43.9  46.9354  31.9948 i
 43.95  70.6801  31.992 i
 44  74.1863  31.9892 i
 44.05  66.6794  31.9864 i
 44.1  64.9795  31.9836 i
 44.15  81.3858  31.9807 i
 44.2  150.226  31.9779 i
 44.25  376.568  31.9751 i
 44.3  1176.38  31.9722 i
 44.35  2125.24  31.9694 i
 44.4  2237.7  31.9665 i
 44.45  1419.81  31.9637 i
 44.5  485.294  31.9608 i
 44.55  170.71  31.9579 i
 44.6  98.3437  31.955 i
 44.65  85.3971  31.9522 i
 44.7  54.8194  31.9493 i
 44.75  43.8562  31.9464 i
 44.8  38.7618  31.9435 i
 44.85  37.2706  31.9406 i
 44.9  44.7852  31.9377 i
 44.95  44.982  31.9348 i
 45  38.4591  31.9319 i
 45.05  39.367  31.929 i
 45.1  49.4569  31.9261 i
 45.15  32.8633  31.9231 i
 45.2  33.874  31.9202 i
 45.25  21.7433  31.9173 i
 45.3  48.3717  31.9143 i
 45.35  31.8629  31.9114 i
 45.4  40.0403  31.9084 i
 45.45  49.4561  31.9055 i
 45.5  34.2525  31.9025 i
 45.55  38.7812  31.8996 i
 45.6  34.0433  31.8966 i
 45.65  43.7335  31.8936 i
 45.7  44.9794  31.8907 i
 45.75  45.6456  31.8877 i
 45.8  37.8456  31.8847 i
 45.85  39.6877  31.8817 i
 45.9  43.9338  31.8787 i
 45.95  36.9527  31.8757 i
 46  30.6545  31.8727 i
 46.05  35.4624  31.8697 i
 46.1  30.6217  31.8667 i
 46.15  40.2788  31.8637 i
 46.2  39.9403  31.8607 i
 46.25  32.5798  31.8577 i
 46.3  48.2729  31.8547 i
 46.35  32.2396  31.8517 i
 46.4  42.5938  31.8486 i
 46.45  34.3645  31.8456 i
 46.5  36.2828  31.8426 i
 46.55  37.8232  31.8395 i
 46.6  34.2768  31.8365 i
 46.65  39.3162  31.8334 i
 46.7  39.2707  31.8304 i
 46.75  42.3558  31.8273 i
 46.8  34.6439  31.8243 i
 46.85  52.0943  31.8212 i
 46.9  24.6823  31.8181 i
 46.95  40.214  31.8151 i
 47  31.5665  31.812 i
 47.05  39.6051  31.8089 i
 47.1  32.9351  31.8058 i
 47.15  40.2737  31.8027 i
 47.2  39.8947  31.7996 i
 47.25  29.0729  31.7966 i
 47.3  34.9177  31.7935 i
 47.35  39.6427  31.7904 i
 47.4  32.5465  31.7873 i
 47.45  31.2291  31.7841 i
 47.5  43.5661  31.781 i
 47.55  34.0716  31.7779 i
 47.6  42.5466  31.7748 i
 47.65  40.6622  31.7717 i
 47.7  37.5218  31.7686 i
 47.75  44.2992  31.7654 i
 47.8  30.3641  31.7623 i
 47.85  27.0784  31.7592 i
 47.9  29.9244  31.756 i
 47.95  32.0346  31.7529 i
 48  40.6769  31.7498 i
 48.05  36.375  31.7466 i
 48.1  27.9455  31.7435 i
 48.15  35.4625  31.7403 i
 48.2  35.7628  31.7372 i
 48.25  26.6587  31.734 i
 48.3  34.0419  31.7308 i
 48.35  32.4406  31.7277 i
 48.4  31.2902  31.7245 i
 48.45  27.5802  31.7213 i
 48.5  34.6311  31.7182 i
 48.55  33.251  31.715 i
 48.6  33.3363  31.7118 i
 48.65  27.5308  31.7086 i
 48.7  30.7076  31.7054 i
 48.75  27.6453  31.7023 i
 48.8  31.3686  31.6991 i
 48.85  29.8665  31.6959 i
 48.9  31.5104  31.6927 i
 48.95  26.9305  31.6895 i
 49  37.448  31.6863 i
 49.05  36.5054  31.6831 i
 49.1  32.694  31.6799 i
 49.15  36.5226  31.6767 i
 49.2  36.0171  31.6735 i
 49.25  38.2943  31.6702 i
 49.3  30.7379  31.667 i
 49.35  25.5615  31.6638 i
 49.4  34.8263  31.6606 i
 49.45  32.3919  31.6574 i
 49.5  38.5315  31.6541 i
 49.55  35.7423  31.6509 i
 49.6  30.3529  31.6477 i
 49.65  25.9672  31.6444 i
 49.7  36.9647  31.6412 i
 49.75  29.8381  31.638 i
 49.8  36.175  31.6347 i
 49.85  35.3538  31.6315 i
 49.9  35.8182  31.6282 i
 49.95  34.792  31.625 i
 50  36.8928  31.6217 i
 50.05  32.3026  31.6185 i
 50.1  33.5798  31.6152 i
 50.15  36.4026  31.612 i
 50.2  42.8186  31.6087 i
 50.25  26.9869  31.6054 i
 50.3  36.1098  31.6022 i
 50.35  29.6708  31.5989 i
 50.4  41.6269  31.5956 i
 50.45  32.4383  31.5924 i
 50.5  33.5443  31.5891 i
 50.55  26.5475  31.5858 i
 50.6  25.6701  31.5826 i
 50.65  35.2966  31.5793 i
 50.7  37.4436  31.576 i
 50.75  28.8811  31.5727 i
 50.8  30.1124  31.5694 i
 50.85  31.8498  31.5661 i
 50.9  36.1034  31.5629 i
 50.95  31.1568  31.5596 i
 51  36.8522  31.5563 i
 51.05  34.9804  31.553 i
 51.1  34.5539  31.5497 i
 51.15  30.612  31.5464 i
 51.2  29.7128  31.5431 i
 51.25  34.4746  31.5398 i
 51.3  32.7038  31.5365 i
 51.35  43.2338  31.5332 i
 51.4  35.951  31.5299 i
 51.45  25.5565  31.5266 i
 51.5  32.5962  31.5233 i
 51.55  29.5283  31.52 i
 51.6  41.7575  31.5167 i
 51.65  28.7212  31.5133 i
 51.7  32.7505  31.51 i
 51.75  37.4678  31.5067 i
 51.8  29.2324  31.5034 i
 51.85  35.8018  31.5001 i
 51.9  37.4341  31.4968 i
 51.95  31.8479  31.4934 i
 52  31.3392  31.4901 i
 52.05  23.6367  31.4868 i
 52.1  36.1856  31.4835 i
 52.15  37.5864  31.4802 i
 52.2  34.9565  31.4768 i
 52.25  30.8759  31.4735 i
 52.3  27.9912  31.4702 i
 52.35  44.8349  31.4668 i
 52.4  40.752  31.4635 i
 52.45  34.7856  31.4602 i
 52.5  28.1156  31.4568 i
 52.55  21.8877  31.4535 i
 52.6  36.1442  31.4502 i
 52.65  30.0584  31.4468 i
 52.7  40.6256  31.4435 i
 52.75  31.2672  31.4402 i
 52.8  36.7473  31.4368 i
 52.85  40.4143  31.4335 i
 52.9  36.0099  31.4301 i
 52.95  29.9881  31.4268 i
 53  39.5637  31.4234 i
 53.05  33.7139  31.4201 i
 53.1  40.3993  31.4168 i
 53.15  22.2934  31.4134 i
 53.2  27.119  31.4101 i
 53.25  36.3166  31.4067 i
 53.3  39.5547  31.4034 i
 53.35  41.8443  31.4 i
 53.4  29.8669  31.3967 i
 53.45  26.3083  31.3933 i
 53.5  37.5069  31.39 i
 53.55  40.8804  31.3866 i
 53.6  44.3989  31.3833 i
 53.65  37.1141  31.3799 i
 53.7  29.5546  31.3766 i
 53.75  39.3135  31.3732 i
 53.8  35.8435  31.3698 i
 53.85  33.7535  31.3665 i
 53.9  30.3921  31.3631 i
 53.95  47.7411  31.3598 i
 54  35.4753  31.3564 i
 54.05  24.6692  31.3531 i
 54.1  24.2083  31.3497 i
 54.15  42.985  31.3464 i
 54.2  36.717  31.343 i
 54.25  29.8044  31.3396 i
 54.3  39.8791  31.3363 i
 54.35  36.3204  31.3329 i
 54.4  26.2844  31.3296 i
 54.45  38.8124  31.3262 i
 54.5  38.8555  31.3228 i
 54.55  33.7408  31.3195 i
 54.6  24.6629  31.3161 i
 54.65  36.34  31.3128 i
 54.7  31.3363  31.3094 i
 54.75  35.3815  31.306 i
 54.8  45.1305  31.3027 i
 54.85  34.2042  31.2993 i
 54.9  28.5223  31.296 i
 54.95  29.1352  31.2926 i
 55  24.7142  31.2892 i
 55.05  27.0637  31.2859 i
 55.1  31.6593  31.2825 i
 55.15  25.8823  31.2792 i
 55.2  35.9296  31.2758 i
 55.25  30.6827  31.2725 i
 55.3  34.1786  31.2691 i
 55.35  28.7846  31.2657 i
 55.4  30.5124  31.2624 i
 55.45  26.2568  31.259 i
 55.5  32.907  31.2557 i
 55.55  38.8337  31.2523 i
 55.6  27.9007  31.2489 i
 55.65  32.0035  31.2456 i
 55.7  36.1147  31.2422 i
 55.75  28.7252  31.2389 i
 55.8  31.8276  31.2355 i
 55.85  36.6478  31.2322 i
 55.9  28.0024  31.2288 i
 55.95  42.319  31.2255 i
 56  23.9941  31.2221 i
 56.05  23.6528  31.2188 i
 56.1  33.0344  31.2154 i
 56.15  33.1007  31.212 i
 56.2  25.7224  31.2087 i
 56.25  30.333  31.2053 i
 56.3  27.7884  31.202 i
 56.35  34.5143  31.1986 i
 56.4  28.4045  31.1953 i
 56.45  37.1411  31.1919 i
 56.5  29.761  31.1886 i
 56.55  26.5528  31.1853 i
 56.6  25.7184  31.1819 i
 56.65  35.6753  31.1786 i
 56.7  27.5086  31.1752 i
 56.75  26.6668  31.1719 i
 56.8  28.9872  31.1685 i
 56.85  28.2053  31.1652 i
 56.9  34.535  31.1619 i
 56.95  35.5042  31.1585 i
 57  33.0633  31.1552 i
 57.05  23.2405  31.1518 i
 57.1  37.3672  31.1485 i
 57.15  28.8716  31.1452 i
 57.2  26.7943  31.1418 i
 57.25  51.8745  31.1385 i
 57.3  35.3474  31.1352 i
 57.35  44.4673  31.1318 i
 57.4  27.205  31.1285 i
 57.45  31.7855  31.1252 i
 57.5  31.2934  31.1218 i
 57.55  36.3987  31.1185 i
 57.6  36.5852  31.1152 i
 57.65  27.4936  31.1119 i
 57.7  34.4512  31.1085 i
 57.75  25.8637  31.1052 i
 57.8  28.0485  31.1019 i
 57.85  42.5958  31.0986 i
 57.9  24.6058  31.0953 i
 57.95  35.0072  31.092 i
 58  33.2947  31.0886 i
 58.05  34.9257  31.0853 i
 58.1  30.7559  31.082 i
 58.15  33.2937  31.0787 i
 58.2  32.5195  31.0754 i
 58.25  25.5668  31.0721 i
 58.3  53.1351  31.0688 i
 58.35  37.6681  31.0655 i
 58.4  25.0988  31.0622 i
 58.45  35.306  31.0589 i
 58.5  42.37  31.0556 i
 58.55  30.0062  31.0523 i
 58.6  32.5741  31.049 i
 58.65  29.8894  31.0457 i
 58.7  36.9825  31.0424 i
 58.75  35.4351  31.0391 i
 58.8  26.0324  31.0358 i
 58.85  31.3606  31.0325 i
 58.9  34.7068  31.0293 i
 58.95  38.8602  31.026 i
 59  23.3608  31.0227 i
 59.05  29.769  31.0194 i
 59.1  29.0499  31.0161 i
 59.15  23.2812  31.0129 i
 59.2  27.596  31.0096 i
 59.25  22.6309  31.0063 i
 59.3  37.2614  31.003 i
 59.35  37.8284  30.9998 i
 59.4  29.9732  30.9965 i
 59.45  37.7582  30.9933 i
 59.5  30.4312  30.99 i
 59.55  35.4816  30.9867 i
 59.6  17.4863  30.9835 i
 59.65  26.9577  30.9802 i
 59.7  23.7976  30.977 i
 59.75  39.9011  30.9737 i
 59.8  32.993  30.9705 i
 59.85  26.3621  30.9672 i
 59.9  27.7983  30.964 i
 59.95  43.0712  30.9607 i
 60  29.7433  30.9575 i
 60.05  31.7427  30.9543 i
 60.1  32.4569  30.951 i
 60.15  33.7768  30.9478 i
 60.2  31.8266  30.9446 i
 60.25  27.4707  30.9414 i
 60.3  30.6791  30.9381 i
 60.35  37.1501  30.9349 i
 60.4  30.5166  30.9317 i
 60.45  35.2961  30.9285 i
 60.5  30.4946  30.9253 i
 60.55  29.7558  30.9221 i
 60.6  35.675  30.9188 i
 60.65  24.0867  30.9156 i
 60.7  35.5964  30.9124 i
 60.75  25.636  30.9092 i
 60.8  29.3176  30.906 i
 60.85  33.6448  30.9028 i
 60.9  24.2772  30.8997 i
 60.95  38.6417  30.8965 i
 61  36.9295  30.8933 i
 61.05  29.2766  30.8901 i
 61.1  26.6075  30.8869 i
 61.15  41.7082  30.8837 i
 61.2  25.7478  30.8806 i
 61.25  32.6478  30.8774 i
 61.3  34.9372  30.8742 i
 61.35  34.9189  30.8711 i
 61.4  33.3919  30.8679 i
 61.45  27.6001  30.8647 i
 61.5  39.8313  30.8616 i
 61.55  29.1  30.8584 i
 61.6  41.7374  30.8553 i
 61.65  35.7375  30.8521 i
 61.7  36.6209  30.849 i
 61.75  27.8887  30.8458 i
 61.8  26.624  30.8427 i
 61.85  28.0196  30.8396 i
 61.9  25.9929  30.8364 i
 61.95  28.3846  30.8333 i
 62  30.3868  30.8302 i
 62.05  34.7987  30.8271 i
 62.1  38.8054  30.8239 i
 62.15  26.9374  30.8208 i
 62.2  35.0321  30.8177 i
 62.25  36.4363  30.8146 i
 62.3  33.3199  30.8115 i
 62.35  29.703  30.8084 i
 62.4  22.9192  30.8053 i
 62.45  24.8715  30.8022 i
 62.5  23.0244  30.7991 i
 62.55  31.017  30.796 i
 62.6  23.5667  30.7929 i
 62.65  26.7321  30.7899 i
 62.7  41.5016  30.7868 i
 62.75  26.0933  30.7837 i
 62.8  25.8752  30.7807 i
 62.85  30.8239  30.7776 i
 62.9  31.1195  30.7745 i
 62.95  27.1884  30.7715 i
 63  31.4263  30.7684 i
 63.05  22.4271  30.7654 i
 63.1  29.5474  30.7623 i
 63.15  34.0986  30.7593 i
 63.2  25.7118  30.7562 i
 63.25  32.3382  30.7532 i
 63.3  34.7091  30.7502 i
 63.35  24.1904  30.7471 i
 63.4  25.4425  30.7441 i
 63.45  33.5671  30.7411 i
 63.5  32.0383  30.7381 i
 63.55  29.9195  30.7351 i
 63.6  37.4505  30.7321 i
 63.65  24.193  30.7291 i
 63.7  38.1754  30.7261 i
 63.75  38.17  30.7231 i
 63.8  34.4012  30.7201 i
 63.85  36.0748  30.7171 i
 63.9  27.1138  30.7141 i
 63.95  38.9373  30.7111 i
 64  36.4862  30.7081 i
 64.05  29.6073  30.7052 i
 64.1  33.9087  30.7022 i
 64.15  33.1947  30.6992 i
 64.2  38.0862  30.6963 i
 64.25  30.2259  30.6933 i
 64.3  39.8883  30.6904 i
 64.35  35.0789  30.6874 i
 64.4  48.0717  30.6845 i
 64.45  45.5889  30.6816 i
 64.5  38.7363  30.6786 i
 64.55  82.3671  30.6757 i
 64.6  106.416  30.6728 i
 64.65  152.064  30.6699 i
 64.7  134.677  30.6669 i
 64.75  142.399  30.664 i
 64.8  92.3866  30.6611 i
 64.85  67.594  30.6582 i
 64.9  50.1016  30.6553 i
 64.95  50.2698  30.6525 i
 65  35.5159  30.6496 i
 65.05  39.7805  30.6467 i
 65.1  32.6055  30.6438 i
 65.15  34.8729  30.6409 i
 65.2  28.9411  30.6381 i
 65.25  34.0167  30.6352 i
 65.3  36.353  30.6323 i
 65.35  24.4744  30.6295 i
 65.4  27.0023  30.6266 i
 65.45  27.5786  30.6238 i
 65.5  44.2984  30.621 i
 65.55  35.6389  30.6181 i
 65.6  33.8379  30.6153 i
 65.65  32.6677  30.6125 i
 65.7  34.7995  30.6097 i
 65.75  28.2297  30.6069 i
 65.8  37.0371  30.604 i
 65.85  29.3031  30.6012 i
 65.9  27.0775  30.5984 i
 65.95  31.7293  30.5956 i
 66  27.0806  30.5929 i
 66.05  40.1874  30.5901 i
 66.1  27.557  30.5873 i
 66.15  23.8  30.5845 i
 66.2  29.7807  30.5818 i
 66.25  35.3076  30.579 i
 66.3  29.3104  30.5762 i
 66.35  22.4553  30.5735 i
 66.4  31.3279  30.5707 i
 66.45  20.5439  30.568 i
 66.5  33.1616  30.5653 i
 66.55  35.2661  30.5625 i
 66.6  39.5402  30.5598 i
 66.65  31.1266  30.5571 i
 66.7  26.652  30.5544 i
 66.75  25.9676  30.5517 i
 66.8  25.4939  30.549 i
 66.85  28.1748  30.5463 i
 66.9  26.4945  30.5436 i
 66.95  33.7127  30.5409 i
 67  24.6035  30.5382 i
 67.05  32.5254  30.5355 i
 67.1  29.7708  30.5329 i
 67.15  21.9513  30.5302 i
 67.2  33.9225  30.5275 i
 67.25  39.7626  30.5249 i
 67.3  34.403  30.5223 i
 67.35  41.7119  30.5196 i
 67.4  39.1309  30.517 i
 67.45  43.086  30.5143 i
 67.5  40.3331  30.5117 i
 67.55  30.8099  30.5091 i
 67.6  32.8912  30.5065 i
 67.65  27.3287  30.5039 i
 67.7  32.9462  30.5013 i
 67.75  29.0814  30.4987 i
 67.8  28.9922  30.4961 i
 67.85  30.8621  30.4935 i
 67.9  29.6968  30.4909 i
 67.95  23.1593  30.4884 i
 68  37.237  30.4858 i
 68.05  47.3029  30.4833 i
 68.1  36.5204  30.4807 i
 68.15  22.8699  30.4782 i
 68.2  27.0532  30.4756 i
 68.25  30.0186  30.4731 i
 68.3  29.3976  30.4706 i
 68.35  36.1608  30.468 i
 68.4  38.1949  30.4655 i
 68.45  25.113  30.463 i
 68.5  31.2606  30.4605 i
 68.55  24.0944  30.458 i
 68.6  35.8155  30.4555 i
 68.65  28.0562  30.453 i
 68.7  29.9524  30.4506 i
 68.75  33.2882  30.4481 i
 68.8  31.9122  30.4456 i
 68.85  38.8314  30.4432 i
 68.9  23.4926  30.4407 i
 68.95  23.2675  30.4383 i
 69  26.387  30.4358 i
 69.05  36.1197  30.4334 i
 69.1  32.2208  30.431 i
 69.15  32.6059  30.4286 i
 69.2  25.9057  30.4262 i
 69.25  32.1185  30.4237 i
 69.3  31.1064  30.4213 i
 69.35  34.9794  30.419 i
 69.4  33.745  30.4166 i
 69.45  23.6497  30.4142 i
 69.5  33.0123  30.4118 i
 69.55  26.5557  30.4095 i
 69.6  33.0254  30.4071 i
 69.65  33.1165  30.4047 i
 69.7  35.0427  30.4024 i
 69.75  27.5498  30.4001 i
 69.8  35.0384  30.3977 i
 69.85  36.7104  30.3954 i
 69.9  32.9632  30.3931 i
 69.95  31.4947  30.3908 i
 70  27.4657  30.3885 i
 70.05  33.1267  30.3862 i
 70.1  38.0005  30.3839 i
 70.15  31.8719  30.3816 i
 70.2  37.2753  30.3793 i
 70.25  34.3637  30.3771 i
 70.3  23.7566  30.3748 i
 70.35  28.1673  30.3726 i
 70.4  37.4067  30.3703 i
 70.45  22.9688  30.3681 i
 70.5  31.928  30.3658 i
 70.55  44.3868  30.3636 i
 70.6  31.201  30.3614 i
 70.65  28.5096  30.3592 i
 70.7  24.3057  30.357 i
 70.75  37.0427  30.3548 i
 70.8  34.2611  30.3526 i
 70.85  30.085  30.3504 i
 70.9  27.4105  30.3482 i
 70.95  28.6587  30.3461 i
 71  28.4602  30.3439 i
 71.05  28.6236  30.3418 i
 71.1  26.8723  30.3396 i
 71.15  22.3872  30.3375 i
 71.2  33.4735  30.3354 i
 71.25  32.1809  30.3332 i
 71.3  24.7927  30.3311 i
 71.35  44.6924  30.329 i
 71.4  28.3844  30.3269 i
 71.45  28.1466  30.3248 i
 71.5  33.4366  30.3227 i
 71.55  30.2427  30.3207 i
 71.6  23.8291  30.3186 i
 71.65  33.3372  30.3165 i
 71.7  25.7  30.3145 i
 71.75  27.607  30.3124 i
 71.8  19.1621  30.3104 i
 71.85  31.1641  30.3084 i
 71.9  27.5936  30.3063 i
 71.95  23.6766  30.3043 i
 72  32.5618  30.3023 i
 72.05  25.8804  30.3003 i
 72.1  26.7042  30.2983 i
 72.15  24.0798  30.2964 i
 72.2  27.2905  30.2944 i
 72.25  42.8731  30.2924 i
 72.3  26.896  30.2905 i
 72.35  27.4317  30.2885 i
 72.4  38.0354  30.2866 i
 72.45  30.8234  30.2846 i
 72.5  38.2014  30.2827 i
 72.55  30.708  30.2808 i
 72.6  31.526  30.2789 i
 72.65  27.1002  30.277 i
 72.7  22.8975  30.2751 i
 72.75  36.7321  30.2732 i
 72.8  33.3501  30.2713 i
 72.85  32.3059  30.2695 i
 72.9  26.2356  30.2676 i
 72.95  22.718  30.2658 i
 73  37.7827  30.2639 i
 73.05  23.7533  30.2621 i
 73.1  42.2704  30.2603 i
 73.15  25.0225  30.2584 i
 73.2  31.1921  30.2566 i
 73.25  35.3926  30.2548 i
 73.3  38.2661  30.253 i
 73.35  38.7191  30.2512 i
 73.4  28.473  30.2495 i
 73.45  23.7529  30.2477 i
 73.5  25.1527  30.2459 i
 73.55  24.6372  30.2442 i
 73.6  25.6533  30.2425 i
 73.65  36.8527  30.2407 i
 73.7  32.0129  30.239 i
 73.75  28.0983  30.2373 i
 73.8  39.7044  30.2356 i
 73.85  43.94  30.2339 i
 73.9  22.5243  30.2322 i
 73.95  19.6907  30.2305 i
 74  24.0012  30.2288 i
 74.05  32.2986  30.2272 i
 74.1  29.3505  30.2255 i
 74.15  31.8068  30.2239 i
 74.2  26.4025  30.2222 i
 74.25  45.0339  30.2206 i
 74.3  22.2783  30.219 i
 74.35  24.3233  30.2174 i
 74.4  32.2941  30.2158 i
 74.45  22.8238  30.2142 i
 74.5  35.2499  30.2126 i
 74.55  26.6881  30.2111 i
 74.6  40.2591  30.2095 i
 74.65  32.833  30.2079 i
 74.7  30.7079  30.2064 i
 74.75  28.5221  30.2049 i
 74.8  31.8476  30.2033 i
 74.85  37.3846  30.2018 i
 74.9  33.8253  30.2003 i
 74.95  31.377  30.1988 i
 75  17.452  30.1973 i
 75.05  20.0884  30.1958 i
 75.1  29.4392  30.1944 i
 75.15  29.437  30.1929 i
 75.2  44.8091  30.1915 i
 75.25  30.8462  30.19 i
 75.3  29.6844  30.1886 i
 75.35  40.4989  30.1872 i
 75.4  17.7371  30.1858 i
 75.45  26.4333  30.1844 i
 75.5  34.0073  30.183 i
 75.55  45.7495  30.1816 i
 75.6  34.7307  30.1802 i
 75.65  37.3557  30.1789 i
 75.7  32.8451  30.1775 i
 75.75  22.7641  30.1762 i
 75.8  35.6716  30.1748 i
 75.85  38.005  30.1735 i
 75.9  41.2669  30.1722 i
 75.95  33.3903  30.1709 i
 76  23.9079  30.1696 i
 76.05  27.1995  30.1683 i
 76.1  39.0923  30.1671 i
 76.15  37.9874  30.1658 i
 76.2  34.3316  30.1645 i
 76.25  21.1496  30.1633 i
 76.3  31.2007  30.1621 i
 76.35  41.0046  30.1608 i
 76.4  24.5626  30.1596 i
 76.45  25.0687  30.1584 i
 76.5  33.8069  30.1572 i
 76.55  38.3092  30.156 i
 76.6  30.3616  30.1549 i
 76.65  25.4398  30.1537 i
 76.7  23.7072  30.1525 i
 76.75  37.6505  30.1514 i
 76.8  31.2224  30.1503 i
 76.85  23.6278  30.1491 i
 76.9  30.5046  30.148 i
 76.95  30.4192  30.1469 i
 77  30.5685  30.1458 i
 77.05  39.2029  30.1447 i
 77.1  29.8671  30.1436 i
 77.15  32.0944  30.1426 i
 77.2  28.5695  30.1415 i
 77.25  39.8286  30.1405 i
 77.3  37.5007  30.1394 i
 77.35  28.487  30.1384 i
 77.4  41.7761  30.1374 i
 77.45  25.6955  30.1364 i
 77.5  19.1317  30.1353 i
 77.55  38.7281  30.1344 i
 77.6  23.6798  30.1334 i
 77.65  36.0339  30.1324 i
 77.7  30.4979  30.1314 i
 77.75  29.8373  30.1305 i
 77.8  34.0671  30.1295 i
 77.85  29.7456  30.1286 i
 77.9  28.5961  30.1277 i
 77.95  38.2694  30.1268 i
 78  21.7657  30.1258 i
 78.05  31.0815  30.1249 i
 78.1  20.2366  30.1241 i
 78.15  34.9638  30.1232 i
 78.2  26.2727  30.1223 i
 78.25  20.9621  30.1215 i
 78.3  37.597  30.1206 i
 78.35  37.6739  30.1198 i
 78.4  34.9575  30.1189 i
 78.45  35.8858  30.1181 i
 78.5  27.7306  30.1173 i
 78.55  26.8447  30.1165 i
 78.6  28.0987  30.1157 i
 78.65  28.2653  30.1149 i
 78.7  24.0096  30.1141 i
 78.75  27.8296  30.1134 i
 78.8  37.5258  30.1126 i
 78.85  29.6115  30.1119 i
 78.9  44.0383  30.1111 i
 78.95  21.1929  30.1104 i
 79  36.6742  30.1097 i
 79.05  28.2846  30.109 i
 79.1  22.2677  30.1083 i
 79.15  25.7594  30.1076 i
 79.2  29.271  30.1069 i
 79.25  34.0159  30.1062 i
 79.3  24.1482  30.1055 i
 79.35  23.1673  30.1049 i
 79.4  23.3847  30.1042 i
 79.45  42.7234  30.1036 i
 79.5  35.824  30.103 i
 79.55  34.1676  30.1024 i
 79.6  40.2284  30.1018 i
 79.65  48.5436  30.1012 i
 79.7  34.3593  30.1006 i
 79.75  33.4347  30.1 i
 79.8  31.9402  30.0994 i
 79.85  32.4671  30.0988 i
 79.9  27.6694  30.0983 i
 79.95  32.5838  30.0978 i
 80  25.718  30.0972 i
 80.05  34.5542  30.0967 i
 80.1  38.044  30.0962 i
 80.15  30.4233  30.0957 i
 80.2  36.4507  30.0952 i
 80.25  17.5662  30.0947 i
 80.3  33.9652  30.0942 i
 80.35  27.7507  30.0937 i
 80.4  32.6927  30.0933 i
 80.45  36.2733  30.0928 i
 80.5  33.9893  30.0924 i
 80.55  25.5229  30.0919 i
 80.6  32.9544  30.0915 i
 80.65  40.8675  30.0911 i
 80.7  36.5894  30.0907 i
 80.75  33.0876  30.0903 i
 80.8  32.8633  30.0899 i
 80.85  30.6866  30.0895 i
 80.9  31.9295  30.0891 i
 80.95  29.2801  30.0888 i
 81  31.614  30.0884 i
 81.05  31.8201  30.0881 i
 81.1  30.2072  30.0877 i
 81.15  43.7933  30.0874 i
 81.2  38.4246  30.0871 i
 81.25  39.8368  30.0868 i
 81.3  29.5264  30.0865 i
 81.35  37.2121  30.0862 i
 81.4  36.9564  30.0859 i
 81.45  43.7653  30.0856 i
 81.5  25.3464  30.0854 i
 81.55  51.2119  30.0851 i
 81.6  44.0111  30.0849 i
 81.65  38.7607  30.0846 i
 81.7  52.4286  30.0844 i
 81.75  44.1043  30.0842 i
 81.8  66.8045  30.084 i
 81.85  143.056  30.0838 i
 81.9  216.233  30.0836 i
 81.95  290.645  30.0834 i
 82  274.756  30.0832 i
 82.05  207.807  30.083 i
 82.1  129.966  30.0829 i
 82.15  79.5738  30.0827 i
 82.2  64.4115  30.0826 i
 82.25  54.252  30.0825 i
 82.3  33.1205  30.0823 i
 82.35  43.6581  30.0822 i
 82.4  24.6954  30.0821 i
 82.45  31.8331  30.082 i
 82.5  22.5217  30.0819 i
 82.55  20.1836  30.0819 i
 82.6  40.2041  30.0818 i
 82.65  22.3341  30.0817 i
 82.7  24.3962  30.0817 i
 82.75  19.6983  30.0816 i
 82.8  23.1572  30.0816 i
 82.85  35.149  30.0816 i
 82.9  38.6991  30.0815 i
 82.95  35.1143  30.0815 i
 83  42.9279  30.0815 i
 83.05  24.2767  30.0815 i
 83.1  27.2717  30.0816 i
 83.15  27.1694  30.0816 i
 83.2  35.8198  30.0816 i
 83.25  36.1682  30.0817 i
 83.3  37.571  30.0817 i
 83.35  33.4148  30.0818 i
 83.4  33.7032  30.0818 i
 83.45  29.5694  30.0819 i
 83.5  39.2797  30.082 i
 83.55  36.8067  30.0821 i
 83.6  31.5973  30.0822 i
 83.65  18.2166  30.0823 i
 83.7  40.201  30.0824 i
 83.75  27.6781  30.0826 i
 83.8  24.9246  30.0827 i
 83.85  24.8401  30.0828 i
 83.9  26.6431  30.083 i
 83.95  24.3893  30.0832 i
 84  27.0661  30.0833 i
 84.05  26.0495  30.0835 i
 84.1  33.6444  30.0837 i
 84.15  30.5446  30.0839 i
 84.2  21.6652  30.0841 i
 84.25  26.4036  30.0843 i
 84.3  29.7713  30.0845 i
 84.35  36.8453  30.0848 i
 84.4  38.8515  30.085 i
 84.45  32.2095  30.0853 i
 84.5  46.3439  30.0855 i
 84.55  21.7261  30.0858 i
 84.6  24.2856  30.086 i
 84.65  26.9825  30.0863 i
 84.7  39.4781  30.0866 i
 84.75  30.3616  30.0869 i
 84.8  39.7477  30.0872 i
 84.85  25.2328  30.0875 i
 84.9  31.4426  30.0879 i
 84.95  29.0026  30.0882 i
 85  30.5465  30.0885 i
 85.05  23.1526  30.0889 i
 85.1  28.1398  30.0892 i
 85.15  25.3889  30.0896 i
 85.2  24.076  30.09 i
 85.25  22.7587  30.0904 i
 85.3  36.3941  30.0907 i
 85.35  33.6634  30.0911 i
 85.4  31.7419  30.0916 i
 85.45  31.5708  30.092 i
 85.5  30.6729  30.0924 i
 85.55  21.7551  30.0928 i
 85.6  30.3932  30.0933 i
 85.65  33.0183  30.0937 i
 85.7  26.872  30.0942 i
 85.75  35.8831  30.0946 i
 85.8  33.0391  30.0951 i
 85.85  34.5091  30.0956 i
 85.9  28.9544  30.0961 i
 85.95  29.9431  30.0966 i
 86  31.0234  30.0971 i
 86.05  36.4664  30.0976 i
 86.1  34.271  30.0981 i
 86.15  26.4279  30.0986 i
 86.2  27.5867  30.0992 i
 86.25  37.6704  30.0997 i
 86.3  21.7019  30.1003 i
 86.35  31.8972  30.1009 i
 86.4  19.0281  30.1014 i
 86.45  25.5928  30.102 i
 86.5  32.299  30.1026 i
 86.55  30.5794  30.1032 i
 86.6  23.9731  30.1038 i
 86.65  26.9647  30.1044 i
 86.7  32.6719  30.105 i
 86.75  32.9306  30.1056 i
 86.8  29.0313  30.1063 i
 86.85  19.8814  30.1069 i
 86.9  26.3688  30.1076 i
 86.95  32.8813  30.1082 i
 87  23.9041  30.1089 i
 87.05  20.4373  30.1096 i
 87.1  30.3572  30.1103 i
 87.15  29.5178  30.111 i
 87.2  33.5634  30.1117 i
 87.25  32.1861  30.1124 i
 87.3  32.6756  30.1131 i
 87.35  24.5233  30.1138 i
 87.4  23.8391  30.1145 i
 87.45  36.8576  30.1153 i
 87.5  25.7935  30.116 i
 87.55  33.6254  30.1168 i
 87.6  33.3446  30.1176 i
 87.65  37.8205  30.1183 i
 87.7  33.1439  30.1191 i
 87.75  24.8426  30.1199 i
 87.8  30.0717  30.1207 i
 87.85  43.4134  30.1215 i
 87.9  37.5086  30.1223 i
 87.95  29.9726  30.1231 i
 88  37.8351  30.124 i
 88.05  37.8236  30.1248 i
 88.1  30.6329  30.1256 i
 88.15  28.2605  30.1265 i
 88.2  29.2286  30.1274 i
 88.25  19.0735  30.1282 i
 88.3  24.1651  30.1291 i
 88.35  33.3798  30.13 i
 88.4  27.4199  30.1309 i
 88.45  38.2909  30.1318 i
 88.5  32.1219  30.1327 i
 88.55  32.0321  30.1336 i
 88.6  30.2377  30.1345 i
 88.65  27.9363  30.1354 i
 88.7  41.3779  30.1364 i
 88.75  29.5291  30.1373 i
 88.8  28.1789  30.1383 i
 88.85  27.2133  30.1392 i
 88.9  35.5971  30.1402 i
 88.95  24.0818  30.1412 i
 89  25.4843  30.1422 i
 89.05  23.7669  30.1432 i
 89.1  29.7572  30.1442 i
 89.15  35.854  30.1452 i
 89.2  34.7701  30.1462 i
 89.25  23.6223  30.1472 i
 89.3  26.0842  30.1482 i
 89.35  25.5294  30.1493 i
 89.4  37.0251  30.1503 i
 89.45  29.4882  30.1514 i
 89.5  28.7004  30.1524 i
 89.55  31.8712  30.1535 i
 89.6  37.3003  30.1546 i
 89.65  36.9079  30.1557 i
 89.7  28.0458  30.1568 i
 89.75  26.5898  30.1579 i
 89.8  35.1473  30.159 i
 89.85  27.5608  30.1601 i
 89.9  40.2889  30.1612 i
 89.95  26.1956  30.1623 i
 90  32.1435  30.1635 i
 90.05  27.3358  30.1646 i
 90.1  27.5323  30.1658 i
 90.15  27.1154  30.1669 i
 90.2  36.8002  30.1681 i
 90.25  38.5687  30.1693 i
 90.3  42.3208  30.1705 i
 90.35  31.1253  30.1716 i
 90.4  27.4038  30.1728 i
 90.45  38.9739  30.174 i
 90.5  23.2891  30.1753 i
 90.55  23.9966  30.1765 i
 90.6  35.7662  30.1777 i
 90.65  33.0172  30.1789 i
 90.7  32.2544  30.1802 i
 90.75  33.6015  30.1814 i
 90.8  27.8716  30.1827 i
 90.85  28.1033  30.184 i
 90.9  29.3979  30.1852 i
 90.95  28.9386  30.1865 i
 91  35.2069  30.1878 i
 91.05  43.3944  30.1891 i
 91.1  37.3452  30.1904 i
 91.15  37.3446  30.1917 i
 91.2  32.1108  30.193 i
 91.25  37.0242  30.1944 i
 91.3  24.3902  30.1957 i
 91.35  34.2364  30.197 i
 91.4  36.0752  30.1984 i
 91.45  20.2193  30.1997 i
 91.5  38.4791  30.2011 i
 91.55  39.8704  30.2025 i
 91.6  24.2696  30.2039 i
 91.65  35.7957  30.2053 i
 91.7  30.9341  30.2067 i
 91.75  27.9409  30.2082 i
 91.8  16.1617  30.2097 i
 91.85  30.7441  30.2112 i
 91.9  27.3766  30.2127 i
 91.95  30.2313  30.2142 i
 92  39.2128  30.2158 i
 92.05  30.9289  30.2174 i
 92.1  24.4575  30.219 i
 92.15  42.0757  30.2206 i
 92.2  38.4988  30.2222 i
 92.25  34.077  30.2238 i
 92.3  27.7554  30.2255 i
 92.35  30.8108  30.2272 i
 92.4  23.9773  30.2289 i
 92.45  26.0911  30.2306 i
 92.5  27.054  30.2323 i
 92.55  29.8935  30.2341 i
 92.6  26.9395  30.2358 i
 92.65  33.6761  30.2376 i
 92.7  34.0419  30.2394 i
 92.75  29.1072  30.2413 i
 92.8  30.0785  30.2431 i
 92.85  27.8813  30.2449 i
 92.9  28.6604  30.2468 i
 92.95  25.1307  30.2487 i
 93  31.6887  30.2506 i
 93.05  38.6513  30.2525 i
 93.1  21.9358  30.2545 i
 93.15  37.0502  30.2564 i
 93.2  36.8965  30.2584 i
 93.25  29.4272  30.2604 i
 93.3  31.0848  30.2624 i
 93.35  26.7121  30.2644 i
 93.4  34.0615  30.2664 i
 93.45  37.8654  30.2684 i
 93.5  27.5723  30.2705 i
 93.55  29.5907  30.2726 i
 93.6  33.2258  30.2747 i
 93.65  35.9497  30.2768 i
 93.7  29.1955  30.2789 i
 93.75  31.656  30.281 i
 93.8  36.8264  30.2832 i
 93.85  30.7403  30.2853 i
 93.9  28.9801  30.2875 i
 93.95  40.9982  30.2897 i
 94  40.4992  30.2919 i
 94.05  33.7542  30.2942 i
 94.1  27.6528  30.2964 i
 94.15  29.1442  30.2986 i
 94.2  33.7317  30.3009 i
 94.25  35.1704  30.3032 i
 94.3  38.2363  30.3055 i
 94.35  37.6384  30.3078 i
 94.4  22.0104  30.3101 i
 94.45  35.3211  30.3124 i
 94.5  26.2306  30.3148 i
 94.55  36.024  30.3171 i
 94.6  34.6447  30.3195 i
 94.65  16.1026  30.3219 i
 94.7  39.8686  30.3243 i
 94.75  44.0243  30.3267 i
 94.8  36.6945  30.3291 i
 94.85  30.6007  30.3316 i
 94.9  29.613  30.334 i
 94.95  35.4739  30.3365 i
 95  25.0578  30.339 i
 95.05  35.8195  30.3415 i
 95.1  31.4853  30.344 i
 95.15  26.606  30.3465 i
 95.2  45.238  30.349 i
 95.25  30.3442  30.3515 i
 95.3  28.6387  30.3541 i
 95.35  22.3743  30.3566 i
 95.4  24.2878  30.3592 i
 95.45  34.9847  30.3618 i
 95.5  23.9004  30.3644 i
 95.55  37.6729  30.367 i
 95.6  26.8391  30.3696 i
 95.65  23.1859  30.3722 i
 95.7  28.3932  30.3749 i
 95.75  30.3275  30.3775 i
 95.8  27.1047  30.3802 i
 95.85  31.8623  30.3828 i
 95.9  23.8744  30.3855 i
 95.95  32.8365  30.3882 i
 96  28.1941  30.3909 i
 96.05  37.3664  30.3936 i
 96.1  31.3091  30.3963 i
 96.15  34.2556  30.3991 i
 96.2  26.9418  30.4018 i
 96.25  19.7194  30.4046 i
 96.3  29.0873  30.4073 i
 96.35  18.7806  30.4101 i
 96.4  38.8943  30.4129 i
 96.45  28.8404  30.4156 i
 96.5  34.4553  30.4184 i
 96.55  31.0414  30.4213 i
 96.6  41.9798  30.4241 i
 96.65  18.2111  30.4269 i
 96.7  30.3064  30.4297 i
 96.75  29.0169  30.4326 i
 96.8  34.3027  30.4354 i
 96.85  37.4338  30.4383 i
 96.9  28.5233  30.4412 i
 96.95  33.9341  30.444 i
 97  26.9105  30.4469 i
 97.05  31.8734  30.4498 i
 97.1  35.753  30.4527 i
 97.15  30.4285  30.4556 i
 97.2  36.5373  30.4585 i
 97.25  31.3921  30.4615 i
 97.3  28.4247  30.4644 i
 97.35  29.1377  30.4673 i
 97.4  31.7244  30.4703 i
 97.45  30.3743  30.4732 i
 97.5  38.0119  30.4762 i
 97.55  26.9417  30.4792 i
 97.6  37.8759  30.4821 i
 97.65  33.8959  30.4851 i
 97.7  33.5212  30.4881 i
 97.75  34.8924  30.4911 i
 97.8  22.9637  30.4941 i
 97.85  38.7239  30.4971 i
 97.9  39.1241  30.5001 i
 97.95  31.8859  30.5032 i
 98  34.044  30.5062 i
 98.05  32.7828  30.5092 i
 98.1  39.2913  30.5123 i
 98.15  36.103  30.5153 i
 98.2  32.3918  30.5184 i
 98.25  37.4701  30.5214 i
 98.3  54.7013  30.5245 i
 98.35  54.6695  30.5276 i
 98.4  87.767  30.5306 i
 98.45  96.0635  30.5337 i
 98.5  142.273  30.5368 i
 98.55  175.164  30.5399 i
 98.6  149.935  30.543 i
 98.65  78.8086  30.5461 i
 98.7  71.1582  30.5492 i
 98.75  58.9832  30.5523 i
 98.8  56.3164  30.5554 i
 98.85  51.4275  30.5585 i
 98.9  31.3937  30.5617 i
 98.95  32.5308  30.5648 i
 99  28.9617  30.5679 i
 99.05  30.6196  30.5711 i
 99.1  25.8141  30.5742 i
 99.15  37.2089  30.5773 i
 99.2  30.5847  30.5805 i
 99.25  29.8272  30.5836 i
 99.3  28.2052  30.5868 i
 99.35  28.0686  30.59 i
 99.4  26.4244  30.5931 i
 99.45  40.463  30.5963 i
 99.5  32.8978  30.5995 i
 99.55  33.6425  30.6026 i
 99.6  33.6728  30.6058 i
 99.65  36.4417  30.609 i
 99.7  33.0097  30.6122 i
 99.75  27.9993  30.6153 i
 99.8  30.7787  30.6185 i
 99.85  34.2843  30.6217 i
 99.9  28.6698  30.6249 i
 99.95  33.2344  30.6281 i
 100  28.367  30.6313 i
 100.05  25.018  30.6345 i
 100.1  33.0768  30.6377 i
 100.15  34.3151  30.6409 i
 100.2  37.4853  30.6441 i
 100.25  29.244  30.6473 i
 100.3  30.6468  30.6505 i
 100.35  28.3451  30.6537 i
 100.4  20.4901  30.6569 i
 100.45  37.7685  30.6601 i
 100.5  30.7137  30.6633 i
 100.55  26.5569  30.6666 i
 100.6  26.6792  30.6698 i
 100.65  20.9182  30.673 i
 100.7  24.9869  30.6762 i
 100.75  38.4795  30.6794 i
 100.8  18.9526  30.6826 i
 100.85  21.8757  30.6858 i
 100.9  31.0708  30.6891 i
 100.95  33.5035  30.6923 i
 101  25.5673  30.6955 i
 101.05  34.7274  30.6987 i
 101.1  29.6385  30.7019 i
 101.15  35.2055  30.7051 i
 101.2  27.5036  30.7084 i
 101.25  29.6971  30.7116 i
 101.3  30.0597  30.7148 i
 101.35  31.2118  30.718 i
 101.4  30.3939  30.7212 i
 101.45  31.9284  30.7244 i
 101.5  31.0182  30.7276 i
 101.55  21.3678  30.7309 i
 101.6  29.7257  30.7341 i
 101.65  35.3418  30.7373 i
 101.7  27.2216  30.7405 i
 101.75  23.161  30.7437 i
 101.8  23.666  30.7469 i
 101.85  33.0992  30.7501 i
 101.9  28.6353  30.7533 i
 101.95  18.5523  30.7565 i
 102  26.3693  30.7597 i
 102.05  23.9937  30.7629 i
 102.1  30.8358  30.7661 i
 102.15  30.5364  30.7693 i
 102.2  42.0305  30.7725 i
 102.25  31.1821  30.7757 i
 102.3  33.9749  30.7788 i
 102.35  24.6443  30.782 i
 102.4  26.6436  30.7852 i
 102.45  24.4435  30.7884 i
 102.5  32.6033  30.7916 i
 102.55  23.3981  30.7947 i
 102.6  33.556  30.7979 i
 102.65  25.8949  30.8011 i
 102.7  21.88  30.8042 i
 102.75  29.8878  30.8074 i
 102.8  41.1506  30.8105 i
 102.85  30.6503  30.8137 i
 102.9  20.8556  30.8168 i
 102.95  40.604  30.82 i
 103  34.3555  30.8231 i
 103.05  32.5981  30.8262 i
 103.1  26.503  30.8294 i
 103.15  32.8507  30.8325 i
 103.2  30.3143  30.8356 i
 103.25  34.0786  30.8387 i
 103.3  35.5484  30.8418 i
 103.35  31.3486  30.845 i
 103.4  27.9573  30.8481 i
 103.45  31.5736  30.8512 i
 103.5  34.8346  30.8543 i
 103.55  27.9009  30.8573 i
 103.6  27.3008  30.8604 i
 103.65  28.3029  30.8635 i
 103.7  38.0814  30.8666 i
 103.75  29.4334  30.8696 i
 103.8  22.3232  30.8727 i
 103.85  22.8946  30.8758 i
 103.9  24.9668  30.8788 i
 103.95  31.4525  30.8819 i
 104  19.6575  30.8849 i
 104.05  28.2642  30.8879 i
 104.1  27.8788  30.8909 i
 104.15  35.6017  30.894 i
 104.2  31.7745  30.897 i
 104.25  19.4315  30.9 i
 104.3  25.4406  30.903 i
 104.35  28.7715  30.906 i
 104.4  33.7288  30.909 i
 104.45  42.3907  30.9119 i
 104.5  29.3539  30.9149 i
 104.55  27.3638  30.9179 i
 104.6  27.6306  30.9208 i
 104.65  35.6325  30.9238 i
 104.7  33.3477  30.9267 i
 104.75  31.448  30.9297 i
 104.8  35.1378  30.9326 i
 104.85  28.4487  30.9355 i
 104.9  31.5716  30.9384 i
 104.95  19.5073  30.9413 i
 105  14.1261  30.9442 i
 105.05  37.1874  30.9471 i
 105.1  29.9586  30.95 i
 105.15  24.3348  30.9529 i
 105.2  27.9106  30.9557 i
 105.25  36.7571  30.9586 i
 105.3  31.5485  30.9614 i
 105.35  29.2946  30.9643 i
 105.4  22.7331  30.9671 i
 105.45  33.5263  30.9699 i
 105.5  33.5231  30.9727 i
 105.55  32.4912  30.9756 i
 105.6  32.3324  30.9783 i
 105.65  25.4126  30.9811 i
 105.7  25.0207  30.9839 i
 105.75  29.7852  30.9867 i
 105.8  29.9864  30.9894 i
 105.85  27.4835  30.9922 i
 105.9  32.1259  30.9949 i
 105.95  23.8425  30.9976 i
 106  34.5792  31.0003 i
 106.05  25.1896  31.003 i
 106.1  24.7179  31.0057 i
 106.15  32.7138  31.0084 i
 106.2  30.2593  31.0111 i
 106.25  25.6181  31.0138 i
 106.3  35.9896  31.0164 i
 106.35  30.8692  31.0191 i
 106.4  34.4048  31.0217 i
 106.45  25.9694  31.0243 i
 106.5  28.007  31.0269 i
 106.55  28.7102  31.0295 i
 106.6  36.5156  31.0321 i
 106.65  34.401  31.0347 i
 106.7  40.8385  31.0372 i
 106.75  34.8208  31.0398 i
 106.8  36.971  31.0423 i
 106.85  37.5486  31.0449 i
 106.9  31.5452  31.0474 i
 106.95  34.3296  31.0499 i
 107  25.4439  31.0524 i
 107.05  27.1328  31.0549 i
 107.1  26.3332  31.0573 i
 107.15  20.9965  31.0598 i
 107.2  22.7355  31.0622 i
 107.25  30.9622  31.0647 i
 107.3  39.2024  31.0671 i
 107.35  26.8666  31.0695 i
 107.4  23.1226  31.0719 i
 107.45  31.0539  31.0743 i
 107.5  37.0226  31.0766 i
 107.55  31.929  31.079 i
 107.6  26.6498  31.0813 i
 107.65  22.2174  31.0837 i
 107.7  22.1043  31.086 i
 107.75  32.7708  31.0883 i
 107.8  29.9189  31.0906 i
 107.85  28.3623  31.0928 i
 107.9  37.554  31.0951 i
 107.95  42.3227  31.0973 i
 108  35.7263  31.0996 i
 108.05  35.857  31.1018 i
 108.1  32.5386  31.104 i
 108.15  22.7473  31.1062 i
 108.2  29.4415  31.1084 i
 108.25  39.5908  31.1106 i
 108.3  24.7256  31.1128 i
 108.35  23.8268  31.115 i
 108.4  23.2879  31.1172 i
 108.45  31.6727  31.1193 i
 108.5  27.8009  31.1215 i
 108.55  31.0793  31.1237 i
 108.6  37.6384  31.1258 i
 108.65  28.6198  31.128 i
 108.7  22.4109  31.1301 i
 108.75  30.7733  31.1323 i
 108.8  32.7054  31.1344 i
 108.85  23.3563  31.1365 i
 108.9  28.6506  31.1387 i
 108.95  29.5244  31.1408 i
 109  34.757  31.1429 i
 109.05  23.834  31.145 i
 109.1  34.6695  31.1471 i
 109.15  42.8421  31.1492 i
 109.2  38.2365  31.1513 i
 109.25  37.2833  31.1534 i
 109.3  30.9802  31.1555 i
 109.35  38.9439  31.1576 i
 109.4  36.4939  31.1597 i
 109.45  19.5085  31.1617 i
 109.5  40.3349  31.1638 i
 109.55  27.8713  31.1659 i
 109.6  38.2935  31.1679 i
 109.65  34.9251  31.17 i
 109.7  32.1224  31.172 i
 109.75  28.6206  31.174 i
 109.8  24.1501  31.1761 i
 109.85  27.36  31.1781 i
 109.9  25.2803  31.1801 i
 109.95  36.0257  31.1822 i
 110  26.4752  31.1842 i
 110.05  27.6665  31.1862 i
 110.1  36.6578  31.1882 i
 110.15  25.1155  31.1902 i
 110.2  30.7021  31.1922 i
 110.25  37.6514  31.1942 i
 110.3  20.5358  31.1962 i
 110.35  34.6298  31.1982 i
 110.4  21.3912  31.2002 i
 110.45  35.5146  31.2021 i
 110.5  28.685  31.2041 i
 110.55  28.9955  31.2061 i
 110.6  15.0284  31.208 i
 110.65  22.8096  31.21 i
 110.7  34.2341  31.2119 i
 110.75  32.2049  31.2139 i
 110.8  34.1931  31.2158 i
 110.85  36.6209  31.2178 i
 110.9  44.6155  31.2197 i
 110.95  25.3971  31.2216 i
 111  37.8916  31.2236 i
 111.05  34.3463  31.2255 i
 111.1  20.2953  31.2274 i
 111.15  38.9504  31.2293 i
 111.2  34.259  31.2312 i
 111.25  25.9922  31.2331 i
 111.3  28.705  31.235 i
 111.35  30.9761  31.2369 i
 111.4  28.4137  31.2388 i
 111.45  32.1019  31.2407 i
 111.5  25.7493  31.2426 i
 111.55  12.9785  31.2444 i
 111.6  26.4031  31.2463 i
 111.65  33.0084  31.2482 i
 111.7  31.9115  31.25 i
 111.75  33.9445  31.2519 i
 111.8  23.0336  31.2538 i
 111.85  31.9009  31.2556 i
 111.9  34.7549  31.2575 i
 111.95  24.9991  31.2593 i
 112  26.0709  31.2612 i
 112.05  22.6419  31.263 i
 112.1  31.1457  31.2648 i
 112.15  31.8968  31.2666 i
 112.2  31.0514  31.2685 i
 112.25  31.404  31.2703 i
 112.3  21.7486  31.2721 i
 112.35  31.3795  31.2739 i
 112.4  23.4629  31.2757 i
 112.45  26.2762  31.2775 i
 112.5  27.6488  31.2793 i
 112.55  31.4121  31.2811 i
 112.6  33.1484  31.2829 i
 112.65  30.7852  31.2847 i
 112.7  30.5693  31.2865 i
 112.75  30.1699  31.2883 i
 112.8  25.5044  31.2901 i
 112.85  33.0399  31.2918 i
 112.9  27.6423  31.2936 i
 112.95  32.3311  31.2954 i
 113  37.8278  31.2971 i
 113.05  25.6658  31.2989 i
 113.1  32.8365  31.3006 i
 113.15  32.557  31.3024 i
 113.2  29.4857  31.3041 i
 113.25  33.8951  31.3059 i
 113.3  47.3372  31.3076 i
 113.35  35.0248  31.3094 i
 113.4  31.3913  31.3111 i
 113.45  29.5805  31.3128 i
 113.5  33.4443  31.3146 i
 113.55  27.2632  31.3163 i
 113.6  28.482  31.318 i
 113.65  30.069  31.3197 i
 113.7  28.6897  31.3214 i
 113.75  40.8144  31.3231 i
 113.8  25.5573  31.3248 i
 113.85  29.2149  31.3266 i
 113.9  34.9874  31.3283 i
 113.95  35.7982  31.3299 i
 114  35.8494  31.3316 i
 114.05  36.521  31.3333 i
 114.1  36.0452  31.335 i
 114.15  30.4147  31.3367 i
 114.2  23.229  31.3384 i
 114.25  25.9045  31.3401 i
 114.3  29.9803  31.3417 i
 114.35  32.2881  31.3434 i
 114.4  24.9127  31.3451 i
 114.45  43.0524  31.3467 i
 114.5  29.776  31.3484 i
 114.55  31.2641  31.35 i
 114.6  30.4324  31.3517 i
 114.65  28.5292  31.3534 i
 114.7  27.8649  31.355 i
 114.75  25.6179  31.3566 i
 114.8  26.8884  31.3583 i
 114.85  31.7634  31.3599 i
 114.9  25.6432  31.3616 i
 114.95  36.6152  31.3632 i
 115  32.6927  31.3648 i
 115.05  27.348  31.3665 i
 115.1  42.9874  31.3681 i
 115.15  29.0172  31.3697 i
 115.2  41.6281  31.3713 i
 115.25  30.8596  31.3729 i
 115.3  36.8494  31.3745 i
 115.35  36.2771  31.3762 i
 115.4  33.6016  31.3778 i
 115.45  41.1473  31.3794 i
 115.5  39.9525  31.381 i
 115.55  54.0838  31.3826 i
 115.6  50.0109  31.3842 i
 115.65  41.9684  31.3858 i
 115.7  68.419  31.3873 i
 115.75  87.2745  31.3889 i
 115.8  82.9255  31.3905 i
 115.85  93.8812  31.3921 i
 115.9  109.475  31.3937 i
 115.95  102.894  31.3953 i
 116  101.046  31.3968 i
 116.05  89.0036  31.3984 i
 116.1  77.2307  31.4 i
 116.15  64.8604  31.4015 i
 116.2  59.0346  31.4031 i
 116.25  51.3947  31.4047 i
 116.3  49.4105  31.4062 i
 116.35  34.2978  31.4078 i
 116.4  45.2132  31.4093 i
 116.45  31.9799  31.4109 i
 116.5  41.3841  31.4124 i
 116.55  35.3809  31.414 i
 116.6  32.4825  31.4155 i
 116.65  30.301  31.4171 i
 116.7  35.5023  31.4186 i
 116.75  43.4434  31.4201 i
 116.8  29.3524  31.4217 i
 116.85  37.6672  31.4232 i
 116.9  28.3644  31.4247 i
 116.95  32.6981  31.4263 i
 117  38.2624  31.4278 i
 117.05  37.7919  31.4293 i
 117.1  34.0875  31.4309 i
 117.15  37.0611  31.4324 i
 117.2  41.3429  31.4339 i
 117.25  37.4144  31.4354 i
 117.3  29.5256  31.4369 i
 117.35  29.748  31.4384 i
 117.4  27.9439  31.4399 i
 117.45  22.2721  31.4414 i
 117.5  31.2497  31.443 i
 117.55  36.1227  31.4445 i
 117.6  32.4432  31.446 i
 117.65  35.9148  31.4475 i
 117.7  35.0492  31.449 i
 117.75  28.649  31.4504 i
 117.8  31.3177  31.4519 i
 117.85  41.8547  31.4534 i
 117.9  30.2033  31.4549 i
 117.95  39.3192  31.4564 i
 118  34.1025  31.4579 i
 118.05  30.3375  31.4594 i
 118.1  29.1348  31.4609 i
 118.15  25.5635  31.4623 i
 118.2  32.4712  31.4638 i
 118.25  45.5611  31.4653 i
 118.3  32.2705  31.4668 i
 118.35  35.8226  31.4682 i
 118.4  26.1484  31.4697 i
 118.45  25.6281  31.4712 i
 118.5  31.7183  31.4727 i
 118.55  22.3543  31.4741 i
 118.6  19.0288  31.4756 i
 118.65  41.9202  31.4771 i
 118.7  25.9107  31.4785 i
 118.75  25.2864  31.48 i
 118.8  36.8822  31.4814 i
 118.85  29.9725  31.4829 i
 118.9  30.195  31.4843 i
 118.95  18.6657  31.4858 i
 119  30.4547  31.4873 i
 119.05  33.492  31.4887 i
 119.1  21.9685  31.4902 i
 119.15  28.1088  31.4916 i
 119.2  27.2655  31.4931 i
 119.25  27.2455  31.4945 i
 119.3  20.4133  31.4959 i
 119.35  35.4464  31.4974 i
 119.4  30.2571  31.4988 i
 119.45  35.4604  31.5003 i
 119.5  32.9284  31.5017 i
 119.55  32.9706  31.5031 i
 119.6  28.1129  31.5046 i
 119.65  37.936  31.506 i
 119.7  28.0067  31.5074 i
 119.75  35.0161  31.5089 i
 119.8  24.6493  31.5103 i
 119.85  26.9572  31.5117 i
 119.9  21.6164  31.5132 i
 119.95  32.4895  31.5146 i
 120  29.5459  31.516 i
 120.05  30.7166  31.5175 i
 120.1  25.9023  31.5189 i
 120.15  34.0824  31.5203 i
 120.2  35.1449  31.5217 i
 120.25  35.3974  31.5231 i
 120.3  41.968  31.5246 i
 120.35  30.3363  31.526 i
 120.4  24.5259  31.5274 i
 120.45  27.9184  31.5288 i
 120.5  27.1235  31.5302 i
 120.55  21.6705  31.5317 i
 120.6  26.7927  31.5331 i
 120.65  29.4254  31.5345 i
 120.7  30.943  31.5359 i
 120.75  33.3183  31.5373 i
 120.8  32.5712  31.5387 i
 120.85  31.5323  31.5401 i
 120.9  33.5668  31.5415 i
 120.95  31.0591  31.5429 i
 121  34.5544  31.5444 i
 121.05  30.1377  31.5458 i
 121.1  28.6428  31.5472 i
 121.15  23.8618  31.5486 i
 121.2  36.9749  31.55 i
 121.25  27.6257  31.5514 i
 121.3  27.337  31.5528 i
 121.35  31.5701  31.5542 i
 121.4  28.0657  31.5556 i
 121.45  32.355  31.557 i
 121.5  28.2736  31.5584 i
 121.55  29.9806  31.5598 i
 121.6  33.0401  31.5612 i
 121.65  30.774  31.5626 i
 121.7  28.2456  31.564 i
 121.75  29.9864  31.5654 i
 121.8  24.4384  31.5668 i
 121.85  30.6023  31.5682 i
 121.9  36.9381  31.5696 i
 121.95  30.6832  31.571 i
 122  32.2639  31.5724 i
 122.05  32.267  31.5738 i
 122.1  18.864  31.5752 i
 122.15  31.1555  31.5766 i
 122.2  31.5737  31.578 i
 122.25  33.4007  31.5794 i
 122.3  29.1426  31.5808 i
 122.35  39.603  31.5822 i
 122.4  32.6029  31.5836 i
 122.45  29.0963  31.5849 i
 122.5  32.4757  31.5863 i
 122.55  24.7377  31.5877 i
 122.6  29.4606  31.5891 i
 122.65  35.3524  31.5905 i
 122.7  36.0581  31.5919 i
 122.75  20.7955  31.5933 i
 122.8  35.5718  31.5947 i
 122.85  37.2181  31.5961 i
 122.9  37.5512  31.5975 i
 122.95  37.1207  31.5989 i
 123  33.3838  31.6003 i
 123.05  32.9329  31.6017 i
 123.1  34.2255  31.6031 i
 123.15  29.554  31.6045 i
 123.2  33.2409  31.6059 i
 123.25  39.4044  31.6072 i
 123.3  33.4958  31.6086 i
 123.35  28.1361  31.61 i
 123.4  30.2448  31.6114 i
 123.45  20.7403  31.6128 i
 123.5  32.7434  31.6142 i
 123.55  23.9314  31.6156 i
 123.6  27.2929  31.617 i
 123.65  31.2048  31.6184 i
 123.7  34.0787  31.6198 i
 123.75  32.4896  31.6212 i
 123.8  29.5466  31.6226 i
 123.85  36.1099  31.624 i
 123.9  42.392  31.6254 i
 123.95  31.7634  31.6268 i
 124  29.301  31.6282 i
 124.05  26.2092  31.6296 i
 124.1  28.6066  31.631 i
 124.15  26.3878  31.6324 i
 124.2  41.0753  31.6338 i
 124.25  26.5126  31.6352 i
 124.3  25.2987  31.6366 i
 124.35  31.066  31.638 i
 124.4  25.273  31.6394 i
 124.45  29.0605  31.6408 i
 124.5  30.5664  31.6422 i
 124.55  26.4755  31.6436 i
 124.6  42.1765  31.645 i
 124.65  28.7187  31.6464 i
 124.7  32.2367  31.6478 i
 124.75  36.3512  31.6492 i
 124.8  26.2708  31.6506 i
 124.85  26.4635  31.652 i
 124.9  38.5908  31.6534 i
 124.95  43.3843  31.6548 i
 125  26.1098  31.6562 i
 125.05  36.032  31.6576 i
 125.1  31.2781  31.659 i
 125.15  33.0854  31.6604 i
 125.2  29.4553  31.6618 i
 125.25  27.8909  31.6633 i
 125.3  26.6036  31.6647 i
 125.35  32.4503  31.6661 i
 125.4  25.5421  31.6675 i
 125.45  27.0961  31.6689 i
 125.5  33.0216  31.6703 i
 125.55  33.5824  31.6717 i
 125.6  26.5165  31.6732 i
 125.65  32.5833  31.6746 i
 125.7  22.7467  31.676 i
 125.75  34.1726  31.6774 i
 125.8  20.1403  31.6788 i
 125.85  30.3211  31.6803 i
 125.9  27.8594  31.6817 i
 125.95  24.3589  31.6831 i
 126  33.9867  31.6845 i
 126.05  22.4012  31.686 i
 126.1  30.5936  31.6874 i
 126.15  29.8227  31.6888 i
 126.2  25.3968  31.6903 i
 126.25  39.9681  31.6917 i
 126.3  29.6595  31.6931 i
 126.35  31.3668  31.6946 i
 126.4  36.6043  31.696 i
 126.45  28.7576  31.6974 i
 126.5  28.6985  31.6989 i
 126.55  34.501  31.7003 i
 126.6  33.0464  31.7018 i
 126.65  29.0575  31.7032 i
 126.7  24.4668  31.7046 i
 126.75  30.8111  31.7061 i
 126.8  34.9943  31.7075 i
 126.85  26.4599  31.709 i
 126.9  33.2128  31.7104 i
 126.95  35.2708  31.7119 i
 127  33.601  31.7133 i
 127.05  27.2159  31.7148 i
 127.1  34.3094  31.7162 i
 127.15  21.4434  31.7177 i
 127.2  24.4776  31.7191 i
 127.25  35.6697  31.7206 i
 127.3  39.3669  31.7221 i
 127.35  31.0778  31.7235 i
 127.4  20.5839  31.725 i
 127.45  47.3919  31.7265 i
 127.5  41.4316  31.7279 i
 127.55  19.9053  31.7294 i
 127.6  40.4927  31.7309 i
 127.65  42.2542  31.7323 i
 127.7  39.1829  31.7338 i
 127.75  31.3975  31.7353 i
 127.8  28.4898  31.7368 i
 127.85  22.7292  31.7382 i
 127.9  29.8441  31.7397 i
 127.95  36.7247  31.7412 i
 128  34.4122  31.7427 i
 128.05  29.2508  31.7442 i
 128.1  29.988  31.7457 i
 128.15  41.4279  31.7472 i
 128.2  31.543  31.7487 i
 128.25  32.574  31.7501 i
 128.3  38.677  31.7516 i
 128.35  25.9854  31.7531 i
 128.4  31.3475  31.7546 i
 128.45  39.117  31.7561 i
 128.5  24.2184  31.7576 i
 128.55  29.8625  31.7592 i
 128.6  29.4369  31.7607 i
 128.65  25.1444  31.7622 i
 128.7  32.0295  31.7637 i
 128.75  29.566  31.7652 i
 128.8  22.1094  31.7667 i
 128.85  31.5897  31.7682 i
 128.9  25.1151  31.7698 i
 128.95  23.7295  31.7713 i
 129  34.0974  31.7728 i
 129.05  28.2289  31.7743 i
 129.1  36.5945  31.7759 i
 129.15  31.9385  31.7774 i
 129.2  37.1152  31.7789 i
 129.25  29.2997  31.7805 i
 129.3  31.8212  31.782 i
 129.35  29.0208  31.7835 i
 129.4  19.7078  31.7851 i
 129.45  27.1898  31.7866 i
 129.5  35.9388  31.7882 i
 129.55  21.8171  31.7897 i
 129.6  29.7603  31.7913 i
 129.65  25.459  31.7928 i
 129.7  28.7524  31.7944 i
 129.75  30.0029  31.796 i
 129.8  34.3542  31.7975 i
 129.85  31.4646  31.7991 i
 129.9  32.1575  31.8007 i
 129.95  22.4804  31.8022 i
 130  17.3401  31.8038 i

