
#Surface 0 of 1 surfaces

#IsoCurve 0, 1801 points
#x y z type
 40  41.6084  0 i
 40.05  41.3732  0 i
 40.1  39.3909  0 i
 40.15  34.0527  0 i
 40.2  51.7072  0 i
 40.25  33.3644  0 i
 40.3  34.1208  0 i
 40.35  45.0854  0 i
 40.4  43.718  0 i
 40.45  40.0726  0 i
 40.5  42.4308  0 i
 40.55  32.6221  0 i
 40.6  49.6135  0 i
 40.65  44.5603  0 i
 40.7  40.4635  0 i
 40.75  45.8025  0 i
 40.8  40.2386  0 i
 40.85  41.2022  0 i
 40.9  36.0483  0 i
 40.95  32.6445  0 i
 41  36.4433  0 i
 41.05  41.9755  0 i
 41.1  43.1043  0 i
 41.15  44.7385  0 i
 41.2  33.2086  0 i
 41.25  41.0334  0 i
 41.3  49.2402  0 i
 41.35  51.1746  0 i
 41.4  39.9609  0 i
 41.45  36.6537  0 i
 41.5  35.5346  0 i
 41.55  39.5538  0 i
 41.6  48.349  0 i
 41.65  29.2995  0 i
 41.7  27.8307  0 i
 41.75  19.7892  0 i
 41.8  39.0971  0 i
 41.85  39.5082  0 i
 41.9  45.424  0 i
 41.95  41.5289  0 i
 42  50.649  0 i
 42.05  41.1252  0 i
 42.1  45.5129  0 i
 42.15  31.7323  0 i
 42.2  40.5881  0 i
 42.25  36.6979  0 i
 42.3  48.874  0 i
 42.35  33.1446  0 i
 42.4  35.3835  0 i
 42.45  44.4612  0 i
 42.5  36.1546  0 i
 42.55  31.6656  0 i
 42.6  45.8615  0 i
 42.65  44.1566  0 i
 42.7  44.6732  0 i
 42.75  33.1598  0 i
 42.8  44.4974  0 i
 42.85  28.963  0 i
 42.9  30.5308  0 i
 42.95  39.2837  0 i
 43  37.9898  0 i
 43.05  55.4978  0 i
 43.1  42.4278  0 i
 43.15  44.4926  0 i
 43.2  31.4849  0 i
 43.25  48.1052  0 i
 43.3  31.905  0 i
 43.35  38.4255  0 i
 43.4  33.6195  0 i
 43.45  45.6728  0 i
 43.5  31.6897  0 i
 43.55  43.0563  0 i
 43.6  48.0764  0 i
 43.65  47.1378  0 i
 43.7  42.6213  0 i
 43.75  32.8943  0 i
 43.8  52.7252  0 i
 43.85  47.2311  0 i
 43.9  46.9354  0 i
 43.95  70.6801  0 i
 44  74.1863  0 i
 44.05  66.6794  0 i
 44.1  64.9795  0 i
 44.15  81.3858  0 i
 44.2  150.226  0 i
 44.25  376.568  0 i
 44.3  1176.38  0 i
 44.35  2125.24  0 i
 44.4  2237.7  0 i
 44.45  1419.81  0 i
 44.5  485.294  0 i
 44.55  170.71  0 i
 44.6  98.3437  0 i
 44.65  85.3971  0 i
 44.7  54.8194  0 i
 44.75  43.8562  0 i
 44.8  38.7618  0 i
 44.85  37.2706  0 i
 44.9  44.7852  0 i
 44.95  44.982  0 i
 45  38.4591  0 i
 45.05  39.367  0 i
 45.1  49.4569  0 i
 45.15  32.8633  0 i
 45.2  33.874  0 i
 45.25  21.7433  0 i
 45.3  48.3717  0 i
 45.35  31.8629  0 i
 45.4  40.0403  0 i
 45.45  49.4561  0 i
 45.5  34.2525  0 i
 45.55  38.7812  0 i
 45.6  34.0433  0 i
 45.65  43.7335  0 i
 45.7  44.9794  0 i
 45.75  45.6456  0 i
 45.8  37.8456  0 i
 45.85  39.6877  0 i
 45.9  43.9338  0 i
 45.95  36.9527  0 i
 46  30.6545  0 i
 46.05  35.4624  0 i
 46.1  30.6217  0 i
 46.15  40.2788  0 i
 46.2  39.9403  0 i
 46.25  32.5798  0 i
 46.3  48.2729  0 i
 46.35  32.2396  0 i
 46.4  42.5938  0 i
 46.45  34.3645  0 i
 46.5  36.2828  0 i
 46.55  37.8232  0 i
 46.6  34.2768  0 i
 46.65  39.3162  0 i
 46.7  39.2707  0 i
 46.75  42.3558  0 i
 46.8  34.6439  0 i
 46.85  52.0943  0 i
 46.9  24.6823  0 i
 46.95  40.214  0 i
 47  31.5665  0 i
 47.05  39.6051  0 i
 47.1  32.9351  0 i
 47.15  40.2737  0 i
 47.2  39.8947  0 i
 47.25  29.0729  0 i
 47.3  34.9177  0 i
 47.35  39.6427  0 i
 47.4  32.5465  0 i
 47.45  31.2291  0 i
 47.5  43.5661  0 i
 47.55  34.0716  0 i
 47.6  42.5466  0 i
 47.65  40.6622  0 i
 47.7  37.5218  0 i
 47.75  44.2992  0 i
 47.8  30.3641  0 i
 47.85  27.0784  0 i
 47.9  29.9244  0 i
 47.95  32.0346  0 i
 48  40.6769  0 i
 48.05  36.375  0 i
 48.1  27.9455  0 i
 48.15  35.4625  0 i
 48.2  35.7628  0 i
 48.25  26.6587  0 i
 48.3  34.0419  0 i
 48.35  32.4406  0 i
 48.4  31.2902  0 i
 48.45  27.5802  0 i
 48.5  34.6311  0 i
 48.55  33.251  0 i
 48.6  33.3363  0 i
 48.65  27.5308  0 i
 48.7  30.7076  0 i
 48.75  27.6453  0 i
 48.8  31.3686  0 i
 48.85  29.8665  0 i
 48.9  31.5104  0 i
 48.95  26.9305  0 i
 49  37.448  0 i
 49.05  36.5054  0 i
 49.1  32.694  0 i
 49.15  36.5226  0 i
 49.2  36.0171  0 i
 49.25  38.2943  0 i
 49.3  30.7379  0 i
 49.35  25.5615  0 i
 49.4  34.8263  0 i
 49.45  32.3919  0 i
 49.5  38.5315  0 i
 49.55  35.7423  0 i
 49.6  30.3529  0 i
 49.65  25.9672  0 i
 49.7  36.9647  0 i
 49.75  29.8381  0 i
 49.8  36.175  0 i
 49.85  35.3538  0 i
 49.9  35.8182  0 i
 49.95  34.792  0 i
 50  36.8928  0 i
 50.05  32.3026  0 i
 50.1  33.5798  0 i
 50.15  36.4026  0 i
 50.2  42.8186  0 i
 50.25  26.9869  0 i
 50.3  36.1098  0 i
 50.35  29.6708  0 i
 50.4  41.6269  0 i
 50.45  32.4383  0 i
 50.5  33.5443  0 i
 50.55  26.5475  0 i
 50.6  25.6701  0 i
 50.65  35.2966  0 i
 50.7  37.4436  0 i
 50.75  28.8811  0 i
 50.8  30.1124  0 i
 50.85  31.8498  0 i
 50.9  36.1034  0 i
 50.95  31.1568  0 i
 51  36.8522  0 i
 51.05  34.9804  0 i
 51.1  34.5539  0 i
 51.15  30.612  0 i
 51.2  29.7128  0 i
 51.25  34.4746  0 i
 51.3  32.7038  0 i
 51.35  43.2338  0 i
 51.4  35.951  0 i
 51.45  25.5565  0 i
 51.5  32.5962  0 i
 51.55  29.5283  0 i
 51.6  41.7575  0 i
 51.65  28.7212  0 i
 51.7  32.7505  0 i
 51.75  37.4678  0 i
 51.8  29.2324  0 i
 51.85  35.8018  0 i
 51.9  37.4341  0 i
 51.95  31.8479  0 i
 52  31.3392  0 i
 52.05  23.6367  0 i
 52.1  36.1856  0 i
 52.15  37.5864  0 i
 52.2  34.9565  0 i
 52.25  30.8759  0 i
 52.3  27.9912  0 i
 52.35  44.8349  0 i
 52.4  40.752  0 i
 52.45  34.7856  0 i
 52.5  28.1156  0 i
 52.55  21.8877  0 i
 52.6  36.1442  0 i
 52.65  30.0584  0 i
 52.7  40.6256  0 i
 52.75  31.2672  0 i
 52.8  36.7473  0 i
 52.85  40.4143  0 i
 52.9  36.0099  0 i
 52.95  29.9881  0 i
 53  39.5637  0 i
 53.05  33.7139  0 i
 53.1  40.3993  0 i
 53.15  22.2934  0 i
 53.2  27.119  0 i
 53.25  36.3166  0 i
 53.3  39.5547  0 i
 53.35  41.8443  0 i
 53.4  29.8669  0 i
 53.45  26.3083  0 i
 53.5  37.5069  0 i
 53.55  40.8804  0 i
 53.6  44.3989  0 i
 53.65  37.1141  0 i
 53.7  29.5546  0 i
 53.75  39.3135  0 i
 53.8  35.8435  0 i
 53.85  33.7535  0 i
 53.9  30.3921  0 i
 53.95  47.7411  0 i
 54  35.4753  0 i
 54.05  24.6692  0 i
 54.1  24.2083  0 i
 54.15  42.985  0 i
 54.2  36.717  0 i
 54.25  29.8044  0 i
 54.3  39.8791  0 i
 54.35  36.3204  0 i
 54.4  26.2844  0 i
 54.45  38.8124  0 i
 54.5  38.8555  0 i
 54.55  33.7408  0 i
 54.6  24.6629  0 i
 54.65  36.34  0 i
 54.7  31.3363  0 i
 54.75  35.3815  0 i
 54.8  45.1305  0 i
 54.85  34.2042  0 i
 54.9  28.5223  0 i
 54.95  29.1352  0 i
 55  24.7142  0 i
 55.05  27.0637  0 i
 55.1  31.6593  0 i
 55.15  25.8823  0 i
 55.2  35.9296  0 i
 55.25  30.6827  0 i
 55.3  34.1786  0 i
 55.35  28.7846  0 i
 55.4  30.5124  0 i
 55.45  26.2568  0 i
 55.5  32.907  0 i
 55.55  38.8337  0 i
 55.6  27.9007  0 i
 55.65  32.0035  0 i
 55.7  36.1147  0 i
 55.75  28.7252  0 i
 55.8  31.8276  0 i
 55.85  36.6478  0 i
 55.9  28.0024  0 i
 55.95  42.319  0 i
 56  23.9941  0 i
 56.05  23.6528  0 i
 56.1  33.0344  0 i
 56.15  33.1007  0 i
 56.2  25.7224  0 i
 56.25  30.333  0 i
 56.3  27.7884  0 i
 56.35  34.5143  0 i
 56.4  28.4045  0 i
 56.45  37.1411  0 i
 56.5  29.761  0 i
 56.55  26.5528  0 i
 56.6  25.7184  0 i
 56.65  35.6753  0 i
 56.7  27.5086  0 i
 56.75  26.6668  0 i
 56.8  28.9872  0 i
 56.85  28.2053  0 i
 56.9  34.535  0 i
 56.95  35.5042  0 i
 57  33.0633  0 i
 57.05  23.2405  0 i
 57.1  37.3672  0 i
 57.15  28.8716  0 i
 57.2  26.7943  0 i
 57.25  51.8745  0 i
 57.3  35.3474  0 i
 57.35  44.4673  0 i
 57.4  27.205  0 i
 57.45  31.7855  0 i
 57.5  31.2934  0 i
 57.55  36.3987  0 i
 57.6  36.5852  0 i
 57.65  27.4936  0 i
 57.7  34.4512  0 i
 57.75  25.8637  0 i
 57.8  28.0485  0 i
 57.85  42.5958  0 i
 57.9  24.6058  0 i
 57.95  35.0072  0 i
 58  33.2947  0 i
 58.05  34.9257  0 i
 58.1  30.7559  0 i
 58.15  33.2937  0 i
 58.2  32.5195  0 i
 58.25  25.5668  0 i
 58.3  53.1351  0 i
 58.35  37.6681  0 i
 58.4  25.0988  0 i
 58.45  35.306  0 i
 58.5  42.37  0 i
 58.55  30.0062  0 i
 58.6  32.5741  0 i
 58.65  29.8894  0 i
 58.7  36.9825  0 i
 58.75  35.4351  0 i
 58.8  26.0324  0 i
 58.85  31.3606  0 i
 58.9  34.7068  0 i
 58.95  38.8602  0 i
 59  23.3608  0 i
 59.05  29.769  0 i
 59.1  29.0499  0 i
 59.15  23.2812  0 i
 59.2  27.596  0 i
 59.25  22.6309  0 i
 59.3  37.2614  0 i
 59.35  37.8284  0 i
 59.4  29.9732  0 i
 59.45  37.7582  0 i
 59.5  30.4312  0 i
 59.55  35.4816  0 i
 59.6  17.4863  0 i
 59.65  26.9577  0 i
 59.7  23.7976  0 i
 59.75  39.9011  0 i
 59.8  32.993  0 i
 59.85  26.3621  0 i
 59.9  27.7983  0 i
 59.95  43.0712  0 i
 60  29.7433  0 i
 60.05  31.7427  0 i
 60.1  32.4569  0 i
 60.15  33.7768  0 i
 60.2  31.8266  0 i
 60.25  27.4707  0 i
 60.3  30.6791  0 i
 60.35  37.1501  0 i
 60.4  30.5166  0 i
 60.45  35.2961  0 i
 60.5  30.4946  0 i
 60.55  29.7558  0 i
 60.6  35.675  0 i
 60.65  24.0867  0 i
 60.7  35.5964  0 i
 60.75  25.636  0 i
 60.8  29.3176  0 i
 60.85  33.6448  0 i
 60.9  24.2772  0 i
 60.95  38.6417  0 i
 61  36.9295  0 i
 61.05  29.2766  0 i
 61.1  26.6075  0 i
 61.15  41.7082  0 i
 61.2  25.7478  0 i
 61.25  32.6478  0 i
 61.3  34.9372  0 i
 61.35  34.9189  0 i
 61.4  33.3919  0 i
 61.45  27.6001  0 i
 61.5  39.8313  0 i
 61.55  29.1  0 i
 61.6  41.7374  0 i
 61.65  35.7375  0 i
 61.7  36.6209  0 i
 61.75  27.8887  0 i
 61.8  26.624  0 i
 61.85  28.0196  0 i
 61.9  25.9929  0 i
 61.95  28.3846  0 i
 62  30.3868  0 i
 62.05  34.7987  0 i
 62.1  38.8054  0 i
 62.15  26.9374  0 i
 62.2  35.0321  0 i
 62.25  36.4363  0 i
 62.3  33.3199  0 i
 62.35  29.703  0 i
 62.4  22.9192  0 i
 62.45  24.8715  0 i
 62.5  23.0244  0 i
 62.55  31.017  0 i
 62.6  23.5667  0 i
 62.65  26.7321  0 i
 62.7  41.5016  0 i
 62.75  26.0933  0 i
 62.8  25.8752  0 i
 62.85  30.8239  0 i
 62.9  31.1195  0 i
 62.95  27.1884  0 i
 63  31.4263  0 i
 63.05  22.4271  0 i
 63.1  29.5474  0 i
 63.15  34.0986  0 i
 63.2  25.7118  0 i
 63.25  32.3382  0 i
 63.3  34.7091  0 i
 63.35  24.1904  0 i
 63.4  25.4425  0 i
 63.45  33.5671  0 i
 63.5  32.0383  0 i
 63.55  29.9195  0 i
 63.6  37.4505  0 i
 63.65  24.193  0 i
 63.7  38.1754  0 i
 63.75  38.17  0 i
 63.8  34.4012  0 i
 63.85  36.0748  0 i
 63.9  27.1138  0 i
 63.95  38.9373  0 i
 64  36.4862  0 i
 64.05  29.6073  0 i
 64.1  33.9087  0 i
 64.15  33.1947  0 i
 64.2  38.0862  0 i
 64.25  30.2259  0 i
 64.3  39.8883  0 i
 64.35  35.0789  0 i
 64.4  48.0717  0 i
 64.45  45.5889  0 i
 64.5  38.7363  0 i
 64.55  82.3671  0 i
 64.6  106.416  0 i
 64.65  152.064  0 i
 64.7  134.677  0 i
 64.75  142.399  0 i
 64.8  92.3866  0 i
 64.85  67.594  0 i
 64.9  50.1016  0 i
 64.95  50.2698  0 i
 65  35.5159  0 i
 65.05  39.7805  0 i
 65.1  32.6055  0 i
 65.15  34.8729  0 i
 65.2  28.9411  0 i
 65.25  34.0167  0 i
 65.3  36.353  0 i
 65.35  24.4744  0 i
 65.4  27.0023  0 i
 65.45  27.5786  0 i
 65.5  44.2984  0 i
 65.55  35.6389  0 i
 65.6  33.8379  0 i
 65.65  32.6677  0 i
 65.7  34.7995  0 i
 65.75  28.2297  0 i
 65.8  37.0371  0 i
 65.85  29.3031  0 i
 65.9  27.0775  0 i
 65.95  31.7293  0 i
 66  27.0806  0 i
 66.05  40.1874  0 i
 66.1  27.557  0 i
 66.15  23.8  0 i
 66.2  29.7807  0 i
 66.25  35.3076  0 i
 66.3  29.3104  0 i
 66.35  22.4553  0 i
 66.4  31.3279  0 i
 66.45  20.5439  0 i
 66.5  33.1616  0 i
 66.55  35.2661  0 i
 66.6  39.5402  0 i
 66.65  31.1266  0 i
 66.7  26.652  0 i
 66.75  25.9676  0 i
 66.8  25.4939  0 i
 66.85  28.1748  0 i
 66.9  26.4945  0 i
 66.95  33.7127  0 i
 67  24.6035  0 i
 67.05  32.5254  0 i
 67.1  29.7708  0 i
 67.15  21.9513  0 i
 67.2  33.9225  0 i
 67.25  39.7626  0 i
 67.3  34.403  0 i
 67.35  41.7119  0 i
 67.4  39.1309  0 i
 67.45  43.086  0 i
 67.5  40.3331  0 i
 67.55  30.8099  0 i
 67.6  32.8912  0 i
 67.65  27.3287  0 i
 67.7  32.9462  0 i
 67.75  29.0814  0 i
 67.8  28.9922  0 i
 67.85  30.8621  0 i
 67.9  29.6968  0 i
 67.95  23.1593  0 i
 68  37.237  0 i
 68.05  47.3029  0 i
 68.1  36.5204  0 i
 68.15  22.8699  0 i
 68.2  27.0532  0 i
 68.25  30.0186  0 i
 68.3  29.3976  0 i
 68.35  36.1608  0 i
 68.4  38.1949  0 i
 68.45  25.113  0 i
 68.5  31.2606  0 i
 68.55  24.0944  0 i
 68.6  35.8155  0 i
 68.65  28.0562  0 i
 68.7  29.9524  0 i
 68.75  33.2882  0 i
 68.8  31.9122  0 i
 68.85  38.8314  0 i
 68.9  23.4926  0 i
 68.95  23.2675  0 i
 69  26.387  0 i
 69.05  36.1197  0 i
 69.1  32.2208  0 i
 69.15  32.6059  0 i
 69.2  25.9057  0 i
 69.25  32.1185  0 i
 69.3  31.1064  0 i
 69.35  34.9794  0 i
 69.4  33.745  0 i
 69.45  23.6497  0 i
 69.5  33.0123  0 i
 69.55  26.5557  0 i
 69.6  33.0254  0 i
 69.65  33.1165  0 i
 69.7  35.0427  0 i
 69.75  27.5498  0 i
 69.8  35.0384  0 i
 69.85  36.7104  0 i
 69.9  32.9632  0 i
 69.95  31.4947  0 i
 70  27.4657  0 i
 70.05  33.1267  0 i
 70.1  38.0005  0 i
 70.15  31.8719  0 i
 70.2  37.2753  0 i
 70.25  34.3637  0 i
 70.3  23.7566  0 i
 70.35  28.1673  0 i
 70.4  37.4067  0 i
 70.45  22.9688  0 i
 70.5  31.928  0 i
 70.55  44.3868  0 i
 70.6  31.201  0 i
 70.65  28.5096  0 i
 70.7  24.3057  0 i
 70.75  37.0427  0 i
 70.8  34.2611  0 i
 70.85  30.085  0 i
 70.9  27.4105  0 i
 70.95  28.6587  0 i
 71  28.4602  0 i
 71.05  28.6236  0 i
 71.1  26.8723  0 i
 71.15  22.3872  0 i
 71.2  33.4735  0 i
 71.25  32.1809  0 i
 71.3  24.7927  0 i
 71.35  44.6924  0 i
 71.4  28.3844  0 i
 71.45  28.1466  0 i
 71.5  33.4366  0 i
 71.55  30.2427  0 i
 71.6  23.8291  0 i
 71.65  33.3372  0 i
 71.7  25.7  0 i
 71.75  27.607  0 i
 71.8  19.1621  0 i
 71.85  31.1641  0 i
 71.9  27.5936  0 i
 71.95  23.6766  0 i
 72  32.5618  0 i
 72.05  25.8804  0 i
 72.1  26.7042  0 i
 72.15  24.0798  0 i
 72.2  27.2905  0 i
 72.25  42.8731  0 i
 72.3  26.896  0 i
 72.35  27.4317  0 i
 72.4  38.0354  0 i
 72.45  30.8234  0 i
 72.5  38.2014  0 i
 72.55  30.708  0 i
 72.6  31.526  0 i
 72.65  27.1002  0 i
 72.7  22.8975  0 i
 72.75  36.7321  0 i
 72.8  33.3501  0 i
 72.85  32.3059  0 i
 72.9  26.2356  0 i
 72.95  22.718  0 i
 73  37.7827  0 i
 73.05  23.7533  0 i
 73.1  42.2704  0 i
 73.15  25.0225  0 i
 73.2  31.1921  0 i
 73.25  35.3926  0 i
 73.3  38.2661  0 i
 73.35  38.7191  0 i
 73.4  28.473  0 i
 73.45  23.7529  0 i
 73.5  25.1527  0 i
 73.55  24.6372  0 i
 73.6  25.6533  0 i
 73.65  36.8527  0 i
 73.7  32.0129  0 i
 73.75  28.0983  0 i
 73.8  39.7044  0 i
 73.85  43.94  0 i
 73.9  22.5243  0 i
 73.95  19.6907  0 i
 74  24.0012  0 i
 74.05  32.2986  0 i
 74.1  29.3505  0 i
 74.15  31.8068  0 i
 74.2  26.4025  0 i
 74.25  45.0339  0 i
 74.3  22.2783  0 i
 74.35  24.3233  0 i
 74.4  32.2941  0 i
 74.45  22.8238  0 i
 74.5  35.2499  0 i
 74.55  26.6881  0 i
 74.6  40.2591  0 i
 74.65  32.833  0 i
 74.7  30.7079  0 i
 74.75  28.5221  0 i
 74.8  31.8476  0 i
 74.85  37.3846  0 i
 74.9  33.8253  0 i
 74.95  31.377  0 i
 75  17.452  0 i
 75.05  20.0884  0 i
 75.1  29.4392  0 i
 75.15  29.437  0 i
 75.2  44.8091  0 i
 75.25  30.8462  0 i
 75.3  29.6844  0 i
 75.35  40.4989  0 i
 75.4  17.7371  0 i
 75.45  26.4333  0 i
 75.5  34.0073  0 i
 75.55  45.7495  0 i
 75.6  34.7307  0 i
 75.65  37.3557  0 i
 75.7  32.8451  0 i
 75.75  22.7641  0 i
 75.8  35.6716  0 i
 75.85  38.005  0 i
 75.9  41.2669  0 i
 75.95  33.3903  0 i
 76  23.9079  0 i
 76.05  27.1995  0 i
 76.1  39.0923  0 i
 76.15  37.9874  0 i
 76.2  34.3316  0 i
 76.25  21.1496  0 i
 76.3  31.2007  0 i
 76.35  41.0046  0 i
 76.4  24.5626  0 i
 76.45  25.0687  0 i
 76.5  33.8069  0 i
 76.55  38.3092  0 i
 76.6  30.3616  0 i
 76.65  25.4398  0 i
 76.7  23.7072  0 i
 76.75  37.6505  0 i
 76.8  31.2224  0 i
 76.85  23.6278  0 i
 76.9  30.5046  0 i
 76.95  30.4192  0 i
 77  30.5685  0 i
 77.05  39.2029  0 i
 77.1  29.8671  0 i
 77.15  32.0944  0 i
 77.2  28.5695  0 i
 77.25  39.8286  0 i
 77.3  37.5007  0 i
 77.35  28.487  0 i
 77.4  41.7761  0 i
 77.45  25.6955  0 i
 77.5  19.1317  0 i
 77.55  38.7281  0 i
 77.6  23.6798  0 i
 77.65  36.0339  0 i
 77.7  30.4979  0 i
 77.75  29.8373  0 i
 77.8  34.0671  0 i
 77.85  29.7456  0 i
 77.9  28.5961  0 i
 77.95  38.2694  0 i
 78  21.7657  0 i
 78.05  31.0815  0 i
 78.1  20.2366  0 i
 78.15  34.9638  0 i
 78.2  26.2727  0 i
 78.25  20.9621  0 i
 78.3  37.597  0 i
 78.35  37.6739  0 i
 78.4  34.9575  0 i
 78.45  35.8858  0 i
 78.5  27.7306  0 i
 78.55  26.8447  0 i
 78.6  28.0987  0 i
 78.65  28.2653  0 i
 78.7  24.0096  0 i
 78.75  27.8296  0 i
 78.8  37.5258  0 i
 78.85  29.6115  0 i
 78.9  44.0383  0 i
 78.95  21.1929  0 i
 79  36.6742  0 i
 79.05  28.2846  0 i
 79.1  22.2677  0 i
 79.15  25.7594  0 i
 79.2  29.271  0 i
 79.25  34.0159  0 i
 79.3  24.1482  0 i
 79.35  23.1673  0 i
 79.4  23.3847  0 i
 79.45  42.7234  0 i
 79.5  35.824  0 i
 79.55  34.1676  0 i
 79.6  40.2284  0 i
 79.65  48.5436  0 i
 79.7  34.3593  0 i
 79.75  33.4347  0 i
 79.8  31.9402  0 i
 79.85  32.4671  0 i
 79.9  27.6694  0 i
 79.95  32.5838  0 i
 80  25.718  0 i
 80.05  34.5542  0 i
 80.1  38.044  0 i
 80.15  30.4233  0 i
 80.2  36.4507  0 i
 80.25  17.5662  0 i
 80.3  33.9652  0 i
 80.35  27.7507  0 i
 80.4  32.6927  0 i
 80.45  36.2733  0 i
 80.5  33.9893  0 i
 80.55  25.5229  0 i
 80.6  32.9544  0 i
 80.65  40.8675  0 i
 80.7  36.5894  0 i
 80.75  33.0876  0 i
 80.8  32.8633  0 i
 80.85  30.6866  0 i
 80.9  31.9295  0 i
 80.95  29.2801  0 i
 81  31.614  0 i
 81.05  31.8201  0 i
 81.1  30.2072  0 i
 81.15  43.7933  0 i
 81.2  38.4246  0 i
 81.25  39.8368  0 i
 81.3  29.5264  0 i
 81.35  37.2121  0 i
 81.4  36.9564  0 i
 81.45  43.7653  0 i
 81.5  25.3464  0 i
 81.55  51.2119  0 i
 81.6  44.0111  0 i
 81.65  38.7607  0 i
 81.7  52.4286  0 i
 81.75  44.1043  0 i
 81.8  66.8045  0 i
 81.85  143.056  0 i
 81.9  216.233  0 i
 81.95  290.645  0 i
 82  274.756  0 i
 82.05  207.807  0 i
 82.1  129.966  0 i
 82.15  79.5738  0 i
 82.2  64.4115  0 i
 82.25  54.252  0 i
 82.3  33.1205  0 i
 82.35  43.6581  0 i
 82.4  24.6954  0 i
 82.45  31.8331  0 i
 82.5  22.5217  0 i
 82.55  20.1836  0 i
 82.6  40.2041  0 i
 82.65  22.3341  0 i
 82.7  24.3962  0 i
 82.75  19.6983  0 i
 82.8  23.1572  0 i
 82.85  35.149  0 i
 82.9  38.6991  0 i
 82.95  35.1143  0 i
 83  42.9279  0 i
 83.05  24.2767  0 i
 83.1  27.2717  0 i
 83.15  27.1694  0 i
 83.2  35.8198  0 i
 83.25  36.1682  0 i
 83.3  37.571  0 i
 83.35  33.4148  0 i
 83.4  33.7032  0 i
 83.45  29.5694  0 i
 83.5  39.2797  0 i
 83.55  36.8067  0 i
 83.6  31.5973  0 i
 83.65  18.2166  0 i
 83.7  40.201  0 i
 83.75  27.6781  0 i
 83.8  24.9246  0 i
 83.85  24.8401  0 i
 83.9  26.6431  0 i
 83.95  24.3893  0 i
 84  27.0661  0 i
 84.05  26.0495  0 i
 84.1  33.6444  0 i
 84.15  30.5446  0 i
 84.2  21.6652  0 i
 84.25  26.4036  0 i
 84.3  29.7713  0 i
 84.35  36.8453  0 i
 84.4  38.8515  0 i
 84.45  32.2095  0 i
 84.5  46.3439  0 i
 84.55  21.7261  0 i
 84.6  24.2856  0 i
 84.65  26.9825  0 i
 84.7  39.4781  0 i
 84.75  30.3616  0 i
 84.8  39.7477  0 i
 84.85  25.2328  0 i
 84.9  31.4426  0 i
 84.95  29.0026  0 i
 85  30.5465  0 i
 85.05  23.1526  0 i
 85.1  28.1398  0 i
 85.15  25.3889  0 i
 85.2  24.076  0 i
 85.25  22.7587  0 i
 85.3  36.3941  0 i
 85.35  33.6634  0 i
 85.4  31.7419  0 i
 85.45  31.5708  0 i
 85.5  30.6729  0 i
 85.55  21.7551  0 i
 85.6  30.3932  0 i
 85.65  33.0183  0 i
 85.7  26.872  0 i
 85.75  35.8831  0 i
 85.8  33.0391  0 i
 85.85  34.5091  0 i
 85.9  28.9544  0 i
 85.95  29.9431  0 i
 86  31.0234  0 i
 86.05  36.4664  0 i
 86.1  34.271  0 i
 86.15  26.4279  0 i
 86.2  27.5867  0 i
 86.25  37.6704  0 i
 86.3  21.7019  0 i
 86.35  31.8972  0 i
 86.4  19.0281  0 i
 86.45  25.5928  0 i
 86.5  32.299  0 i
 86.55  30.5794  0 i
 86.6  23.9731  0 i
 86.65  26.9647  0 i
 86.7  32.6719  0 i
 86.75  32.9306  0 i
 86.8  29.0313  0 i
 86.85  19.8814  0 i
 86.9  26.3688  0 i
 86.95  32.8813  0 i
 87  23.9041  0 i
 87.05  20.4373  0 i
 87.1  30.3572  0 i
 87.15  29.5178  0 i
 87.2  33.5634  0 i
 87.25  32.1861  0 i
 87.3  32.6756  0 i
 87.35  24.5233  0 i
 87.4  23.8391  0 i
 87.45  36.8576  0 i
 87.5  25.7935  0 i
 87.55  33.6254  0 i
 87.6  33.3446  0 i
 87.65  37.8205  0 i
 87.7  33.1439  0 i
 87.75  24.8426  0 i
 87.8  30.0717  0 i
 87.85  43.4134  0 i
 87.9  37.5086  0 i
 87.95  29.9726  0 i
 88  37.8351  0 i
 88.05  37.8236  0 i
 88.1  30.6329  0 i
 88.15  28.2605  0 i
 88.2  29.2286  0 i
 88.25  19.0735  0 i
 88.3  24.1651  0 i
 88.35  33.3798  0 i
 88.4  27.4199  0 i
 88.45  38.2909  0 i
 88.5  32.1219  0 i
 88.55  32.0321  0 i
 88.6  30.2377  0 i
 88.65  27.9363  0 i
 88.7  41.3779  0 i
 88.75  29.5291  0 i
 88.8  28.1789  0 i
 88.85  27.2133  0 i
 88.9  35.5971  0 i
 88.95  24.0818  0 i
 89  25.4843  0 i
 89.05  23.7669  0 i
 89.1  29.7572  0 i
 89.15  35.854  0 i
 89.2  34.7701  0 i
 89.25  23.6223  0 i
 89.3  26.0842  0 i
 89.35  25.5294  0 i
 89.4  37.0251  0 i
 89.45  29.4882  0 i
 89.5  28.7004  0 i
 89.55  31.8712  0 i
 89.6  37.3003  0 i
 89.65  36.9079  0 i
 89.7  28.0458  0 i
 89.75  26.5898  0 i
 89.8  35.1473  0 i
 89.85  27.5608  0 i
 89.9  40.2889  0 i
 89.95  26.1956  0 i
 90  32.1435  0 i
 90.05  27.3358  0 i
 90.1  27.5323  0 i
 90.15  27.1154  0 i
 90.2  36.8002  0 i
 90.25  38.5687  0 i
 90.3  42.3208  0 i
 90.35  31.1253  0 i
 90.4  27.4038  0 i
 90.45  38.9739  0 i
 90.5  23.2891  0 i
 90.55  23.9966  0 i
 90.6  35.7662  0 i
 90.65  33.0172  0 i
 90.7  32.2544  0 i
 90.75  33.6015  0 i
 90.8  27.8716  0 i
 90.85  28.1033  0 i
 90.9  29.3979  0 i
 90.95  28.9386  0 i
 91  35.2069  0 i
 91.05  43.3944  0 i
 91.1  37.3452  0 i
 91.15  37.3446  0 i
 91.2  32.1108  0 i
 91.25  37.0242  0 i
 91.3  24.3902  0 i
 91.35  34.2364  0 i
 91.4  36.0752  0 i
 91.45  20.2193  0 i
 91.5  38.4791  0 i
 91.55  39.8704  0 i
 91.6  24.2696  0 i
 91.65  35.7957  0 i
 91.7  30.9341  0 i
 91.75  27.9409  0 i
 91.8  16.1617  0 i
 91.85  30.7441  0 i
 91.9  27.3766  0 i
 91.95  30.2313  0 i
 92  39.2128  0 i
 92.05  30.9289  0 i
 92.1  24.4575  0 i
 92.15  42.0757  0 i
 92.2  38.4988  0 i
 92.25  34.077  0 i
 92.3  27.7554  0 i
 92.35  30.8108  0 i
 92.4  23.9773  0 i
 92.45  26.0911  0 i
 92.5  27.054  0 i
 92.55  29.8935  0 i
 92.6  26.9395  0 i
 92.65  33.6761  0 i
 92.7  34.0419  0 i
 92.75  29.1072  0 i
 92.8  30.0785  0 i
 92.85  27.8813  0 i
 92.9  28.6604  0 i
 92.95  25.1307  0 i
 93  31.6887  0 i
 93.05  38.6513  0 i
 93.1  21.9358  0 i
 93.15  37.0502  0 i
 93.2  36.8965  0 i
 93.25  29.4272  0 i
 93.3  31.0848  0 i
 93.35  26.7121  0 i
 93.4  34.0615  0 i
 93.45  37.8654  0 i
 93.5  27.5723  0 i
 93.55  29.5907  0 i
 93.6  33.2258  0 i
 93.65  35.9497  0 i
 93.7  29.1955  0 i
 93.75  31.656  0 i
 93.8  36.8264  0 i
 93.85  30.7403  0 i
 93.9  28.9801  0 i
 93.95  40.9982  0 i
 94  40.4992  0 i
 94.05  33.7542  0 i
 94.1  27.6528  0 i
 94.15  29.1442  0 i
 94.2  33.7317  0 i
 94.25  35.1704  0 i
 94.3  38.2363  0 i
 94.35  37.6384  0 i
 94.4  22.0104  0 i
 94.45  35.3211  0 i
 94.5  26.2306  0 i
 94.55  36.024  0 i
 94.6  34.6447  0 i
 94.65  16.1026  0 i
 94.7  39.8686  0 i
 94.75  44.0243  0 i
 94.8  36.6945  0 i
 94.85  30.6007  0 i
 94.9  29.613  0 i
 94.95  35.4739  0 i
 95  25.0578  0 i
 95.05  35.8195  0 i
 95.1  31.4853  0 i
 95.15  26.606  0 i
 95.2  45.238  0 i
 95.25  30.3442  0 i
 95.3  28.6387  0 i
 95.35  22.3743  0 i
 95.4  24.2878  0 i
 95.45  34.9847  0 i
 95.5  23.9004  0 i
 95.55  37.6729  0 i
 95.6  26.8391  0 i
 95.65  23.1859  0 i
 95.7  28.3932  0 i
 95.75  30.3275  0 i
 95.8  27.1047  0 i
 95.85  31.8623  0 i
 95.9  23.8744  0 i
 95.95  32.8365  0 i
 96  28.1941  0 i
 96.05  37.3664  0 i
 96.1  31.3091  0 i
 96.15  34.2556  0 i
 96.2  26.9418  0 i
 96.25  19.7194  0 i
 96.3  29.0873  0 i
 96.35  18.7806  0 i
 96.4  38.8943  0 i
 96.45  28.8404  0 i
 96.5  34.4553  0 i
 96.55  31.0414  0 i
 96.6  41.9798  0 i
 96.65  18.2111  0 i
 96.7  30.3064  0 i
 96.75  29.0169  0 i
 96.8  34.3027  0 i
 96.85  37.4338  0 i
 96.9  28.5233  0 i
 96.95  33.9341  0 i
 97  26.9105  0 i
 97.05  31.8734  0 i
 97.1  35.753  0 i
 97.15  30.4285  0 i
 97.2  36.5373  0 i
 97.25  31.3921  0 i
 97.3  28.4247  0 i
 97.35  29.1377  0 i
 97.4  31.7244  0 i
 97.45  30.3743  0 i
 97.5  38.0119  0 i
 97.55  26.9417  0 i
 97.6  37.8759  0 i
 97.65  33.8959  0 i
 97.7  33.5212  0 i
 97.75  34.8924  0 i
 97.8  22.9637  0 i
 97.85  38.7239  0 i
 97.9  39.1241  0 i
 97.95  31.8859  0 i
 98  34.044  0 i
 98.05  32.7828  0 i
 98.1  39.2913  0 i
 98.15  36.103  0 i
 98.2  32.3918  0 i
 98.25  37.4701  0 i
 98.3  54.7013  0 i
 98.35  54.6695  0 i
 98.4  87.767  0 i
 98.45  96.0635  0 i
 98.5  142.273  0 i
 98.55  175.164  0 i
 98.6  149.935  0 i
 98.65  78.8086  0 i
 98.7  71.1582  0 i
 98.75  58.9832  0 i
 98.8  56.3164  0 i
 98.85  51.4275  0 i
 98.9  31.3937  0 i
 98.95  32.5308  0 i
 99  28.9617  0 i
 99.05  30.6196  0 i
 99.1  25.8141  0 i
 99.15  37.2089  0 i
 99.2  30.5847  0 i
 99.25  29.8272  0 i
 99.3  28.2052  0 i
 99.35  28.0686  0 i
 99.4  26.4244  0 i
 99.45  40.463  0 i
 99.5  32.8978  0 i
 99.55  33.6425  0 i
 99.6  33.6728  0 i
 99.65  36.4417  0 i
 99.7  33.0097  0 i
 99.75  27.9993  0 i
 99.8  30.7787  0 i
 99.85  34.2843  0 i
 99.9  28.6698  0 i
 99.95  33.2344  0 i
 100  28.367  0 i
 100.05  25.018  0 i
 100.1  33.0768  0 i
 100.15  34.3151  0 i
 100.2  37.4853  0 i
 100.25  29.244  0 i
 100.3  30.6468  0 i
 100.35  28.3451  0 i
 100.4  20.4901  0 i
 100.45  37.7685  0 i
 100.5  30.7137  0 i
 100.55  26.5569  0 i
 100.6  26.6792  0 i
 100.65  20.9182  0 i
 100.7  24.9869  0 i
 100.75  38.4795  0 i
 100.8  18.9526  0 i
 100.85  21.8757  0 i
 100.9  31.0708  0 i
 100.95  33.5035  0 i
 101  25.5673  0 i
 101.05  34.7274  0 i
 101.1  29.6385  0 i
 101.15  35.2055  0 i
 101.2  27.5036  0 i
 101.25  29.6971  0 i
 101.3  30.0597  0 i
 101.35  31.2118  0 i
 101.4  30.3939  0 i
 101.45  31.9284  0 i
 101.5  31.0182  0 i
 101.55  21.3678  0 i
 101.6  29.7257  0 i
 101.65  35.3418  0 i
 101.7  27.2216  0 i
 101.75  23.161  0 i
 101.8  23.666  0 i
 101.85  33.0992  0 i
 101.9  28.6353  0 i
 101.95  18.5523  0 i
 102  26.3693  0 i
 102.05  23.9937  0 i
 102.1  30.8358  0 i
 102.15  30.5364  0 i
 102.2  42.0305  0 i
 102.25  31.1821  0 i
 102.3  33.9749  0 i
 102.35  24.6443  0 i
 102.4  26.6436  0 i
 102.45  24.4435  0 i
 102.5  32.6033  0 i
 102.55  23.3981  0 i
 102.6  33.556  0 i
 102.65  25.8949  0 i
 102.7  21.88  0 i
 102.75  29.8878  0 i
 102.8  41.1506  0 i
 102.85  30.6503  0 i
 102.9  20.8556  0 i
 102.95  40.604  0 i
 103  34.3555  0 i
 103.05  32.5981  0 i
 103.1  26.503  0 i
 103.15  32.8507  0 i
 103.2  30.3143  0 i
 103.25  34.0786  0 i
 103.3  35.5484  0 i
 103.35  31.3486  0 i
 103.4  27.9573  0 i
 103.45  31.5736  0 i
 103.5  34.8346  0 i
 103.55  27.9009  0 i
 103.6  27.3008  0 i
 103.65  28.3029  0 i
 103.7  38.0814  0 i
 103.75  29.4334  0 i
 103.8  22.3232  0 i
 103.85  22.8946  0 i
 103.9  24.9668  0 i
 103.95  31.4525  0 i
 104  19.6575  0 i
 104.05  28.2642  0 i
 104.1  27.8788  0 i
 104.15  35.6017  0 i
 104.2  31.7745  0 i
 104.25  19.4315  0 i
 104.3  25.4406  0 i
 104.35  28.7715  0 i
 104.4  33.7288  0 i
 104.45  42.3907  0 i
 104.5  29.3539  0 i
 104.55  27.3638  0 i
 104.6  27.6306  0 i
 104.65  35.6325  0 i
 104.7  33.3477  0 i
 104.75  31.448  0 i
 104.8  35.1378  0 i
 104.85  28.4487  0 i
 104.9  31.5716  0 i
 104.95  19.5073  0 i
 105  14.1261  0 i
 105.05  37.1874  0 i
 105.1  29.9586  0 i
 105.15  24.3348  0 i
 105.2  27.9106  0 i
 105.25  36.7571  0 i
 105.3  31.5485  0 i
 105.35  29.2946  0 i
 105.4  22.7331  0 i
 105.45  33.5263  0 i
 105.5  33.5231  0 i
 105.55  32.4912  0 i
 105.6  32.3324  0 i
 105.65  25.4126  0 i
 105.7  25.0207  0 i
 105.75  29.7852  0 i
 105.8  29.9864  0 i
 105.85  27.4835  0 i
 105.9  32.1259  0 i
 105.95  23.8425  0 i
 106  34.5792  0 i
 106.05  25.1896  0 i
 106.1  24.7179  0 i
 106.15  32.7138  0 i
 106.2  30.2593  0 i
 106.25  25.6181  0 i
 106.3  35.9896  0 i
 106.35  30.8692  0 i
 106.4  34.4048  0 i
 106.45  25.9694  0 i
 106.5  28.007  0 i
 106.55  28.7102  0 i
 106.6  36.5156  0 i
 106.65  34.401  0 i
 106.7  40.8385  0 i
 106.75  34.8208  0 i
 106.8  36.971  0 i
 106.85  37.5486  0 i
 106.9  31.5452  0 i
 106.95  34.3296  0 i
 107  25.4439  0 i
 107.05  27.1328  0 i
 107.1  26.3332  0 i
 107.15  20.9965  0 i
 107.2  22.7355  0 i
 107.25  30.9622  0 i
 107.3  39.2024  0 i
 107.35  26.8666  0 i
 107.4  23.1226  0 i
 107.45  31.0539  0 i
 107.5  37.0226  0 i
 107.55  31.929  0 i
 107.6  26.6498  0 i
 107.65  22.2174  0 i
 107.7  22.1043  0 i
 107.75  32.7708  0 i
 107.8  29.9189  0 i
 107.85  28.3623  0 i
 107.9  37.554  0 i
 107.95  42.3227  0 i
 108  35.7263  0 i
 108.05  35.857  0 i
 108.1  32.5386  0 i
 108.15  22.7473  0 i
 108.2  29.4415  0 i
 108.25  39.5908  0 i
 108.3  24.7256  0 i
 108.35  23.8268  0 i
 108.4  23.2879  0 i
 108.45  31.6727  0 i
 108.5  27.8009  0 i
 108.55  31.0793  0 i
 108.6  37.6384  0 i
 108.65  28.6198  0 i
 108.7  22.4109  0 i
 108.75  30.7733  0 i
 108.8  32.7054  0 i
 108.85  23.3563  0 i
 108.9  28.6506  0 i
 108.95  29.5244  0 i
 109  34.757  0 i
 109.05  23.834  0 i
 109.1  34.6695  0 i
 109.15  42.8421  0 i
 109.2  38.2365  0 i
 109.25  37.2833  0 i
 109.3  30.9802  0 i
 109.35  38.9439  0 i
 109.4  36.4939  0 i
 109.45  19.5085  0 i
 109.5  40.3349  0 i
 109.55  27.8713  0 i
 109.6  38.2935  0 i
 109.65  34.9251  0 i
 109.7  32.1224  0 i
 109.75  28.6206  0 i
 109.8  24.1501  0 i
 109.85  27.36  0 i
 109.9  25.2803  0 i
 109.95  36.0257  0 i
 110  26.4752  0 i
 110.05  27.6665  0 i
 110.1  36.6578  0 i
 110.15  25.1155  0 i
 110.2  30.7021  0 i
 110.25  37.6514  0 i
 110.3  20.5358  0 i
 110.35  34.6298  0 i
 110.4  21.3912  0 i
 110.45  35.5146  0 i
 110.5  28.685  0 i
 110.55  28.9955  0 i
 110.6  15.0284  0 i
 110.65  22.8096  0 i
 110.7  34.2341  0 i
 110.75  32.2049  0 i
 110.8  34.1931  0 i
 110.85  36.6209  0 i
 110.9  44.6155  0 i
 110.95  25.3971  0 i
 111  37.8916  0 i
 111.05  34.3463  0 i
 111.1  20.2953  0 i
 111.15  38.9504  0 i
 111.2  34.259  0 i
 111.25  25.9922  0 i
 111.3  28.705  0 i
 111.35  30.9761  0 i
 111.4  28.4137  0 i
 111.45  32.1019  0 i
 111.5  25.7493  0 i
 111.55  12.9785  0 i
 111.6  26.4031  0 i
 111.65  33.0084  0 i
 111.7  31.9115  0 i
 111.75  33.9445  0 i
 111.8  23.0336  0 i
 111.85  31.9009  0 i
 111.9  34.7549  0 i
 111.95  24.9991  0 i
 112  26.0709  0 i
 112.05  22.6419  0 i
 112.1  31.1457  0 i
 112.15  31.8968  0 i
 112.2  31.0514  0 i
 112.25  31.404  0 i
 112.3  21.7486  0 i
 112.35  31.3795  0 i
 112.4  23.4629  0 i
 112.45  26.2762  0 i
 112.5  27.6488  0 i
 112.55  31.4121  0 i
 112.6  33.1484  0 i
 112.65  30.7852  0 i
 112.7  30.5693  0 i
 112.75  30.1699  0 i
 112.8  25.5044  0 i
 112.85  33.0399  0 i
 112.9  27.6423  0 i
 112.95  32.3311  0 i
 113  37.8278  0 i
 113.05  25.6658  0 i
 113.1  32.8365  0 i
 113.15  32.557  0 i
 113.2  29.4857  0 i
 113.25  33.8951  0 i
 113.3  47.3372  0 i
 113.35  35.0248  0 i
 113.4  31.3913  0 i
 113.45  29.5805  0 i
 113.5  33.4443  0 i
 113.55  27.2632  0 i
 113.6  28.482  0 i
 113.65  30.069  0 i
 113.7  28.6897  0 i
 113.75  40.8144  0 i
 113.8  25.5573  0 i
 113.85  29.2149  0 i
 113.9  34.9874  0 i
 113.95  35.7982  0 i
 114  35.8494  0 i
 114.05  36.521  0 i
 114.1  36.0452  0 i
 114.15  30.4147  0 i
 114.2  23.229  0 i
 114.25  25.9045  0 i
 114.3  29.9803  0 i
 114.35  32.2881  0 i
 114.4  24.9127  0 i
 114.45  43.0524  0 i
 114.5  29.776  0 i
 114.55  31.2641  0 i
 114.6  30.4324  0 i
 114.65  28.5292  0 i
 114.7  27.8649  0 i
 114.75  25.6179  0 i
 114.8  26.8884  0 i
 114.85  31.7634  0 i
 114.9  25.6432  0 i
 114.95  36.6152  0 i
 115  32.6927  0 i
 115.05  27.348  0 i
 115.1  42.9874  0 i
 115.15  29.0172  0 i
 115.2  41.6281  0 i
 115.25  30.8596  0 i
 115.3  36.8494  0 i
 115.35  36.2771  0 i
 115.4  33.6016  0 i
 115.45  41.1473  0 i
 115.5  39.9525  0 i
 115.55  54.0838  0 i
 115.6  50.0109  0 i
 115.65  41.9684  0 i
 115.7  68.419  0 i
 115.75  87.2745  0 i
 115.8  82.9255  0 i
 115.85  93.8812  0 i
 115.9  109.475  0 i
 115.95  102.894  0 i
 116  101.046  0 i
 116.05  89.0036  0 i
 116.1  77.2307  0 i
 116.15  64.8604  0 i
 116.2  59.0346  0 i
 116.25  51.3947  0 i
 116.3  49.4105  0 i
 116.35  34.2978  0 i
 116.4  45.2132  0 i
 116.45  31.9799  0 i
 116.5  41.3841  0 i
 116.55  35.3809  0 i
 116.6  32.4825  0 i
 116.65  30.301  0 i
 116.7  35.5023  0 i
 116.75  43.4434  0 i
 116.8  29.3524  0 i
 116.85  37.6672  0 i
 116.9  28.3644  0 i
 116.95  32.6981  0 i
 117  38.2624  0 i
 117.05  37.7919  0 i
 117.1  34.0875  0 i
 117.15  37.0611  0 i
 117.2  41.3429  0 i
 117.25  37.4144  0 i
 117.3  29.5256  0 i
 117.35  29.748  0 i
 117.4  27.9439  0 i
 117.45  22.2721  0 i
 117.5  31.2497  0 i
 117.55  36.1227  0 i
 117.6  32.4432  0 i
 117.65  35.9148  0 i
 117.7  35.0492  0 i
 117.75  28.649  0 i
 117.8  31.3177  0 i
 117.85  41.8547  0 i
 117.9  30.2033  0 i
 117.95  39.3192  0 i
 118  34.1025  0 i
 118.05  30.3375  0 i
 118.1  29.1348  0 i
 118.15  25.5635  0 i
 118.2  32.4712  0 i
 118.25  45.5611  0 i
 118.3  32.2705  0 i
 118.35  35.8226  0 i
 118.4  26.1484  0 i
 118.45  25.6281  0 i
 118.5  31.7183  0 i
 118.55  22.3543  0 i
 118.6  19.0288  0 i
 118.65  41.9202  0 i
 118.7  25.9107  0 i
 118.75  25.2864  0 i
 118.8  36.8822  0 i
 118.85  29.9725  0 i
 118.9  30.195  0 i
 118.95  18.6657  0 i
 119  30.4547  0 i
 119.05  33.492  0 i
 119.1  21.9685  0 i
 119.15  28.1088  0 i
 119.2  27.2655  0 i
 119.25  27.2455  0 i
 119.3  20.4133  0 i
 119.35  35.4464  0 i
 119.4  30.2571  0 i
 119.45  35.4604  0 i
 119.5  32.9284  0 i
 119.55  32.9706  0 i
 119.6  28.1129  0 i
 119.65  37.936  0 i
 119.7  28.0067  0 i
 119.75  35.0161  0 i
 119.8  24.6493  0 i
 119.85  26.9572  0 i
 119.9  21.6164  0 i
 119.95  32.4895  0 i
 120  29.5459  0 i
 120.05  30.7166  0 i
 120.1  25.9023  0 i
 120.15  34.0824  0 i
 120.2  35.1449  0 i
 120.25  35.3974  0 i
 120.3  41.968  0 i
 120.35  30.3363  0 i
 120.4  24.5259  0 i
 120.45  27.9184  0 i
 120.5  27.1235  0 i
 120.55  21.6705  0 i
 120.6  26.7927  0 i
 120.65  29.4254  0 i
 120.7  30.943  0 i
 120.75  33.3183  0 i
 120.8  32.5712  0 i
 120.85  31.5323  0 i
 120.9  33.5668  0 i
 120.95  31.0591  0 i
 121  34.5544  0 i
 121.05  30.1377  0 i
 121.1  28.6428  0 i
 121.15  23.8618  0 i
 121.2  36.9749  0 i
 121.25  27.6257  0 i
 121.3  27.337  0 i
 121.35  31.5701  0 i
 121.4  28.0657  0 i
 121.45  32.355  0 i
 121.5  28.2736  0 i
 121.55  29.9806  0 i
 121.6  33.0401  0 i
 121.65  30.774  0 i
 121.7  28.2456  0 i
 121.75  29.9864  0 i
 121.8  24.4384  0 i
 121.85  30.6023  0 i
 121.9  36.9381  0 i
 121.95  30.6832  0 i
 122  32.2639  0 i
 122.05  32.267  0 i
 122.1  18.864  0 i
 122.15  31.1555  0 i
 122.2  31.5737  0 i
 122.25  33.4007  0 i
 122.3  29.1426  0 i
 122.35  39.603  0 i
 122.4  32.6029  0 i
 122.45  29.0963  0 i
 122.5  32.4757  0 i
 122.55  24.7377  0 i
 122.6  29.4606  0 i
 122.65  35.3524  0 i
 122.7  36.0581  0 i
 122.75  20.7955  0 i
 122.8  35.5718  0 i
 122.85  37.2181  0 i
 122.9  37.5512  0 i
 122.95  37.1207  0 i
 123  33.3838  0 i
 123.05  32.9329  0 i
 123.1  34.2255  0 i
 123.15  29.554  0 i
 123.2  33.2409  0 i
 123.25  39.4044  0 i
 123.3  33.4958  0 i
 123.35  28.1361  0 i
 123.4  30.2448  0 i
 123.45  20.7403  0 i
 123.5  32.7434  0 i
 123.55  23.9314  0 i
 123.6  27.2929  0 i
 123.65  31.2048  0 i
 123.7  34.0787  0 i
 123.75  32.4896  0 i
 123.8  29.5466  0 i
 123.85  36.1099  0 i
 123.9  42.392  0 i
 123.95  31.7634  0 i
 124  29.301  0 i
 124.05  26.2092  0 i
 124.1  28.6066  0 i
 124.15  26.3878  0 i
 124.2  41.0753  0 i
 124.25  26.5126  0 i
 124.3  25.2987  0 i
 124.35  31.066  0 i
 124.4  25.273  0 i
 124.45  29.0605  0 i
 124.5  30.5664  0 i
 124.55  26.4755  0 i
 124.6  42.1765  0 i
 124.65  28.7187  0 i
 124.7  32.2367  0 i
 124.75  36.3512  0 i
 124.8  26.2708  0 i
 124.85  26.4635  0 i
 124.9  38.5908  0 i
 124.95  43.3843  0 i
 125  26.1098  0 i
 125.05  36.032  0 i
 125.1  31.2781  0 i
 125.15  33.0854  0 i
 125.2  29.4553  0 i
 125.25  27.8909  0 i
 125.3  26.6036  0 i
 125.35  32.4503  0 i
 125.4  25.5421  0 i
 125.45  27.0961  0 i
 125.5  33.0216  0 i
 125.55  33.5824  0 i
 125.6  26.5165  0 i
 125.65  32.5833  0 i
 125.7  22.7467  0 i
 125.75  34.1726  0 i
 125.8  20.1403  0 i
 125.85  30.3211  0 i
 125.9  27.8594  0 i
 125.95  24.3589  0 i
 126  33.9867  0 i
 126.05  22.4012  0 i
 126.1  30.5936  0 i
 126.15  29.8227  0 i
 126.2  25.3968  0 i
 126.25  39.9681  0 i
 126.3  29.6595  0 i
 126.35  31.3668  0 i
 126.4  36.6043  0 i
 126.45  28.7576  0 i
 126.5  28.6985  0 i
 126.55  34.501  0 i
 126.6  33.0464  0 i
 126.65  29.0575  0 i
 126.7  24.4668  0 i
 126.75  30.8111  0 i
 126.8  34.9943  0 i
 126.85  26.4599  0 i
 126.9  33.2128  0 i
 126.95  35.2708  0 i
 127  33.601  0 i
 127.05  27.2159  0 i
 127.1  34.3094  0 i
 127.15  21.4434  0 i
 127.2  24.4776  0 i
 127.25  35.6697  0 i
 127.3  39.3669  0 i
 127.35  31.0778  0 i
 127.4  20.5839  0 i
 127.45  47.3919  0 i
 127.5  41.4316  0 i
 127.55  19.9053  0 i
 127.6  40.4927  0 i
 127.65  42.2542  0 i
 127.7  39.1829  0 i
 127.75  31.3975  0 i
 127.8  28.4898  0 i
 127.85  22.7292  0 i
 127.9  29.8441  0 i
 127.95  36.7247  0 i
 128  34.4122  0 i
 128.05  29.2508  0 i
 128.1  29.988  0 i
 128.15  41.4279  0 i
 128.2  31.543  0 i
 128.25  32.574  0 i
 128.3  38.677  0 i
 128.35  25.9854  0 i
 128.4  31.3475  0 i
 128.45  39.117  0 i
 128.5  24.2184  0 i
 128.55  29.8625  0 i
 128.6  29.4369  0 i
 128.65  25.1444  0 i
 128.7  32.0295  0 i
 128.75  29.566  0 i
 128.8  22.1094  0 i
 128.85  31.5897  0 i
 128.9  25.1151  0 i
 128.95  23.7295  0 i
 129  34.0974  0 i
 129.05  28.2289  0 i
 129.1  36.5945  0 i
 129.15  31.9385  0 i
 129.2  37.1152  0 i
 129.25  29.2997  0 i
 129.3  31.8212  0 i
 129.35  29.0208  0 i
 129.4  19.7078  0 i
 129.45  27.1898  0 i
 129.5  35.9388  0 i
 129.55  21.8171  0 i
 129.6  29.7603  0 i
 129.65  25.459  0 i
 129.7  28.7524  0 i
 129.75  30.0029  0 i
 129.8  34.3542  0 i
 129.85  31.4646  0 i
 129.9  32.1575  0 i
 129.95  22.4804  0 i
 130  17.3401  0 i

