
#Surface 0 of 1 surfaces

#IsoCurve 0, 1801 points
#x y z type
 40  41.6084  32.2879 i
 40.05  41.3732  32.286 i
 40.1  39.3909  32.2842 i
 40.15  34.0527  32.2823 i
 40.2  51.7072  32.2803 i
 40.25  33.3644  32.2841 i
 40.3  34.1208  32.288 i
 40.35  45.0854  32.2842 i
 40.4  43.718  32.2804 i
 40.45  40.0726  32.282 i
 40.5  42.4308  32.2837 i
 40.55  32.6221  32.2861 i
 40.6  49.6135  32.2885 i
 40.65  44.5603  32.2839 i
 40.7  40.4635  32.2813 i
 40.75  45.8025  32.2863 i
 40.8  40.2386  32.2914 i
 40.85  41.2022  32.2912 i
 40.9  36.0483  32.291 i
 40.95  32.6445  32.2902 i
 41  36.4433  32.2894 i
 41.05  41.9755  32.2961 i
 41.1  43.1043  32.3028 i
 41.15  44.7385  32.3008 i
 41.2  33.2086  32.2987 i
 41.25  41.0334  32.3027 i
 41.3  49.2402  32.3067 i
 41.35  51.1746  32.3158 i
 41.4  39.9609  32.3192 i
 41.45  36.6537  32.3178 i
 41.5  35.5346  32.3163 i
 41.55  39.5538  32.3256 i
 41.6  48.349  32.335 i
 41.65  29.2995  32.3396 i
 41.7  27.8307  32.3442 i
 41.75  19.7892  32.347 i
 41.8  39.0971  32.3498 i
 41.85  39.5082  32.3636 i
 41.9  45.424  32.3774 i
 41.95  41.5289  32.3838 i
 42  50.649  32.3855 i
 42.05  41.1252  32.3915 i
 42.1  45.5129  32.4072 i
 42.15  31.7323  32.4244 i
 42.2  40.5881  32.4416 i
 42.25  36.6979  32.4491 i
 42.3  48.874  32.4567 i
 42.35  33.1446  32.4791 i
 42.4  35.3835  32.5015 i
 42.45  44.4612  32.5231 i
 42.5  36.1546  32.5446 i
 42.55  31.6656  32.5634 i
 42.6  45.8615  32.5822 i
 42.65  44.1566  32.6182 i
 42.7  44.6732  32.6595 i
 42.75  33.1598  32.6921 i
 42.8  44.4974  32.7247 i
 42.85  28.963  32.7688 i
 42.9  30.5308  32.813 i
 42.95  39.2837  32.8804 i
 43  37.9898  32.9478 i
 43.05  55.4978  33.0134 i
 43.1  42.4278  33.0883 i
 43.15  44.4926  33.2731 i
 43.2  31.4849  33.4578 i
 43.25  48.1052  33.8132 i
 43.3  31.905  34.1685 i
 43.35  38.4255  34.3991 i
 43.4  33.6195  34.6297 i
 43.45  45.6728  34.9602 i
 43.5  31.6897  35.2908 i
 43.55  43.0563  35.7445 i
 43.6  48.0764  36.1982 i
 43.65  47.1378  36.7905 i
 43.7  42.6213  37.5401 i
 43.75  32.8943  38.642 i
 43.8  52.7252  39.7439 i
 43.85  47.2311  41.3599 i
 43.9  46.9354  43.5423 i
 43.95  70.6801  46.6419 i
 44  74.1863  51.296 i
 44.05  66.6794  58.8403 i
 44.1  64.9795  72.8475 i
 44.15  81.3858  105.595 i
 44.2  150.226  200.422 i
 44.25  376.568  472.431 i
 44.3  1176.38  1077.67 i
 44.35  2125.24  1942 i
 44.4  2237.7  2434.31 i
 44.45  1419.81  1522 i
 44.5  485.294  429.453 i
 44.55  170.71  156.109 i
 44.6  98.3437  90.9833 i
 44.65  85.3971  66.7873 i
 44.7  54.8194  54.7122 i
 44.75  43.8562  48.0652 i
 44.8  38.7618  43.9675 i
 44.85  37.2706  41.6948 i
 44.9  44.7852  39.4221 i
 44.95  44.982  38.0754 i
 45  38.4591  37.052 i
 45.05  39.367  36.3444 i
 45.1  49.4569  35.6368 i
 45.15  32.8633  35.2066 i
 45.2  33.874  34.7765 i
 45.25  21.7433  34.4712 i
 45.3  48.3717  34.166 i
 45.35  31.8629  33.9469 i
 45.4  40.0403  33.7277 i
 45.45  49.4561  33.5718 i
 45.5  34.2525  33.434 i
 45.55  38.7812  33.2834 i
 45.6  34.0433  33.1328 i
 45.65  43.7335  32.9971 i
 45.7  44.9794  32.8614 i
 45.75  45.6456  32.7951 i
 45.8  37.8456  32.7298 i
 45.85  39.6877  32.6627 i
 45.9  43.9338  32.5956 i
 45.95  36.9527  32.5535 i
 46  30.6545  32.5113 i
 46.05  35.4624  32.4741 i
 46.1  30.6217  32.4368 i
 46.15  40.2788  32.3959 i
 46.2  39.9403  32.3549 i
 46.25  32.5798  32.3335 i
 46.3  48.2729  32.3122 i
 46.35  32.2396  32.2849 i
 46.4  42.5938  32.2576 i
 46.45  34.3645  32.2319 i
 46.5  36.2828  32.2062 i
 46.55  37.8232  32.1939 i
 46.6  34.2768  32.1816 i
 46.65  39.3162  32.159 i
 46.7  39.2707  32.1364 i
 46.75  42.3558  32.1212 i
 46.8  34.6439  32.1059 i
 46.85  52.0943  32.0992 i
 46.9  24.6823  32.0873 i
 46.95  40.214  32.0683 i
 47  31.5665  32.0493 i
 47.05  39.6051  32.0411 i
 47.1  32.9351  32.0329 i
 47.15  40.2737  32.0235 i
 47.2  39.8947  32.014 i
 47.25  29.0729  31.9989 i
 47.3  34.9177  31.9839 i
 47.35  39.6427  31.9797 i
 47.4  32.5465  31.9755 i
 47.45  31.2291  31.9649 i
 47.5  43.5661  31.9543 i
 47.55  34.0716  31.9435 i
 47.6  42.5466  31.9327 i
 47.65  40.6622  31.9299 i
 47.7  37.5218  31.9271 i
 47.75  44.2992  31.9158 i
 47.8  30.3641  31.9044 i
 47.85  27.0784  31.8977 i
 47.9  29.9244  31.891 i
 47.95  32.0346  31.8877 i
 48  40.6769  31.8844 i
 48.05  36.375  31.8733 i
 48.1  27.9455  31.8622 i
 48.15  35.4625  31.8587 i
 48.2  35.7628  31.8552 i
 48.25  26.6587  31.8503 i
 48.3  34.0419  31.8453 i
 48.35  32.4406  31.8357 i
 48.4  31.2902  31.8261 i
 48.45  27.5802  31.8245 i
 48.5  34.6311  31.8228 i
 48.55  33.251  31.8161 i
 48.6  33.3363  31.8093 i
 48.65  27.5308  31.802 i
 48.7  30.7076  31.7947 i
 48.75  27.6453  31.7935 i
 48.8  31.3686  31.7924 i
 48.85  29.8665  31.7843 i
 48.9  31.5104  31.7762 i
 48.95  26.9305  31.7714 i
 49  37.448  31.7666 i
 49.05  36.5054  31.7651 i
 49.1  32.694  31.7636 i
 49.15  36.5226  31.7556 i
 49.2  36.0171  31.7476 i
 49.25  38.2943  31.7448 i
 49.3  30.7379  31.7419 i
 49.35  25.5615  31.7384 i
 49.4  34.8263  31.7348 i
 49.45  32.3919  31.7274 i
 49.5  38.5315  31.7201 i
 49.55  35.7423  31.7184 i
 49.6  30.3529  31.7168 i
 49.65  25.9672  31.7118 i
 49.7  36.9647  31.7067 i
 49.75  29.8381  31.7007 i
 49.8  36.175  31.6946 i
 49.85  35.3538  31.6933 i
 49.9  35.8182  31.692 i
 49.95  34.792  31.6859 i
 50  36.8928  31.6797 i
 50.05  32.3026  31.6753 i
 50.1  33.5798  31.6708 i
 50.15  36.4026  31.6691 i
 50.2  42.8186  31.6673 i
 50.25  26.9869  31.6606 i
 50.3  36.1098  31.6539 i
 50.35  29.6708  31.651 i
 50.4  41.6269  31.648 i
 50.45  32.4383  31.6452 i
 50.5  33.5443  31.6425 i
 50.55  26.5475  31.636 i
 50.6  25.6701  31.6295 i
 50.65  35.2966  31.6276 i
 50.7  37.4436  31.6257 i
 50.75  28.8811  31.6218 i
 50.8  30.1124  31.6178 i
 50.85  31.8498  31.612 i
 50.9  36.1034  31.6062 i
 50.95  31.1568  31.6048 i
 51  36.8522  31.6035 i
 51.05  34.9804  31.5984 i
 51.1  34.5539  31.5933 i
 51.15  30.612  31.5887 i
 51.2  29.7128  31.5841 i
 51.25  34.4746  31.5825 i
 51.3  32.7038  31.581 i
 51.35  43.2338  31.5752 i
 51.4  35.951  31.5695 i
 51.45  25.5565  31.566 i
 51.5  32.5962  31.5626 i
 51.55  29.5283  31.5604 i
 51.6  41.7575  31.5583 i
 51.65  28.7212  31.5523 i
 51.7  32.7505  31.5463 i
 51.75  37.4678  31.5439 i
 51.8  29.2324  31.5415 i
 51.85  35.8018  31.5384 i
 51.9  37.4341  31.5353 i
 51.95  31.8479  31.5296 i
 52  31.3392  31.5239 i
 52.05  23.6367  31.5222 i
 52.1  36.1856  31.5204 i
 52.15  37.5864  31.5164 i
 52.2  34.9565  31.5123 i
 52.25  30.8759  31.5073 i
 52.3  27.9912  31.5023 i
 52.35  44.8349  31.5008 i
 52.4  40.752  31.4992 i
 52.45  34.7856  31.4943 i
 52.5  28.1156  31.4894 i
 52.55  21.8877  31.4854 i
 52.6  36.1442  31.4813 i
 52.65  30.0584  31.4795 i
 52.7  40.6256  31.4777 i
 52.75  31.2672  31.4723 i
 52.8  36.7473  31.467 i
 52.85  40.4143  31.4638 i
 52.9  36.0099  31.4606 i
 52.95  29.9881  31.4583 i
 53  39.5637  31.4559 i
 53.05  33.7139  31.4504 i
 53.1  40.3993  31.4449 i
 53.15  22.2934  31.4425 i
 53.2  27.119  31.4401 i
 53.25  36.3166  31.437 i
 53.3  39.5547  31.4339 i
 53.35  41.8443  31.4287 i
 53.4  29.8669  31.4234 i
 53.45  26.3083  31.4215 i
 53.5  37.5069  31.4196 i
 53.55  40.8804  31.4158 i
 53.6  44.3989  31.4119 i
 53.65  37.1141  31.4072 i
 53.7  29.5546  31.4024 i
 53.75  39.3135  31.4007 i
 53.8  35.8435  31.399 i
 53.85  33.7535  31.3944 i
 53.9  30.3921  31.3899 i
 53.95  47.7411  31.3859 i
 54  35.4753  31.3818 i
 54.05  24.6692  31.3799 i
 54.1  24.2083  31.3781 i
 54.15  42.985  31.3731 i
 54.2  36.717  31.3681 i
 54.25  29.8044  31.3648 i
 54.3  39.8791  31.3615 i
 54.35  36.3204  31.3592 i
 54.4  26.2844  31.357 i
 54.45  38.8124  31.3518 i
 54.5  38.8555  31.3467 i
 54.55  33.7408  31.344 i
 54.6  24.6629  31.3413 i
 54.65  36.34  31.3385 i
 54.7  31.3363  31.3357 i
 54.75  35.3815  31.3306 i
 54.8  45.1305  31.3255 i
 54.85  34.2042  31.3234 i
 54.9  28.5223  31.3212 i
 54.95  29.1352  31.3177 i
 55  24.7142  31.3143 i
 55.05  27.0637  31.3096 i
 55.1  31.6593  31.3048 i
 55.15  25.8823  31.3029 i
 55.2  35.9296  31.301 i
 55.25  30.6827  31.297 i
 55.3  34.1786  31.293 i
 55.35  28.7846  31.2887 i
 55.4  30.5124  31.2844 i
 55.45  26.2568  31.2825 i
 55.5  32.907  31.2806 i
 55.55  38.8337  31.2762 i
 55.6  27.9007  31.2717 i
 55.65  32.0035  31.268 i
 55.7  36.1147  31.2642 i
 55.75  28.7252  31.2622 i
 55.8  31.8276  31.2601 i
 55.85  36.6478  31.2554 i
 55.9  28.0024  31.2506 i
 55.95  42.319  31.2474 i
 56  23.9941  31.2443 i
 56.05  23.6528  31.2419 i
 56.1  33.0344  31.2395 i
 56.15  33.1007  31.2347 i
 56.2  25.7224  31.2298 i
 56.25  30.333  31.2271 i
 56.3  27.7884  31.2244 i
 56.35  34.5143  31.2216 i
 56.4  28.4045  31.2188 i
 56.45  37.1411  31.214 i
 56.5  29.761  31.2092 i
 56.55  26.5528  31.2069 i
 56.6  25.7184  31.2046 i
 56.65  35.6753  31.2014 i
 56.7  27.5086  31.1981 i
 56.75  26.6668  31.1935 i
 56.8  28.9872  31.1889 i
 56.85  28.2053  31.1869 i
 56.9  34.535  31.1848 i
 56.95  35.5042  31.1811 i
 57  33.0633  31.1774 i
 57.05  23.2405  31.1732 i
 57.1  37.3672  31.1689 i
 57.15  28.8716  31.1669 i
 57.2  26.7943  31.165 i
 57.25  51.8745  31.1616 i
 57.3  35.3474  31.1568 i
 57.35  44.4673  31.153 i
 57.4  27.205  31.1491 i
 57.45  31.7855  31.1471 i
 57.5  31.2934  31.1451 i
 57.55  36.3987  31.1407 i
 57.6  36.5852  31.1364 i
 57.65  27.4936  31.133 i
 57.7  34.4512  31.1295 i
 57.75  25.8637  31.1274 i
 57.8  28.0485  31.1252 i
 57.85  42.5958  31.1207 i
 57.9  24.6058  31.1162 i
 57.95  35.0072  31.1132 i
 58  33.2947  31.1101 i
 58.05  34.9257  31.1077 i
 58.1  30.7559  31.1053 i
 58.15  33.2937  31.1007 i
 58.2  32.5195  31.0962 i
 58.25  25.5668  31.0935 i
 58.3  53.1351  31.0908 i
 58.35  37.6681  31.0881 i
 58.4  25.0988  31.0854 i
 58.45  35.306  31.0809 i
 58.5  42.37  31.0764 i
 58.55  30.0062  31.074 i
 58.6  32.5741  31.0716 i
 58.65  29.8894  31.0686 i
 58.7  36.9825  31.0656 i
 58.75  35.4351  31.0613 i
 58.8  26.0324  31.057 i
 58.85  31.3606  31.0548 i
 58.9  34.7068  31.0526 i
 58.95  38.8602  31.0493 i
 59  23.3608  31.0459 i
 59.05  29.769  31.0418 i
 59.1  29.0499  31.0377 i
 59.15  23.2812  31.0357 i
 59.2  27.596  31.0336 i
 59.25  22.6309  31.03 i
 59.3  37.2614  31.0265 i
 59.35  37.8284  31.0226 i
 59.4  29.9732  31.0188 i
 59.45  37.7582  31.0168 i
 59.5  30.4312  31.0147 i
 59.55  35.4816  31.011 i
 59.6  17.4863  31.0072 i
 59.65  26.9577  30.9956 i
 59.7  23.7976  30.9839 i
 59.75  39.9011  30.9801 i
 59.8  32.993  30.9763 i
 59.85  26.3621  30.9738 i
 59.9  27.7983  30.9714 i
 59.95  43.0712  30.9683 i
 60  29.7433  30.9652 i
 60.05  31.7427  30.9614 i
 60.1  32.4569  30.9577 i
 60.15  33.7768  30.9554 i
 60.2  31.8266  30.9531 i
 60.25  27.4707  30.9499 i
 60.3  30.6791  30.9466 i
 60.35  37.1501  30.943 i
 60.4  30.5166  30.9394 i
 60.45  35.2961  30.9373 i
 60.5  30.4946  30.9351 i
 60.55  29.7558  30.9318 i
 60.6  35.675  30.9284 i
 60.65  24.0867  30.925 i
 60.7  35.5964  30.9215 i
 60.75  25.636  30.9196 i
 60.8  29.3176  30.9176 i
 60.85  33.6448  30.9141 i
 60.9  24.2772  30.9106 i
 60.95  38.6417  30.9074 i
 61  36.9295  30.9042 i
 61.05  29.2766  30.9023 i
 61.1  26.6075  30.9005 i
 61.15  41.7082  30.8969 i
 61.2  25.7478  30.8934 i
 61.25  32.6478  30.8904 i
 61.3  34.9372  30.8875 i
 61.35  34.9189  30.8858 i
 61.4  33.3919  30.884 i
 61.45  27.6001  30.8805 i
 61.5  39.8313  30.8769 i
 61.55  29.1  30.8743 i
 61.6  41.7374  30.8717 i
 61.65  35.7375  30.8701 i
 61.7  36.6209  30.8686 i
 61.75  27.8887  30.865 i
 61.8  26.624  30.8615 i
 61.85  28.0196  30.8593 i
 61.9  25.9929  30.8571 i
 61.95  28.3846  30.8558 i
 62  30.3868  30.8545 i
 62.05  34.7987  30.8511 i
 62.1  38.8054  30.8477 i
 62.15  26.9374  30.846 i
 62.2  35.0321  30.8444 i
 62.25  36.4363  30.8435 i
 62.3  33.3199  30.8426 i
 62.35  29.703  30.8395 i
 62.4  22.9192  30.8365 i
 62.45  24.8715  30.8356 i
 62.5  23.0244  30.8347 i
 62.55  31.017  30.8345 i
 62.6  23.5667  30.8342 i
 62.65  26.7321  30.8319 i
 62.7  41.5016  30.8295 i
 62.75  26.0933  30.8299 i
 62.8  25.8752  30.8303 i
 62.85  30.8239  30.8314 i
 62.9  31.1195  30.8325 i
 62.95  27.1884  30.8317 i
 63  31.4263  30.8308 i
 63.05  22.4271  30.8337 i
 63.1  29.5474  30.8366 i
 63.15  34.0986  30.8409 i
 63.2  25.7118  30.8451 i
 63.25  32.3382  30.849 i
 63.3  34.7091  30.8528 i
 63.35  24.1904  30.866 i
 63.4  25.4425  30.8793 i
 63.45  33.5671  30.911 i
 63.5  32.0383  30.9428 i
 63.55  29.9195  30.976 i
 63.6  37.4505  31.0092 i
 63.65  24.193  31.0448 i
 63.7  38.1754  31.0803 i
 63.75  38.17  31.1274 i
 63.8  34.4012  31.1744 i
 63.85  36.0748  31.2396 i
 63.9  27.1138  31.3049 i
 63.95  38.9373  31.4136 i
 64  36.4862  31.5224 i
 64.05  29.6073  31.7063 i
 64.1  33.9087  31.8903 i
 64.15  33.1947  32.231 i
 64.2  38.0862  32.5717 i
 64.25  30.2259  33.3273 i
 64.3  39.8883  34.0828 i
 64.35  35.0789  36.1553 i
 64.4  48.0717  38.2277 i
 64.45  45.5889  43.2379 i
 64.5  38.7363  53.3168 i
 64.55  82.3671  73.4636 i
 64.6  106.416  106.389 i
 64.65  152.064  144.674 i
 64.7  134.677  161.591 i
 64.75  142.399  137.594 i
 64.8  92.3866  94.6796 i
 64.85  67.594  63.3087 i
 64.9  50.1016  47.4195 i
 64.95  50.2698  39.9843 i
 65  35.5159  36.3148 i
 65.05  39.7805  34.7613 i
 65.1  32.6055  33.2077 i
 65.15  34.8729  32.6295 i
 65.2  28.9411  32.0513 i
 65.25  34.0167  31.7889 i
 65.3  36.353  31.5266 i
 65.35  24.4744  31.3816 i
 65.4  27.0023  31.2365 i
 65.45  27.5786  31.1503 i
 65.5  44.2984  31.064 i
 65.55  35.6389  31.0121 i
 65.6  33.8379  30.9601 i
 65.65  32.6677  30.9198 i
 65.7  34.7995  30.8794 i
 65.75  28.2297  30.8488 i
 65.8  37.0371  30.8182 i
 65.85  29.3031  30.7922 i
 65.9  27.0775  30.7663 i
 65.95  31.7293  30.7414 i
 66  27.0806  30.7164 i
 66.05  40.1874  30.7014 i
 66.1  27.557  30.6863 i
 66.15  23.8  30.6784 i
 66.2  29.7807  30.6706 i
 66.25  35.3076  30.6606 i
 66.3  29.3104  30.6507 i
 66.35  22.4553  30.6423 i
 66.4  31.3279  30.6338 i
 66.45  20.5439  30.6296 i
 66.5  33.1616  30.6253 i
 66.55  35.2661  30.6183 i
 66.6  39.5402  30.6113 i
 66.65  31.1266  30.605 i
 66.7  26.652  30.5986 i
 66.75  25.9676  30.5958 i
 66.8  25.4939  30.5929 i
 66.85  28.1748  30.5873 i
 66.9  26.4945  30.5817 i
 66.95  33.7127  30.5764 i
 67  24.6035  30.5712 i
 67.05  32.5254  30.569 i
 67.1  29.7708  30.5668 i
 67.15  21.9513  30.562 i
 67.2  33.9225  30.5572 i
 67.25  39.7626  30.5525 i
 67.3  34.403  30.5479 i
 67.35  41.7119  30.5461 i
 67.4  39.1309  30.5442 i
 67.45  43.086  30.5399 i
 67.5  40.3331  30.5357 i
 67.55  30.8099  30.5314 i
 67.6  32.8912  30.5272 i
 67.65  27.3287  30.5255 i
 67.7  32.9462  30.5239 i
 67.75  29.0814  30.52 i
 67.8  28.9922  30.516 i
 67.85  30.8621  30.512 i
 67.9  29.6968  30.508 i
 67.95  23.1593  30.5065 i
 68  37.237  30.505 i
 68.05  47.3029  30.5022 i
 68.1  36.5204  30.4978 i
 68.15  22.8699  30.4939 i
 68.2  27.0532  30.4901 i
 68.25  30.0186  30.4887 i
 68.3  29.3976  30.4872 i
 68.35  36.1608  30.4838 i
 68.4  38.1949  30.4804 i
 68.45  25.113  30.4767 i
 68.5  31.2606  30.473 i
 68.55  24.0944  30.4716 i
 68.6  35.8155  30.4702 i
 68.65  28.0562  30.4671 i
 68.7  29.9524  30.4639 i
 68.75  33.2882  30.4602 i
 68.8  31.9122  30.4566 i
 68.85  38.8314  30.4552 i
 68.9  23.4926  30.4539 i
 68.95  23.2675  30.4509 i
 69  26.387  30.4479 i
 69.05  36.1197  30.4443 i
 69.1  32.2208  30.4408 i
 69.15  32.6059  30.4394 i
 69.2  25.9057  30.4381 i
 69.25  32.1185  30.4353 i
 69.3  31.1064  30.4325 i
 69.35  34.9794  30.429 i
 69.4  33.745  30.4254 i
 69.45  23.6497  30.4241 i
 69.5  33.0123  30.4227 i
 69.55  26.5557  30.4201 i
 69.6  33.0254  30.4175 i
 69.65  33.1165  30.414 i
 69.7  35.0427  30.4105 i
 69.75  27.5498  30.4091 i
 69.8  35.0384  30.4078 i
 69.85  36.7104  30.4054 i
 69.9  32.9632  30.403 i
 69.95  31.4947  30.3995 i
 70  27.4657  30.396 i
 70.05  33.1267  30.3946 i
 70.1  38.0005  30.3932 i
 70.15  31.8719  30.391 i
 70.2  37.2753  30.3888 i
 70.25  34.3637  30.3853 i
 70.3  23.7566  30.3819 i
 70.35  28.1673  30.3805 i
 70.4  37.4067  30.379 i
 70.45  22.9688  30.377 i
 70.5  31.928  30.375 i
 70.55  44.3868  30.3716 i
 70.6  31.201  30.3681 i
 70.65  28.5096  30.3666 i
 70.7  24.3057  30.3652 i
 70.75  37.0427  30.3633 i
 70.8  34.2611  30.3615 i
 70.85  30.085  30.3581 i
 70.9  27.4105  30.3547 i
 70.95  28.6587  30.3532 i
 71  28.4602  30.3516 i
 71.05  28.6236  30.35 i
 71.1  26.8723  30.3484 i
 71.15  22.3872  30.3451 i
 71.2  33.4735  30.3417 i
 71.25  32.1809  30.3401 i
 71.3  24.7927  30.3384 i
 71.35  44.6924  30.337 i
 71.4  28.3844  30.3356 i
 71.45  28.1466  30.3323 i
 71.5  33.4366  30.3291 i
 71.55  30.2427  30.3273 i
 71.6  23.8291  30.3255 i
 71.65  33.3372  30.3243 i
 71.7  25.7  30.3231 i
 71.75  27.607  30.3199 i
 71.8  19.1621  30.3168 i
 71.85  31.1641  30.3149 i
 71.9  27.5936  30.3129 i
 71.95  23.6766  30.3119 i
 72  32.5618  30.3108 i
 72.05  25.8804  30.3079 i
 72.1  26.7042  30.3049 i
 72.15  24.0798  30.3028 i
 72.2  27.2905  30.3007 i
 72.25  42.8731  30.2998 i
 72.3  26.896  30.2989 i
 72.35  27.4317  30.2961 i
 72.4  38.0354  30.2933 i
 72.45  30.8234  30.2911 i
 72.5  38.2014  30.2888 i
 72.55  30.708  30.288 i
 72.6  31.526  30.2873 i
 72.65  27.1002  30.2847 i
 72.7  22.8975  30.2822 i
 72.75  36.7321  30.2797 i
 72.8  33.3501  30.2773 i
 72.85  32.3059  30.2766 i
 72.9  26.2356  30.2759 i
 72.95  22.718  30.2736 i
 73  37.7827  30.2713 i
 73.05  23.7533  30.2688 i
 73.1  42.2704  30.2662 i
 73.15  25.0225  30.2655 i
 73.2  31.1921  30.2648 i
 73.25  35.3926  30.2629 i
 73.3  38.2661  30.2609 i
 73.35  38.7191  30.2582 i
 73.4  28.473  30.2555 i
 73.45  23.7529  30.2547 i
 73.5  25.1527  30.254 i
 73.55  24.6372  30.2524 i
 73.6  25.6533  30.2508 i
 73.65  36.8527  30.248 i
 73.7  32.0129  30.2452 i
 73.75  28.0983  30.2444 i
 73.8  39.7044  30.2435 i
 73.85  43.94  30.2429 i
 73.9  22.5243  30.241 i
 73.95  19.6907  30.2382 i
 74  24.0012  30.2353 i
 74.05  32.2986  30.2343 i
 74.1  29.3505  30.2333 i
 74.15  31.8068  30.2324 i
 74.2  26.4025  30.2315 i
 74.25  45.0339  30.2287 i
 74.3  22.2783  30.226 i
 74.35  24.3233  30.2247 i
 74.4  32.2941  30.2235 i
 74.45  22.8238  30.2229 i
 74.5  35.2499  30.2223 i
 74.55  26.6881  30.2197 i
 74.6  40.2591  30.2171 i
 74.65  32.833  30.2156 i
 74.7  30.7079  30.2141 i
 74.75  28.5221  30.2138 i
 74.8  31.8476  30.2134 i
 74.85  37.3846  30.2111 i
 74.9  33.8253  30.2087 i
 74.95  31.377  30.2069 i
 75  17.452  30.2051 i
 75.05  20.0884  30.2049 i
 75.1  29.4392  30.2048 i
 75.15  29.437  30.2028 i
 75.2  44.8091  30.2008 i
 75.25  30.8462  30.1987 i
 75.3  29.6844  30.1966 i
 75.35  40.4989  30.1965 i
 75.4  17.7371  30.1965 i
 75.45  26.4333  30.195 i
 75.5  34.0073  30.1934 i
 75.55  45.7495  30.191 i
 75.6  34.7307  30.1887 i
 75.65  37.3557  30.1886 i
 75.7  32.8451  30.1885 i
 75.75  22.7641  30.1875 i
 75.8  35.6716  30.1864 i
 75.85  38.005  30.1839 i
 75.9  41.2669  30.1814 i
 75.95  33.3903  30.1811 i
 76  23.9079  30.1808 i
 76.05  27.1995  30.1803 i
 76.1  39.0923  30.1799 i
 76.15  37.9874  30.1773 i
 76.2  34.3316  30.1748 i
 76.25  21.1496  30.1742 i
 76.3  31.2007  30.1736 i
 76.35  41.0046  30.1736 i
 76.4  24.5626  30.1736 i
 76.45  25.0687  30.1713 i
 76.5  33.8069  30.169 i
 76.55  38.3092  30.1679 i
 76.6  30.3616  30.1669 i
 76.65  25.4398  30.1673 i
 76.7  23.7072  30.1677 i
 76.75  37.6505  30.1658 i
 76.8  31.2224  30.1638 i
 76.85  23.6278  30.1623 i
 76.9  30.5046  30.1608 i
 76.95  30.4192  30.1615 i
 77  30.5685  30.1622 i
 77.05  39.2029  30.1608 i
 77.1  29.8671  30.1594 i
 77.15  32.0944  30.1575 i
 77.2  28.5695  30.1555 i
 77.25  39.8286  30.1563 i
 77.3  37.5007  30.157 i
 77.35  28.487  30.1563 i
 77.4  41.7761  30.1557 i
 77.45  25.6955  30.1535 i
 77.5  19.1317  30.1513 i
 77.55  38.7281  30.1518 i
 77.6  23.6798  30.1523 i
 77.65  36.0339  30.1525 i
 77.7  30.4979  30.1527 i
 77.75  29.8373  30.1504 i
 77.8  34.0671  30.1481 i
 77.85  29.7456  30.1482 i
 77.9  28.5961  30.1482 i
 77.95  38.2694  30.1492 i
 78  21.7657  30.1503 i
 78.05  31.0815  30.1483 i
 78.1  20.2366  30.1464 i
 78.15  34.9638  30.1458 i
 78.2  26.2727  30.1452 i
 78.25  20.9621  30.1469 i
 78.3  37.597  30.1485 i
 78.35  37.6739  30.1473 i
 78.4  34.9575  30.1461 i
 78.45  35.8858  30.1449 i
 78.5  27.7306  30.1437 i
 78.55  26.8447  30.1457 i
 78.6  28.0987  30.1477 i
 78.65  28.2653  30.1476 i
 78.7  24.0096  30.1475 i
 78.75  27.8296  30.1459 i
 78.8  37.5258  30.1443 i
 78.85  29.6115  30.1463 i
 78.9  44.0383  30.1483 i
 78.95  21.1929  30.1496 i
 79  36.6742  30.1509 i
 79.05  28.2846  30.1493 i
 79.1  22.2677  30.1477 i
 79.15  25.7594  30.1493 i
 79.2  29.271  30.151 i
 79.25  34.0159  30.1539 i
 79.3  24.1482  30.1568 i
 79.35  23.1673  30.1566 i
 79.4  23.3847  30.1563 i
 79.45  42.7234  30.1576 i
 79.5  35.824  30.1589 i
 79.55  34.1676  30.163 i
 79.6  40.2284  30.1671 i
 79.65  48.5436  30.1691 i
 79.7  34.3593  30.1693 i
 79.75  33.4347  30.1705 i
 79.8  31.9402  30.1717 i
 79.85  32.4671  30.1774 i
 79.9  27.6694  30.1831 i
 79.95  32.5838  30.1871 i
 80  25.718  30.1911 i
 80.05  34.5542  30.1933 i
 80.1  38.044  30.1956 i
 80.15  30.4233  30.2032 i
 80.2  36.4507  30.2109 i
 80.25  17.5662  30.2197 i
 80.3  33.9652  30.2286 i
 80.35  27.7507  30.2347 i
 80.4  32.6927  30.2408 i
 80.45  36.2733  30.2526 i
 80.5  33.9893  30.2644 i
 80.55  25.5229  30.2831 i
 80.6  32.9544  30.3019 i
 80.65  40.8675  30.3241 i
 80.7  36.5894  30.3464 i
 80.75  33.0876  30.4073 i
 80.8  32.8633  30.4682 i
 80.85  30.6866  30.5546 i
 80.9  31.9295  30.6411 i
 80.95  29.2801  30.71 i
 81  31.614  30.7789 i
 81.05  31.8201  30.865 i
 81.1  30.2072  30.951 i
 81.15  43.7933  31.0838 i
 81.2  38.4246  31.2166 i
 81.25  39.8368  31.4206 i
 81.3  29.5264  31.6247 i
 81.35  37.2121  31.9552 i
 81.4  36.9564  32.2857 i
 81.45  43.7653  32.9039 i
 81.5  25.3464  33.5222 i
 81.55  51.2119  34.5815 i
 81.6  44.0111  36.2045 i
 81.65  38.7607  38.8561 i
 81.7  52.4286  43.5878 i
 81.75  44.1043  53.0734 i
 81.8  66.8045  74.4445 i
 81.85  143.056  123.187 i
 81.9  216.233  211.349 i
 81.95  290.645  304.312 i
 82  274.756  310.394 i
 82.05  207.807  213.192 i
 82.1  129.966  117.061 i
 82.15  79.5738  69.3088 i
 82.2  64.4115  50.0478 i
 82.25  54.252  41.6888 i
 82.3  33.1205  37.5286 i
 82.35  43.6581  35.669 i
 82.4  24.6954  33.8093 i
 82.45  31.8331  33.0497 i
 82.5  22.5217  32.2902 i
 82.55  20.1836  31.9203 i
 82.6  40.2041  31.5504 i
 82.65  22.3341  31.3419 i
 82.7  24.3962  31.1334 i
 82.75  19.6983  30.9992 i
 82.8  23.1572  30.8651 i
 82.85  35.149  30.7796 i
 82.9  38.6991  30.6942 i
 82.95  35.1143  30.6379 i
 83  42.9279  30.5816 i
 83.05  24.2767  30.5306 i
 83.1  27.2717  30.4796 i
 83.15  27.1694  30.4203 i
 83.2  35.8198  30.3609 i
 83.25  36.1682  30.3335 i
 83.3  37.571  30.3062 i
 83.35  33.4148  30.2891 i
 83.4  33.7032  30.2721 i
 83.45  29.5694  30.2557 i
 83.5  39.2797  30.2393 i
 83.55  36.8067  30.23 i
 83.6  31.5973  30.2208 i
 83.65  18.2166  30.2151 i
 83.7  40.201  30.2094 i
 83.75  27.6781  30.2003 i
 83.8  24.9246  30.1912 i
 83.85  24.8401  30.1843 i
 83.9  26.6431  30.1774 i
 83.95  24.3893  30.1755 i
 84  27.0661  30.1736 i
 84.05  26.0495  30.1693 i
 84.1  33.6444  30.165 i
 84.15  30.5446  30.1592 i
 84.2  21.6652  30.1533 i
 84.25  26.4036  30.152 i
 84.3  29.7713  30.1506 i
 84.35  36.8453  30.1497 i
 84.4  38.8515  30.1488 i
 84.45  32.2095  30.1444 i
 84.5  46.3439  30.14 i
 84.55  21.7261  30.1379 i
 84.6  24.2856  30.1358 i
 84.65  26.9825  30.1365 i
 84.7  39.4781  30.1372 i
 84.75  30.3616  30.135 i
 84.8  39.7477  30.1327 i
 84.85  25.2328  30.1298 i
 84.9  31.4426  30.127 i
 84.95  29.0026  30.1277 i
 85  30.5465  30.1285 i
 85.05  23.1526  30.1284 i
 85.1  28.1398  30.1283 i
 85.15  25.3889  30.1255 i
 85.2  24.076  30.1228 i
 85.25  22.7587  30.1225 i
 85.3  36.3941  30.1223 i
 85.35  33.6634  30.1236 i
 85.4  31.7419  30.1249 i
 85.45  31.5708  30.1232 i
 85.5  30.6729  30.1216 i
 85.55  21.7551  30.1202 i
 85.6  30.3932  30.1188 i
 85.65  33.0183  30.1203 i
 85.7  26.872  30.1218 i
 85.75  35.8831  30.1219 i
 85.8  33.0391  30.1219 i
 85.85  34.5091  30.12 i
 85.9  28.9544  30.1182 i
 85.95  29.9431  30.1188 i
 86  31.0234  30.1195 i
 86.05  36.4664  30.1209 i
 86.1  34.271  30.1223 i
 86.15  26.4279  30.121 i
 86.2  27.5867  30.1198 i
 86.25  37.6704  30.1192 i
 86.3  21.7019  30.1187 i
 86.35  31.8972  30.1205 i
 86.4  19.0281  30.1223 i
 86.45  25.5928  30.1224 i
 86.5  32.299  30.1224 i
 86.55  30.5794  30.1212 i
 86.6  23.9731  30.1199 i
 86.65  26.9647  30.1211 i
 86.7  32.6719  30.1223 i
 86.75  32.9306  30.1237 i
 86.8  29.0313  30.1251 i
 86.85  19.8814  30.1241 i
 86.9  26.3688  30.1231 i
 86.95  32.8813  30.1231 i
 87  23.9041  30.1231 i
 87.05  20.4373  30.1251 i
 87.1  30.3572  30.127 i
 87.15  29.5178  30.1272 i
 87.2  33.5634  30.1273 i
 87.25  32.1861  30.1265 i
 87.3  32.6756  30.1257 i
 87.35  24.5233  30.1271 i
 87.4  23.8391  30.1286 i
 87.45  36.8576  30.13 i
 87.5  25.7935  30.1314 i
 87.55  33.6254  30.1307 i
 87.6  33.3446  30.13 i
 87.65  37.8205  30.1303 i
 87.7  33.1439  30.1307 i
 87.75  24.8426  30.1327 i
 87.8  30.0717  30.1347 i
 87.85  43.4134  30.135 i
 87.9  37.5086  30.1353 i
 87.95  29.9726  30.1348 i
 88  37.8351  30.1343 i
 88.05  37.8236  30.1359 i
 88.1  30.6329  30.1375 i
 88.15  28.2605  30.139 i
 88.2  29.2286  30.1405 i
 88.25  19.0735  30.1401 i
 88.3  24.1651  30.1396 i
 88.35  33.3798  30.1401 i
 88.4  27.4199  30.1407 i
 88.45  38.2909  30.1428 i
 88.5  32.1219  30.1449 i
 88.55  32.0321  30.1454 i
 88.6  30.2377  30.1459 i
 88.65  27.9363  30.1456 i
 88.7  41.3779  30.1453 i
 88.75  29.5291  30.147 i
 88.8  28.1789  30.1486 i
 88.85  27.2133  30.1503 i
 88.9  35.5971  30.152 i
 88.95  24.0818  30.1517 i
 89  25.4843  30.1515 i
 89.05  23.7669  30.1521 i
 89.1  29.7572  30.1528 i
 89.15  35.854  30.155 i
 89.2  34.7701  30.1572 i
 89.25  23.6223  30.1579 i
 89.3  26.0842  30.1587 i
 89.35  25.5294  30.1585 i
 89.4  37.0251  30.1583 i
 89.45  29.4882  30.16 i
 89.5  28.7004  30.1617 i
 89.55  31.8712  30.1636 i
 89.6  37.3003  30.1655 i
 89.65  36.9079  30.1655 i
 89.7  28.0458  30.1655 i
 89.75  26.5898  30.1662 i
 89.8  35.1473  30.1668 i
 89.85  27.5608  30.169 i
 89.9  40.2889  30.1713 i
 89.95  26.1956  30.1724 i
 90  32.1435  30.1735 i
 90.05  27.3358  30.1734 i
 90.1  27.5323  30.1734 i
 90.15  27.1154  30.175 i
 90.2  36.8002  30.1766 i
 90.25  38.5687  30.1787 i
 90.3  42.3208  30.1809 i
 90.35  31.1253  30.1812 i
 90.4  27.4038  30.1816 i
 90.45  38.9739  30.1821 i
 90.5  23.2891  30.1826 i
 90.55  23.9966  30.1849 i
 90.6  35.7662  30.1872 i
 90.65  33.0172  30.1887 i
 90.7  32.2544  30.1902 i
 90.75  33.6015  30.1903 i
 90.8  27.8716  30.1903 i
 90.85  28.1033  30.1918 i
 90.9  29.3979  30.1932 i
 90.95  28.9386  30.1956 i
 91  35.2069  30.198 i
 91.05  43.3944  30.1987 i
 91.1  37.3452  30.1995 i
 91.15  37.3446  30.1999 i
 91.2  32.1108  30.2003 i
 91.25  37.0242  30.2026 i
 91.3  24.3902  30.2048 i
 91.35  34.2364  30.2067 i
 91.4  36.0752  30.2087 i
 91.45  20.2193  30.209 i
 91.5  38.4791  30.2093 i
 91.55  39.8704  30.2105 i
 91.6  24.2696  30.2117 i
 91.65  35.7957  30.2143 i
 91.7  30.9341  30.2169 i
 91.75  27.9409  30.2182 i
 91.8  16.1617  30.2196 i
 91.85  30.7441  30.22 i
 91.9  27.3766  30.2205 i
 91.95  30.2313  30.2226 i
 92  39.2128  30.2247 i
 92.05  30.9289  30.2273 i
 92.1  24.4575  30.2298 i
 92.15  42.0757  30.2307 i
 92.2  38.4988  30.2315 i
 92.25  34.077  30.2325 i
 92.3  27.7554  30.2336 i
 92.35  30.8108  30.2364 i
 92.4  23.9773  30.2392 i
 92.45  26.0911  30.2413 i
 92.5  27.054  30.2434 i
 92.55  29.8935  30.2441 i
 92.6  26.9395  30.2448 i
 92.65  33.6761  30.2467 i
 92.7  34.0419  30.2486 i
 92.75  29.1072  30.2516 i
 92.8  30.0785  30.2547 i
 92.85  27.8813  30.2563 i
 92.9  28.6604  30.2579 i
 92.95  25.1307  30.2588 i
 93  31.6887  30.2598 i
 93.05  38.6513  30.2625 i
 93.1  21.9358  30.2652 i
 93.15  37.0502  30.2681 i
 93.2  36.8965  30.2711 i
 93.25  29.4272  30.2722 i
 93.3  31.0848  30.2734 i
 93.35  26.7121  30.275 i
 93.4  34.0615  30.2765 i
 93.45  37.8654  30.2802 i
 93.5  27.5723  30.2839 i
 93.55  29.5907  30.2867 i
 93.6  33.2258  30.2895 i
 93.65  35.9497  30.2905 i
 93.7  29.1955  30.2915 i
 93.75  31.656  30.2936 i
 93.8  36.8264  30.2957 i
 93.85  30.7403  30.2995 i
 93.9  28.9801  30.3032 i
 93.95  40.9982  30.3054 i
 94  40.4992  30.3077 i
 94.05  33.7542  30.3088 i
 94.1  27.6528  30.3099 i
 94.15  29.1442  30.313 i
 94.2  33.7317  30.316 i
 94.25  35.1704  30.3198 i
 94.3  38.2363  30.3235 i
 94.35  37.6384  30.3253 i
 94.4  22.0104  30.3271 i
 94.45  35.3211  30.3287 i
 94.5  26.2306  30.3303 i
 94.55  36.024  30.3341 i
 94.6  34.6447  30.3379 i
 94.65  16.1026  30.3415 i
 94.7  39.8686  30.3451 i
 94.75  44.0243  30.3466 i
 94.8  36.6945  30.3481 i
 94.85  30.6007  30.3505 i
 94.9  29.613  30.3528 i
 94.95  35.4739  30.3573 i
 95  25.0578  30.3617 i
 95.05  35.8195  30.3649 i
 95.1  31.4853  30.3681 i
 95.15  26.606  30.3697 i
 95.2  45.238  30.3712 i
 95.25  30.3442  30.3746 i
 95.3  28.6387  30.3779 i
 95.35  22.3743  30.3827 i
 95.4  24.2878  30.3876 i
 95.45  34.9847  30.3905 i
 95.5  23.9004  30.3934 i
 95.55  37.6729  30.3954 i
 95.6  26.8391  30.3974 i
 95.65  23.1859  30.4018 i
 95.7  28.3932  30.4062 i
 95.75  30.3275  30.4114 i
 95.8  27.1047  30.4165 i
 95.85  31.8623  30.4193 i
 95.9  23.8744  30.4222 i
 95.95  32.8365  30.4251 i
 96  28.1941  30.428 i
 96.05  37.3664  30.4336 i
 96.1  31.3091  30.4393 i
 96.15  34.2556  30.4449 i
 96.2  26.9418  30.4505 i
 96.25  19.7194  30.4538 i
 96.3  29.0873  30.4572 i
 96.35  18.7806  30.4616 i
 96.4  38.8943  30.466 i
 96.45  28.8404  30.4735 i
 96.5  34.4553  30.4809 i
 96.55  31.0414  30.4877 i
 96.6  41.9798  30.4944 i
 96.65  18.2111  30.4994 i
 96.7  30.3064  30.5044 i
 96.75  29.0169  30.5118 i
 96.8  34.3027  30.5192 i
 96.85  37.4338  30.5301 i
 96.9  28.5233  30.5409 i
 96.95  33.9341  30.5513 i
 97  26.9105  30.5616 i
 97.05  31.8734  30.5719 i
 97.1  35.753  30.5822 i
 97.15  30.4285  30.5983 i
 97.2  36.5373  30.6145 i
 97.25  31.3921  30.6407 i
 97.3  28.4247  30.667 i
 97.35  29.1377  30.7081 i
 97.4  31.7244  30.7492 i
 97.45  30.3743  30.7909 i
 97.5  38.0119  30.8326 i
 97.55  26.9417  30.8845 i
 97.6  37.8759  30.9363 i
 97.65  33.8959  31.0095 i
 97.7  33.5212  31.0826 i
 97.75  34.8924  31.1873 i
 97.8  22.9637  31.292 i
 97.85  38.7239  31.4586 i
 97.9  39.1241  31.6253 i
 97.95  31.8859  31.9238 i
 98  34.044  32.2224 i
 98.05  32.7828  32.8183 i
 98.1  39.2913  33.4142 i
 98.15  36.103  34.8187 i
 98.2  32.3918  36.2232 i
 98.25  37.4701  40.4825 i
 98.3  54.7013  44.7418 i
 98.35  54.6695  56.2192 i
 98.4  87.767  76.8071 i
 98.45  96.0635  111.538 i
 98.5  142.273  149.725 i
 98.55  175.164  164.754 i
 98.6  149.935  141.946 i
 98.65  78.8086  102.305 i
 98.7  71.1582  71.2631 i
 98.75  58.9832  54.1246 i
 98.8  56.3164  44.5324 i
 98.85  51.4275  39.6306 i
 98.9  31.3937  36.8122 i
 98.95  32.5308  35.3872 i
 99  28.9617  33.9623 i
 99.05  30.6196  33.3155 i
 99.1  25.8141  32.6687 i
 99.15  37.2089  32.3324 i
 99.2  30.5847  31.9961 i
 99.25  29.8272  31.8028 i
 99.3  28.2052  31.6094 i
 99.35  28.0686  31.4865 i
 99.4  26.4244  31.3636 i
 99.45  40.463  31.2797 i
 99.5  32.8978  31.1959 i
 99.55  33.6425  31.1359 i
 99.6  33.6728  31.076 i
 99.65  36.4417  31.0187 i
 99.7  33.0097  30.9614 i
 99.75  27.9993  30.9035 i
 99.8  30.7787  30.8456 i
 99.85  34.2843  30.8194 i
 99.9  28.6698  30.7931 i
 99.95  33.2344  30.7814 i
 100  28.367  30.7697 i
 100.05  25.018  30.7636 i
 100.1  33.0768  30.7576 i
 100.15  34.3151  30.7525 i
 100.2  37.4853  30.7475 i
 100.25  29.244  30.7433 i
 100.3  30.6468  30.7391 i
 100.35  28.3451  30.7375 i
 100.4  20.4901  30.7359 i
 100.45  37.7685  30.7358 i
 100.5  30.7137  30.7358 i
 100.55  26.5569  30.7352 i
 100.6  26.6792  30.7346 i
 100.65  20.9182  30.734 i
 100.7  24.9869  30.7333 i
 100.75  38.4795  30.7342 i
 100.8  18.9526  30.7351 i
 100.85  21.8757  30.7369 i
 100.9  31.0708  30.7387 i
 100.95  33.5035  30.7398 i
 101  25.5673  30.7408 i
 101.05  34.7274  30.7416 i
 101.1  29.6385  30.7425 i
 101.15  35.2055  30.7445 i
 101.2  27.5036  30.7464 i
 101.25  29.6971  30.749 i
 101.3  30.0597  30.7515 i
 101.35  31.2118  30.7534 i
 101.4  30.3939  30.7552 i
 101.45  31.9284  30.7568 i
 101.5  31.0182  30.7584 i
 101.55  21.3678  30.7609 i
 101.6  29.7257  30.7634 i
 101.65  35.3418  30.7663 i
 101.7  27.2216  30.7692 i
 101.75  23.161  30.7704 i
 101.8  23.666  30.7716 i
 101.85  33.0992  30.7732 i
 101.9  28.6353  30.7749 i
 101.95  18.5523  30.7779 i
 102  26.3693  30.7809 i
 102.05  23.9937  30.7844 i
 102.1  30.8358  30.7879 i
 102.15  30.5364  30.7901 i
 102.2  42.0305  30.7924 i
 102.25  31.1821  30.7943 i
 102.3  33.9749  30.7962 i
 102.35  24.6443  30.7994 i
 102.4  26.6436  30.8025 i
 102.45  24.4435  30.8061 i
 102.5  32.6033  30.8096 i
 102.55  23.3981  30.812 i
 102.6  33.556  30.8144 i
 102.65  25.8949  30.8165 i
 102.7  21.88  30.8186 i
 102.75  29.8878  30.8219 i
 102.8  41.1506  30.8251 i
 102.85  30.6503  30.8286 i
 102.9  20.8556  30.8322 i
 102.95  40.604  30.8347 i
 103  34.3555  30.8372 i
 103.05  32.5981  30.8394 i
 103.1  26.503  30.8417 i
 103.15  32.8507  30.8449 i
 103.2  30.3143  30.8481 i
 103.25  34.0786  30.8517 i
 103.3  35.5484  30.8552 i
 103.35  31.3486  30.8578 i
 103.4  27.9573  30.8604 i
 103.45  31.5736  30.8627 i
 103.5  34.8346  30.865 i
 103.55  27.9009  30.8682 i
 103.6  27.3008  30.8714 i
 103.65  28.3029  30.8749 i
 103.7  38.0814  30.8784 i
 103.75  29.4334  30.8811 i
 103.8  22.3232  30.8838 i
 103.85  22.8946  30.8861 i
 103.9  24.9668  30.8884 i
 103.95  31.4525  30.8915 i
 104  19.6575  30.8946 i
 104.05  28.2642  30.8981 i
 104.1  27.8788  30.9016 i
 104.15  35.6017  30.9044 i
 104.2  31.7745  30.9071 i
 104.25  19.4315  30.9094 i
 104.3  25.4406  30.9117 i
 104.35  28.7715  30.9147 i
 104.4  33.7288  30.9178 i
 104.45  42.3907  30.9212 i
 104.5  29.3539  30.9247 i
 104.55  27.3638  30.9274 i
 104.6  27.6306  30.9302 i
 104.65  35.6325  30.9325 i
 104.7  33.3477  30.9348 i
 104.75  31.448  30.9377 i
 104.8  35.1378  30.9407 i
 104.85  28.4487  30.9441 i
 104.9  31.5716  30.9475 i
 104.95  19.5073  30.9503 i
 105  14.1261  30.9531 i
 105.05  37.1874  30.9553 i
 105.1  29.9586  30.9576 i
 105.15  24.3348  30.9604 i
 105.2  27.9106  30.9632 i
 105.25  36.7571  30.9666 i
 105.3  31.5485  30.9699 i
 105.35  29.2946  30.9727 i
 105.4  22.7331  30.9756 i
 105.45  33.5263  30.9778 i
 105.5  33.5231  30.9801 i
 105.55  32.4912  30.9827 i
 105.6  32.3324  30.9854 i
 105.65  25.4126  30.9886 i
 105.7  25.0207  30.9919 i
 105.75  29.7852  30.9948 i
 105.8  29.9864  30.9976 i
 105.85  27.4835  30.9998 i
 105.9  32.1259  31.0021 i
 105.95  23.8425  31.0046 i
 106  34.5792  31.0071 i
 106.05  25.1896  31.0102 i
 106.1  24.7179  31.0134 i
 106.15  32.7138  31.0162 i
 106.2  30.2593  31.0191 i
 106.25  25.6181  31.0213 i
 106.3  35.9896  31.0236 i
 106.35  30.8692  31.0259 i
 106.4  34.4048  31.0283 i
 106.45  25.9694  31.0313 i
 106.5  28.007  31.0343 i
 106.55  28.7102  31.0371 i
 106.6  36.5156  31.04 i
 106.65  34.401  31.0423 i
 106.7  40.8385  31.0445 i
 106.75  34.8208  31.0467 i
 106.8  36.971  31.0489 i
 106.85  37.5486  31.0517 i
 106.9  31.5452  31.0545 i
 106.95  34.3296  31.0574 i
 107  25.4439  31.0603 i
 107.05  27.1328  31.0625 i
 107.1  26.3332  31.0647 i
 107.15  20.9965  31.0668 i
 107.2  22.7355  31.0688 i
 107.25  30.9622  31.0715 i
 107.3  39.2024  31.0741 i
 107.35  26.8666  31.0769 i
 107.4  23.1226  31.0798 i
 107.45  31.0539  31.082 i
 107.5  37.0226  31.0843 i
 107.55  31.929  31.0862 i
 107.6  26.6498  31.0881 i
 107.65  22.2174  31.0905 i
 107.7  22.1043  31.0929 i
 107.75  32.7708  31.0957 i
 107.8  29.9189  31.0985 i
 107.85  28.3623  31.1008 i
 107.9  37.554  31.1031 i
 107.95  42.3227  31.1049 i
 108  35.7263  31.1068 i
 108.05  35.857  31.1089 i
 108.1  32.5386  31.1111 i
 108.15  22.7473  31.1137 i
 108.2  29.4415  31.1164 i
 108.25  39.5908  31.1188 i
 108.3  24.7256  31.1213 i
 108.35  23.8268  31.1231 i
 108.4  23.2879  31.1249 i
 108.45  31.6727  31.1269 i
 108.5  27.8009  31.1288 i
 108.55  31.0793  31.1314 i
 108.6  37.6384  31.134 i
 108.65  28.6198  31.1365 i
 108.7  22.4109  31.1391 i
 108.75  30.7733  31.141 i
 108.8  32.7054  31.1429 i
 108.85  23.3563  31.1447 i
 108.9  28.6506  31.1465 i
 108.95  29.5244  31.1489 i
 109  34.757  31.1513 i
 109.05  23.834  31.154 i
 109.1  34.6695  31.1566 i
 109.15  42.8421  31.1586 i
 109.2  38.2365  31.1607 i
 109.25  37.2833  31.1624 i
 109.3  30.9802  31.1641 i
 109.35  38.9439  31.1663 i
 109.4  36.4939  31.1685 i
 109.45  19.5085  31.1712 i
 109.5  40.3349  31.1738 i
 109.55  27.8713  31.1761 i
 109.6  38.2935  31.1783 i
 109.65  34.9251  31.18 i
 109.7  32.1224  31.1817 i
 109.75  28.6206  31.1836 i
 109.8  24.1501  31.1856 i
 109.85  27.36  31.1882 i
 109.9  25.2803  31.1908 i
 109.95  36.0257  31.1933 i
 110  26.4752  31.1957 i
 110.05  27.6665  31.1975 i
 110.1  36.6578  31.1993 i
 110.15  25.1155  31.2011 i
 110.2  30.7021  31.2028 i
 110.25  37.6514  31.2053 i
 110.3  20.5358  31.2077 i
 110.35  34.6298  31.2104 i
 110.4  21.3912  31.213 i
 110.45  35.5146  31.215 i
 110.5  28.685  31.217 i
 110.55  28.9955  31.2186 i
 110.6  15.0284  31.2203 i
 110.65  22.8096  31.2225 i
 110.7  34.2341  31.2247 i
 110.75  32.2049  31.2274 i
 110.8  34.1931  31.2302 i
 110.85  36.6209  31.2325 i
 110.9  44.6155  31.2348 i
 110.95  25.3971  31.2365 i
 111  37.8916  31.2381 i
 111.05  34.3463  31.2401 i
 111.1  20.2953  31.242 i
 111.15  38.9504  31.2447 i
 111.2  34.259  31.2474 i
 111.25  25.9922  31.2501 i
 111.3  28.705  31.2527 i
 111.35  30.9761  31.2546 i
 111.4  28.4137  31.2565 i
 111.45  32.1019  31.2583 i
 111.5  25.7493  31.26 i
 111.55  12.9785  31.2623 i
 111.6  26.4031  31.265 i
 111.65  33.0084  31.268 i
 111.7  31.9115  31.271 i
 111.75  33.9445  31.2733 i
 111.8  23.0336  31.2757 i
 111.85  31.9009  31.2774 i
 111.9  34.7549  31.2792 i
 111.95  24.9991  31.2814 i
 112  26.0709  31.2837 i
 112.05  22.6419  31.2868 i
 112.1  31.1457  31.2899 i
 112.15  31.8968  31.2929 i
 112.2  31.0514  31.2959 i
 112.25  31.404  31.298 i
 112.3  21.7486  31.3001 i
 112.35  31.3795  31.3022 i
 112.4  23.4629  31.3042 i
 112.45  26.2762  31.3073 i
 112.5  27.6488  31.3104 i
 112.55  31.4121  31.3141 i
 112.6  33.1484  31.3177 i
 112.65  30.7852  31.3206 i
 112.7  30.5693  31.3235 i
 112.75  30.1699  31.3258 i
 112.8  25.5044  31.3281 i
 112.85  33.0399  31.3312 i
 112.9  27.6423  31.3342 i
 112.95  32.3311  31.3384 i
 113  37.8278  31.3426 i
 113.05  25.6658  31.3469 i
 113.1  32.8365  31.3511 i
 113.15  32.557  31.3544 i
 113.2  29.4857  31.3577 i
 113.25  33.8951  31.3611 i
 113.3  47.3372  31.3645 i
 113.35  35.0248  31.3694 i
 113.4  31.3913  31.3743 i
 113.45  29.5805  31.3803 i
 113.5  33.4443  31.3863 i
 113.55  27.2632  31.3919 i
 113.6  28.482  31.3975 i
 113.65  30.069  31.4027 i
 113.7  28.6897  31.4079 i
 113.75  40.8144  31.4144 i
 113.8  25.5573  31.4209 i
 113.85  29.2149  31.4298 i
 113.9  34.9874  31.4387 i
 113.95  35.7982  31.449 i
 114  35.8494  31.4593 i
 114.05  36.521  31.4699 i
 114.1  36.0452  31.4804 i
 114.15  30.4147  31.4926 i
 114.2  23.229  31.5048 i
 114.25  25.9045  31.5213 i
 114.3  29.9803  31.5379 i
 114.35  32.2881  31.5604 i
 114.4  24.9127  31.5829 i
 114.45  43.0524  31.6117 i
 114.5  29.776  31.6404 i
 114.55  31.2641  31.6783 i
 114.6  30.4324  31.7161 i
 114.65  28.5292  31.7699 i
 114.7  27.8649  31.8237 i
 114.75  25.6179  31.8993 i
 114.8  26.8884  31.9749 i
 114.85  31.7634  32.0768 i
 114.9  25.6432  32.1786 i
 114.95  36.6152  32.3195 i
 115  32.6927  32.4603 i
 115.05  27.348  32.6705 i
 115.1  42.9874  32.8807 i
 115.15  29.0172  33.2197 i
 115.2  41.6281  33.5588 i
 115.25  30.8596  34.1415 i
 115.3  36.8494  34.7243 i
 115.35  36.2771  35.7846 i
 115.4  33.6016  36.8448 i
 115.45  41.1473  38.8827 i
 115.5  39.9525  40.9206 i
 115.55  54.0838  44.2806 i
 115.6  50.0109  49.0228 i
 115.65  41.9684  55.6205 i
 115.7  68.419  64.4757 i
 115.75  87.2745  75.6043 i
 115.8  82.9255  87.9689 i
 115.85  93.8812  99.3927 i
 115.9  109.475  106.717 i
 115.95  102.894  107.371 i
 116  101.046  101.314 i
 116.05  89.0036  90.4899 i
 116.1  77.2307  78.1237 i
 116.15  64.8604  66.7085 i
 116.2  59.0346  57.4276 i
 116.25  51.3947  50.4279 i
 116.3  49.4105  45.3573 i
 116.35  34.2978  42.27 i
 116.4  45.2132  39.1826 i
 116.45  31.9799  37.6046 i
 116.5  41.3841  36.0267 i
 116.55  35.3809  35.1824 i
 116.6  32.4825  34.3382 i
 116.65  30.301  33.8608 i
 116.7  35.5023  33.3835 i
 116.75  43.4434  33.0985 i
 116.8  29.3524  32.8135 i
 116.85  37.6672  32.6319 i
 116.9  28.3644  32.4504 i
 116.95  32.6981  32.3248 i
 117  38.2624  32.1992 i
 117.05  37.7919  32.1063 i
 117.1  34.0875  32.0134 i
 117.15  37.0611  31.9459 i
 117.2  41.3429  31.8785 i
 117.25  37.4144  31.8329 i
 117.3  29.5256  31.7874 i
 117.35  29.748  31.7563 i
 117.4  27.9439  31.7252 i
 117.45  22.2721  31.7017 i
 117.5  31.2497  31.6781 i
 117.55  36.1227  31.6598 i
 117.6  32.4432  31.6414 i
 117.65  35.9148  31.6284 i
 117.7  35.0492  31.6154 i
 117.75  28.649  31.6068 i
 117.8  31.3177  31.5983 i
 117.85  41.8547  31.5917 i
 117.9  30.2033  31.5851 i
 117.95  39.3192  31.5784 i
 118  34.1025  31.5718 i
 118.05  30.3375  31.5657 i
 118.1  29.1348  31.5597 i
 118.15  25.5635  31.5558 i
 118.2  32.4712  31.5519 i
 118.25  45.5611  31.55 i
 118.3  32.2705  31.5482 i
 118.35  35.8226  31.5467 i
 118.4  26.1484  31.5451 i
 118.45  25.6281  31.5427 i
 118.5  31.7183  31.5402 i
 118.55  22.3543  31.5377 i
 118.6  19.0288  31.5351 i
 118.65  41.9202  31.534 i
 118.7  25.9107  31.533 i
 118.75  25.2864  31.5333 i
 118.8  36.8822  31.5336 i
 118.85  29.9725  31.5338 i
 118.9  30.195  31.534 i
 118.95  18.6657  31.533 i
 119  30.4547  31.5321 i
 119.05  33.492  31.531 i
 119.1  21.9685  31.5299 i
 119.15  28.1088  31.53 i
 119.2  27.2655  31.5301 i
 119.25  27.2455  31.5313 i
 119.3  20.4133  31.5325 i
 119.35  35.4464  31.5334 i
 119.4  30.2571  31.5342 i
 119.45  35.4604  31.5341 i
 119.5  32.9284  31.5339 i
 119.55  32.9706  31.5335 i
 119.6  28.1129  31.5331 i
 119.65  37.936  31.5337 i
 119.7  28.0067  31.5344 i
 119.75  35.0161  31.5359 i
 119.8  24.6493  31.5375 i
 119.85  26.9572  31.5387 i
 119.9  21.6164  31.54 i
 119.95  32.4895  31.5402 i
 120  29.5459  31.5405 i
 120.05  30.7166  31.5404 i
 120.1  25.9023  31.5404 i
 120.15  34.0824  31.5413 i
 120.2  35.1449  31.5422 i
 120.25  35.3974  31.5439 i
 120.3  41.968  31.5456 i
 120.35  30.3363  31.5471 i
 120.4  24.5259  31.5486 i
 120.45  27.9184  31.5491 i
 120.5  27.1235  31.5496 i
 120.55  21.6705  31.5498 i
 120.6  26.7927  31.55 i
 120.65  29.4254  31.551 i
 120.7  30.943  31.552 i
 120.75  33.3183  31.5538 i
 120.8  32.5712  31.5556 i
 120.85  31.5323  31.5572 i
 120.9  33.5668  31.5588 i
 120.95  31.0591  31.5596 i
 121  34.5544  31.5603 i
 121.05  30.1377  31.5606 i
 121.1  28.6428  31.561 i
 121.15  23.8618  31.562 i
 121.2  36.9749  31.563 i
 121.25  27.6257  31.5648 i
 121.3  27.337  31.5666 i
 121.35  31.5701  31.5683 i
 121.4  28.0657  31.5701 i
 121.45  32.355  31.571 i
 121.5  28.2736  31.5719 i
 121.55  29.9806  31.5724 i
 121.6  33.0401  31.5728 i
 121.65  30.774  31.5738 i
 121.7  28.2456  31.5748 i
 121.75  29.9864  31.5765 i
 121.8  24.4384  31.5783 i
 121.85  30.6023  31.5801 i
 121.9  36.9381  31.5819 i
 121.95  30.6832  31.583 i
 122  32.2639  31.5841 i
 122.05  32.267  31.5847 i
 122.1  18.864  31.5853 i
 122.15  31.1555  31.5862 i
 122.2  31.5737  31.5871 i
 122.25  33.4007  31.5887 i
 122.3  29.1426  31.5904 i
 122.35  39.603  31.5923 i
 122.4  32.6029  31.5942 i
 122.45  29.0963  31.5955 i
 122.5  32.4757  31.5968 i
 122.55  24.7377  31.5975 i
 122.6  29.4606  31.5981 i
 122.65  35.3524  31.5989 i
 122.7  36.0581  31.5998 i
 122.75  20.7955  31.6008 i
 122.8  35.5718  31.6018 i
 122.85  37.2181  31.6035 i
 122.9  37.5512  31.6052 i
 122.95  37.1207  31.6067 i
 123  33.3838  31.6082 i
 123.05  32.9329  31.6092 i
 123.1  34.2255  31.6103 i
 123.15  29.554  31.6112 i
 123.2  33.2409  31.6121 i
 123.25  39.4044  31.6134 i
 123.3  33.4958  31.6146 i
 123.35  28.1361  31.6163 i
 123.4  30.2448  31.618 i
 123.45  20.7403  31.6196 i
 123.5  32.7434  31.6212 i
 123.55  23.9314  31.6224 i
 123.6  27.2929  31.6235 i
 123.65  31.2048  31.6245 i
 123.7  34.0787  31.6254 i
 123.75  32.4896  31.6266 i
 123.8  29.5466  31.6277 i
 123.85  36.1099  31.6293 i
 123.9  42.392  31.6309 i
 123.95  31.7634  31.6326 i
 124  29.301  31.6342 i
 124.05  26.2092  31.6356 i
 124.1  28.6066  31.6369 i
 124.15  26.3878  31.638 i
 124.2  41.0753  31.639 i
 124.25  26.5126  31.64 i
 124.3  25.2987  31.6411 i
 124.35  31.066  31.6426 i
 124.4  25.273  31.644 i
 124.45  29.0605  31.6457 i
 124.5  30.5664  31.6474 i
 124.55  26.4755  31.6489 i
 124.6  42.1765  31.6504 i
 124.65  28.7187  31.6516 i
 124.7  32.2367  31.6527 i
 124.75  36.3512  31.6537 i
 124.8  26.2708  31.6548 i
 124.85  26.4635  31.6561 i
 124.9  38.5908  31.6574 i
 124.95  43.3843  31.659 i
 125  26.1098  31.6607 i
 125.05  36.032  31.6623 i
 125.1  31.2781  31.6639 i
 125.15  33.0854  31.6653 i
 125.2  29.4553  31.6666 i
 125.25  27.8909  31.6676 i
 125.3  26.6036  31.6687 i
 125.35  32.4503  31.6699 i
 125.4  25.5421  31.671 i
 125.45  27.0961  31.6726 i
 125.5  33.0216  31.6741 i
 125.55  33.5824  31.6758 i
 125.6  26.5165  31.6775 i
 125.65  32.5833  31.679 i
 125.7  22.7467  31.6805 i
 125.75  34.1726  31.6816 i
 125.8  20.1403  31.6828 i
 125.85  30.3211  31.6839 i
 125.9  27.8594  31.685 i
 125.95  24.3589  31.6864 i
 126  33.9867  31.6877 i
 126.05  22.4012  31.6894 i
 126.1  30.5936  31.6911 i
 126.15  29.8227  31.6927 i
 126.2  25.3968  31.6943 i
 126.25  39.9681  31.6957 i
 126.3  29.6595  31.697 i
 126.35  31.3668  31.6982 i
 126.4  36.6043  31.6993 i
 126.45  28.7576  31.7005 i
 126.5  28.6985  31.7017 i
 126.55  34.501  31.7033 i
 126.6  33.0464  31.7048 i
 126.65  29.0575  31.7065 i
 126.7  24.4668  31.7082 i
 126.75  30.8111  31.7097 i
 126.8  34.9943  31.7113 i
 126.85  26.4599  31.7125 i
 126.9  33.2128  31.7138 i
 126.95  35.2708  31.7149 i
 127  33.601  31.7161 i
 127.05  27.2159  31.7175 i
 127.1  34.3094  31.7188 i
 127.15  21.4434  31.7205 i
 127.2  24.4776  31.7221 i
 127.25  35.6697  31.7238 i
 127.3  39.3669  31.7255 i
 127.35  31.0778  31.7269 i
 127.4  20.5839  31.7284 i
 127.45  47.3919  31.7296 i
 127.5  41.4316  31.7308 i
 127.55  19.9053  31.732 i
 127.6  40.4927  31.7333 i
 127.65  42.2542  31.7348 i
 127.7  39.1829  31.7362 i
 127.75  31.3975  31.7379 i
 127.8  28.4898  31.7397 i
 127.85  22.7292  31.7413 i
 127.9  29.8441  31.7429 i
 127.95  36.7247  31.7443 i
 128  34.4122  31.7457 i
 128.05  29.2508  31.7469 i
 128.1  29.988  31.7482 i
 128.15  41.4279  31.7495 i
 128.2  31.543  31.7508 i
 128.25  32.574  31.7524 i
 128.3  38.677  31.754 i
 128.35  25.9854  31.7557 i
 128.4  31.3475  31.7574 i
 128.45  39.117  31.759 i
 128.5  24.2184  31.7607 i
 128.55  29.8625  31.762 i
 128.6  29.4369  31.7634 i
 128.65  25.1444  31.7646 i
 128.7  32.0295  31.7659 i
 128.75  29.566  31.7673 i
 128.8  22.1094  31.7687 i
 128.85  31.5897  31.7703 i
 128.9  25.1151  31.772 i
 128.95  23.7295  31.7737 i
 129  34.0974  31.7755 i
 129.05  28.2289  31.7771 i
 129.1  36.5945  31.7787 i
 129.15  31.9385  31.78 i
 129.2  37.1152  31.7814 i
 129.25  29.2997  31.7827 i
 129.3  31.8212  31.784 i
 129.35  29.0208  31.7854 i
 129.4  19.7078  31.7869 i
 129.45  27.1898  31.7886 i
 129.5  35.9388  31.7903 i
 129.55  21.8171  31.7921 i
 129.6  29.7603  31.7938 i
 129.65  25.459  31.7954 i
 129.7  28.7524  31.797 i
 129.75  30.0029  31.7984 i
 129.8  34.3542  31.7997 i
 129.85  31.4646  31.8011 i
 129.9  32.1575  31.8024 i
 129.95  22.4804  31.8147 i
 130  17.3401  31.8269 i

