40 41.6084 6.45045734812657
40.05 41.3732 6.43220024563912
40.1 39.3909 6.27621701345643
40.15 34.0527 5.83546913281186
40.2 51.7072 7.19077186399346
40.25 33.3644 5.77619251756726
40.3 34.1208 5.84130122489844
40.35 45.0854 6.71456625553729
40.4 43.718 6.61195886254596
40.45 40.0726 6.33029225233717
40.5 42.4308 6.51389284529612
40.55 32.6221 5.71157596465284
40.6 49.6135 7.04368511505164
40.65 44.5603 6.67535017808055
40.7 40.4635 6.36109267343276
40.75 45.8025 6.76775442816892
40.8 40.2386 6.34339026073597
40.85 41.2022 6.41889398572682
40.9 36.0483 6.00402365085282
40.95 32.6445 5.71353655803479
41 36.4433 6.03682863762092
41.05 41.9755 6.47885020663389
41.1 43.1043 6.56538650804353
41.15 44.7385 6.68868447454356
41.2 33.2086 5.76269034392791
41.25 41.0334 6.40573180831043
41.3 49.2402 7.01713616798192
41.35 51.1746 7.15364242886098
41.4 39.9609 6.3214634381605
41.45 36.6537 6.05422992625817
41.5 35.5346 5.96109050426178
41.55 39.5538 6.28918118676827
41.6 48.349 6.95334451900666
41.65 29.2995 5.41290125533433
41.7 27.8307 5.27548102072219
41.75 19.7892 4.4485053669744
41.8 39.0971 6.25276738732539
41.85 39.5082 6.2855548681083
41.9 45.424 6.73973293239428
41.95 41.5289 6.44429204800652
42 50.649 7.11681108362446
42.05 41.1252 6.41289326279488
42.1 45.5129 6.74632492546868
42.15 31.7323 5.63314299481204
42.2 40.5881 6.37087906022395
42.25 36.6979 6.05787916683719
42.3 48.874 6.99099420683496
42.35 33.1446 5.7571347039999
42.4 35.3835 5.94840314706392
42.45 44.4612 6.66792321491482
42.5 36.1546 6.01286953126375
42.55 31.6656 5.62721956209281
42.6 45.8615 6.77211193055756
42.65 44.1566 6.64504326547239
42.7 44.6732 6.68380131362386
42.75 33.1598 5.75845465381121
42.8 44.4974 6.67063715097741
42.85 28.963 5.38172834691607
42.9 30.5308 5.52546830594475
42.95 39.2837 6.26767101880754
43 37.9898 6.16358661819561
43.05 55.4978 7.44968455708025
43.1 42.4278 6.51366256418
43.15 44.4926 6.67027735555277
43.2 31.4849 5.61114070399237
43.25 48.1052 6.93579123099881
43.3 31.905 5.64845111512882
43.35 38.4255 6.19883053486704
43.4 33.6195 5.79823248930224
43.45 45.6728 6.7581654315354
43.5 31.6897 5.62936053206756
43.55 43.0563 6.56172995482137
43.6 48.0764 6.93371473309942
43.65 47.1378 6.86569734258655
43.7 42.6213 6.52849906180586
43.75 32.8943 5.73535526362579
43.8 52.7252 7.26121202004183
43.85 47.2311 6.8724886322205
43.9 46.9354 6.85094154113141
43.95 70.6801 8.40714577011723
44 74.1863 8.61314692780751
44.05 66.6794 8.16574552628234
44.1 64.9795 8.06098629201167
44.15 81.3858 9.02140787238888
44.2 150.2256 12.2566553349599
44.25 376.5679 19.4053575076575
44.3 1176.3809 34.2984095841192
44.35 2125.2429 46.1003568315908
44.4 2237.6953 47.3042841611624
44.45 1419.8086 37.6803476629396
44.5 485.2942 22.0293939998358
44.55 170.7101 13.0656075251019
44.6 98.3437 9.91683921418513
44.65 85.3971 9.2410551345612
44.7 54.8194 7.4040124257054
44.75 43.8562 6.62240137714409
44.8 38.7618 6.22589752565845
44.85 37.2706 6.10496519236596
44.9 44.7852 6.69217453448429
44.95 44.982 6.70686215752195
45 38.4591 6.20154013128997
45.05 39.367 6.27431271136529
45.1 49.4569 7.03255998907937
45.15 32.8633 5.73265209130992
45.2 33.874 5.82013745542148
45.25 21.7433 4.662971155819
45.3 48.3717 6.95497663547477
45.35 31.8629 5.64472319959092
45.4 40.0403 6.32774051301094
45.45 49.4561 7.03250311055744
45.5 34.2525 5.85256354087677
45.55 38.7812 6.22745533906105
45.6 34.0433 5.83466365782982
45.65 43.7335 6.61313087727742
45.7 44.9794 6.70666832339277
45.75 45.6456 6.75615275138151
45.8 37.8456 6.15187776211459
45.85 39.6877 6.29981745767288
45.9 43.9338 6.6282576896195
45.95 36.9527 6.07887325085825
46 30.6545 5.5366506120578
46.05 35.4624 5.95503148606286
46.1 30.6217 5.53368773965427
46.15 40.2788 6.34655812232111
46.2 39.9403 6.31983385857571
46.25 32.5798 5.70787175749421
46.3 48.2729 6.94787017725576
46.35 32.2396 5.67799260302442
46.4 42.5938 6.52639257170453
46.45 34.3645 5.86212418838086
46.5 36.2828 6.02352056525086
46.55 37.8232 6.15005691030579
46.6 34.2768 5.85463918614973
46.65 39.3162 6.27026315237247
46.7 39.2707 6.26663386516238
46.75 42.3558 6.50813337294189
46.8 34.6439 5.88590689698707
46.85 52.0943 7.21763811783328
46.9 24.6823 4.96812842024036
46.95 40.214 6.34145093807403
47 31.5665 5.61840724761031
47.05 39.6051 6.29325829757527
47.1 32.9351 5.73891104653139
47.15 40.2737 6.34615631701584
47.2 39.8947 6.31622513848264
47.25 29.0729 5.39192915383724
47.3 34.9177 5.90912006985812
47.35 39.6427 6.29624491264436
47.4 32.5465 5.70495398754451
47.45 31.2291 5.58830027825993
47.5 43.5661 6.60046210503477
47.55 34.0716 5.83708831524759
47.6 42.5466 6.52277548287537
47.65 40.6622 6.37669193234235
47.7 37.5218 6.12550406089164
47.75 44.2992 6.65576441890787
47.8 30.3641 5.51036296445162
47.85 27.0784 5.20369099774381
47.9 29.9244 5.47031991751854
47.95 32.0346 5.65991166008799
48 40.6769 6.37784446345315
48.05 36.375 6.03116904090741
48.1 27.9455 5.28635034782978
48.15 35.4625 5.95503988231817
48.2 35.7628 5.98020066552954
48.25 26.6587 5.16320636813986
48.3 34.0419 5.83454368395678
48.35 32.4406 5.69566501823975
48.4 31.2902 5.59376438545636
48.45 27.5802 5.25168544374089
48.5 34.6311 5.88481945347519
48.55 33.251 5.7663680076804
48.6 33.3363 5.77375960704981
48.65 27.5308 5.24698008381964
48.7 30.7076 5.54144385516988
48.75 27.6453 5.25787980083227
48.8 31.3686 5.60076780450681
48.85 29.8665 5.46502516005187
48.9 31.5104 5.61341250933868
48.95 26.9305 5.18946047292009
49 37.448 6.11947710184457
49.05 36.5054 6.04196987744891
49.1 32.694 5.71786673506825
49.15 36.5226 6.04339308666911
49.2 36.0171 6.00142483082143
49.25 38.2943 6.18823884477644
49.3 30.7379 5.54417712559763
49.35 25.5615 5.05583820943669
49.4 34.8263 5.90138119426292
49.45 32.3919 5.69138823135446
49.5 38.5315 6.20737464633802
49.55 35.7423 5.97848643052738
49.6 30.3529 5.50934660372716
49.65 25.9672 5.09580219396318
49.7 36.9647 6.07986019576108
49.75 29.8381 5.46242620087448
49.8 36.175 6.01456565347823
49.85 35.3538 5.94590615465801
49.9 35.8182 5.98483082467667
49.95 34.792 5.89847437902378
50 36.8928 6.07394435272501
50.05 32.3026 5.68353763073669
50.1 33.5798 5.79480802097878
50.15 36.4026 6.03345672065359
50.2 42.8186 6.54359228558748
50.25 26.9869 5.19489172168198
50.3 36.1098 6.0091430337445
50.35 29.6708 5.44709096674546
50.4 41.6269 6.45189119561079
50.45 32.4383 5.69546310671924
50.5 33.5443 5.79174412418228
50.55 26.5475 5.15242661277189
50.6 25.6701 5.06656688498237
50.65 35.2966 5.94109417531821
50.7 37.4436 6.11911758344289
50.75 28.8811 5.37411388044578
50.8 30.1124 5.48747665143097
50.85 31.8498 5.64356270453337
50.9 36.1034 6.00861048829095
50.95 31.1568 5.58182765767629
51 36.8522 6.07060128817566
51.05 34.9804 5.91442304878506
51.1 34.5539 5.87825654424847
51.15 30.612 5.53281122034721
51.2 29.7128 5.4509448722217
51.25 34.4746 5.87150747253208
51.3 32.7038 5.718723633819
51.35 43.2338 6.57524144043396
51.4 35.951 5.99591527625266
51.45 25.5565 5.05534370740507
51.5 32.5962 5.70930818926427
51.55 29.5283 5.43399484725556
51.6 41.7575 6.46200433302238
51.65 28.7212 5.35921636062587
51.7 32.7505 5.7228052561659
51.75 37.4678 6.12109467334071
51.8 29.2324 5.40669954778329
51.85 35.8018 5.9834605371808
51.9 37.4341 6.1183412784839
51.95 31.8479 5.64339436864021
52 31.3392 5.59814254909608
52.05 23.6367 4.86175894095954
52.1 36.1856 6.01544678307439
52.15 37.5864 6.13077482868193
52.2 34.9565 5.9124022190646
52.25 30.8759 5.55660867796177
52.3 27.9912 5.29067103494443
52.35 44.8349 6.6958867971315
52.4 40.752 6.38372931756979
52.45 34.7856 5.8979318409083
52.5 28.1156 5.30241454433733
52.55 21.8877 4.67842922357494
52.6 36.1442 6.01200465735016
52.65 30.0584 5.48255414929939
52.7 40.6256 6.37382145968963
52.75 31.2672 5.59170814689036
52.8 36.7473 6.06195513015397
52.85 40.4143 6.35722423703931
52.9 36.0099 6.00082494328905
52.95 29.9881 5.47613915089819
53 39.5637 6.28996820341725
53.05 33.7139 5.80636719472684
53.1 40.3993 6.3560443673719
53.15 22.2934 4.72158871567611
53.2 27.119 5.20759061370995
53.25 36.3166 6.02632558031841
53.3 39.5547 6.28925273780598
53.35 41.8443 6.46871702890148
53.4 29.8669 5.46506175628419
53.45 26.3083 5.12916172488254
53.5 37.5069 6.12428771368557
53.55 40.8804 6.39377822574415
53.6 44.3989 6.66324995779087
53.65 37.1141 6.09213427297856
53.7 29.5546 5.43641425941769
53.75 39.3135 6.27004784670739
53.8 35.8435 5.98694412868535
53.85 33.7535 5.80977624353985
53.9 30.3921 5.51290304649012
53.95 47.7411 6.90949346913361
54 35.4753 5.95611450527943
54.05 24.6692 4.96680984133679
54.1 24.2083 4.92019308564207
54.15 42.985 6.5562946852624
54.2 36.717 6.0594554210754
54.25 29.8044 5.4593406195254
54.3 39.8791 6.31499010292178
54.35 36.3204 6.02664085540195
54.4 26.2844 5.12683138010214
54.45 38.8124 6.22995987145985
54.5 38.8555 6.23341800299001
54.55 33.7408 5.80868315541483
54.6 24.6629 4.96617559093514
54.65 36.34 6.02826674924061
54.7 31.3363 5.59788352862044
54.75 35.3815 5.94823503234363
54.8 45.1305 6.71792378640901
54.85 34.2042 5.84843568828452
54.9 28.5223 5.34062730397844
54.95 29.1352 5.39770321525739
55 24.7142 4.97133784810487
55.05 27.0637 5.20227834703219
55.1 31.6593 5.62665975513004
55.15 25.8823 5.08746498759451
55.2 35.9296 5.99413046237734
55.25 30.6827 5.53919669266221
55.3 34.1786 5.84624665918228
55.35 28.7846 5.3651281438564
55.4 30.5124 5.52380303776302
55.45 26.2568 5.12413895205819
55.5 32.907 5.73646232446444
55.55 38.8337 6.23166911830209
55.6 27.9007 5.28211132029608
55.65 32.0035 5.65716360025057
55.7 36.1147 6.00955073195992
55.75 28.7252 5.35958953652236
55.8 31.8276 5.64159551899992
55.85 36.6478 6.05374264401783
55.9 28.0024 5.29172939595365
55.95 42.319 6.50530552702946
56 23.9941 4.89837728232524
56.05 23.6528 4.86341443843726
56.1 33.0344 5.74755600233699
56.15 33.1007 5.75332078021033
56.2 25.7224 5.07172554462483
56.25 30.333 5.50754028582633
56.3 27.7884 5.27147038310944
56.35 34.5143 5.87488723296031
56.4 28.4045 5.32958722604293
56.45 37.1411 6.09434984227194
56.5 29.761 5.4553643324713
56.55 26.5528 5.15294090786999
56.6 25.7184 5.07133118618771
56.65 35.6753 5.97288037717147
56.7 27.5086 5.24486415458017
56.75 26.6668 5.16399070487157
56.8 28.9872 5.38397622580189
56.85 28.2053 5.31086621936573
56.9 34.535 5.87664870483169
56.95 35.5042 5.95854008965283
57 33.0633 5.75006956479659
57.05 23.2405 4.820840175737
57.1 37.3672 6.1128716655922
57.15 28.8716 5.37322994110619
57.2 26.7943 5.17632108741334
57.25 51.8745 7.2023954348536
57.3 35.3474 5.94536794487944
57.35 44.4673 6.66838061301243
57.4 27.205 5.21584125525308
57.45 31.7855 5.63786307034855
57.5 31.2934 5.59405041092767
57.55 36.3987 6.03313351418647
57.6 36.5852 6.04857007895255
57.65 27.4936 5.24343398928603
57.7 34.4512 5.86951446032804
57.75 25.8637 5.08563663664639
57.8 28.0485 5.2960834585569
57.85 42.5958 6.52654579390967
57.9 24.6058 4.96042336902809
57.95 35.0072 5.91668826287138
58 33.2947 5.77015597709455
58.05 34.9257 5.90979695082665
58.1 30.7559 5.54580021277363
58.15 33.2937 5.77006932367368
58.2 32.5195 5.7025871321708
58.25 25.5668 5.05636232878934
58.3 53.1351 7.28938268991277
58.35 37.6681 6.13743431736748
58.4 25.0988 5.00987025780109
58.45 35.306 5.94188522272183
58.5 42.37 6.50922422412994
58.55 30.0062 5.47779152578847
58.6 32.5741 5.70737242520584
58.65 29.8894 5.46711989991074
58.7 36.9825 6.0813238690272
58.75 35.4351 5.95273886542993
58.8 26.0324 5.10219560581521
58.85 31.3606 5.60005357117233
58.9 34.7068 5.89124774559685
58.95 38.8602 6.23379499181678
59 23.3608 4.83330114931813
59.05 29.769 5.45609750646009
59.1 29.0499 5.38979591450363
59.15 23.2812 4.82505958512431
59.2 27.596 5.25318950733742
59.25 22.6309 4.75719455141368
59.3 37.2614 6.10421166081256
59.35 37.8284 6.15047965609187
59.4 29.9732 5.4747785343336
59.45 37.7582 6.14477013402454
59.5 30.4312 5.51644813263027
59.55 35.4816 5.95664335007561
59.6 17.4863 4.18166234887515
59.65 26.9577 5.19208050785039
59.7 23.7976 4.87827838484029
59.75 39.9011 6.31673174988459
59.8 32.993 5.74395334242889
59.85 26.3621 5.13440356808851
59.9 27.7983 5.2724093164321
59.95 43.0712 6.56286522793208
60 29.7433 5.45374183474062
60.05 31.7427 5.63406602730213
60.1 32.4569 5.69709575134559
60.15 33.7768 5.81178113834305
60.2 31.8266 5.6415068908936
60.25 27.4707 5.24124985094204
60.3 30.6791 5.53887172626339
60.35 37.1501 6.09508818640059
60.4 30.5166 5.52418319754152
60.45 35.2961 5.94105209537839
60.5 30.4946 5.52219159392356
60.55 29.7558 5.45488771653459
60.6 35.675 5.97285526360718
60.65 24.0867 4.90782029010843
60.7 35.5964 5.96627186775796
60.75 25.636 5.06320056881021
60.8 29.3176 5.41457292868053
60.85 33.6448 5.80041377834375
60.9 24.2772 4.92718986847473
60.95 38.6417 6.21624484717261
61 36.9295 6.07696470287593
61.05 29.2766 5.41078552522644
61.1 26.6075 5.1582458258598
61.15 41.7082 6.45818860052879
61.2 25.7478 5.07422900547463
61.25 32.6478 5.7138253385976
61.3 34.9372 5.9107698314179
61.35 34.9189 5.90922160694621
61.4 33.3919 5.77857248808043
61.45 27.6001 5.2535797319542
61.5 39.8313 6.31120432247285
61.55 29.1 5.39444158370447
61.6 41.7374 6.46044890081177
61.65 35.7375 5.97808497764961
61.7 36.6209 6.05152047009675
61.75 27.8887 5.28097528871325
61.8 26.624 5.15984495891107
61.85 28.0196 5.29335432405578
61.9 25.9929 5.09832325377668
61.95 28.3846 5.32771996261065
62 30.3868 5.5124223350538
62.05 34.7987 5.89904229515266
62.1 38.8054 6.22939804475521
62.15 26.9374 5.19012523933672
62.2 35.0321 5.91879210650281
62.25 36.4363 6.03624883516245
62.3 33.3199 5.77233921387162
62.35 29.703 5.45004587136659
62.4 22.9192 4.78740012950662
62.45 24.8715 4.9871334451767
62.5 23.0244 4.79837472484173
62.55 31.017 5.5692907986565
62.6 23.5667 4.85455456247018
62.65 26.7321 5.17030946849412
62.7 41.5016 6.44217354624974
62.75 26.0933 5.10816013844515
62.8 25.8752 5.08676714623345
62.85 30.8239 5.55192759318779
62.9 31.1195 5.57848545754132
62.95 27.1884 5.2142497063336
63 31.4263 5.60591651739481
63.05 22.4271 4.73572592112339
63.1 29.5474 5.43575201789044
63.15 34.0986 5.83940065417676
63.2 25.7118 5.07068042771382
63.25 32.3382 5.68666862055457
63.3 34.7091 5.89144294719044
63.35 24.1904 4.91837371495904
63.4 25.4425 5.04405590769968
63.45 33.5671 5.79371210882971
63.5 32.0383 5.66023851087567
63.55 29.9195 5.46987202775348
63.6 37.4505 6.11968136425419
63.65 24.193 4.91863802286771
63.7 38.1754 6.17862444238198
63.75 38.17 6.17818743645739
63.8 34.4012 5.86525361770487
63.85 36.0748 6.00623009882239
63.9 27.1138 5.207091318577
63.95 38.9373 6.23997596149216
64 36.4862 6.04038078269905
64.05 29.6073 5.44125904547835
64.1 33.9087 5.82311772163332
64.15 33.1947 5.76148418378459
64.2 38.0862 6.17140178565616
64.25 30.2259 5.49780865436403
64.3 39.8883 6.31571848644317
64.35 35.0789 5.92274429635452
64.4 48.0717 6.93337580115199
64.45 45.5889 6.7519552723637
64.5 38.7363 6.22384929123448
64.55 82.3671 9.07563220938354
64.6 106.4162 10.3158227980128
64.65 152.064 12.3314232755185
64.7 134.6772 11.6050506246203
64.75 142.3985 11.9330842618327
64.8 92.3866 9.61179483759407
64.85 67.594 8.22155703014946
64.9 50.1016 7.07824837088951
64.95 50.2698 7.09011988615143
65 35.5159 5.9595217928958
65.05 39.7805 6.30717844998855
65.1 32.6055 5.71012259062798
65.15 34.8729 5.90532810265442
65.2 28.9411 5.37969329980808
65.25 34.0167 5.83238373223162
65.3 36.353 6.0293449063725
65.35 24.4744 4.94716080191457
65.4 27.0023 5.19637373559678
65.45 27.5786 5.25153310948336
65.5 44.2984 6.65570432035558
65.55 35.6389 5.96983249346244
65.6 33.8379 5.81703532738112
65.65 32.6677 5.71556646361496
65.7 34.7995 5.89911010237985
65.75 28.2297 5.31316289981777
65.8 37.0371 6.08581136743491
65.85 29.3031 5.41323378397793
65.9 27.0775 5.20360451994577
65.95 31.7293 5.6328767073317
66 27.0806 5.2039023818669
66.05 40.1874 6.33935327931801
66.1 27.557 5.2494761643425
66.15 23.8 4.87852436706019
66.2 29.7807 5.45716959604519
66.25 35.3076 5.94201985860027
66.3 29.3104 5.41390801547274
66.35 22.4553 4.73870235402056
66.4 31.3279 5.59713319477034
66.45 20.5439 4.53253792041501
66.5 33.1616 5.75861094362173
66.55 35.2661 5.93852675332864
66.6 39.5402 6.28809987198041
66.65 31.1266 5.57912179469135
66.7 26.652 5.16255750573299
66.75 25.9676 5.09584144180331
66.8 25.4939 5.04914844305453
66.85 28.1748 5.30799397136056
66.9 26.4945 5.14728083554803
66.95 33.7127 5.80626385897162
67 24.6035 4.96019152856016
67.05 32.5254 5.70310441777108
67.1 29.7708 5.45626245703045
67.15 21.9513 4.68522144620721
67.2 33.9225 5.8243025333511
67.25 39.7626 6.30575927228435
67.3 34.403 5.86540706174772
67.35 41.7119 6.45847505220853
67.4 39.1309 6.25546960667223
67.45 43.086 6.56399268738167
67.5 40.3331 6.35083459082348
67.55 30.8099 5.55066662663144
67.6 32.8912 5.73508500372924
67.65 27.3287 5.22768591252382
67.7 32.9462 5.73987804748498
67.75 29.0814 5.39271731133758
67.8 28.9922 5.38444054661206
67.85 30.8621 5.55536677457033
67.9 29.6968 5.44947703912954
67.95 23.1593 4.81241103813878
68 37.237 6.10221271343437
68.05 47.3029 6.87771037482679
68.1 36.5204 6.04321106697425
68.15 22.8699 4.78224842516572
68.2 27.0532 5.2012690759083
68.25 30.0186 5.47892325188079
68.3 29.3976 5.42195536683953
68.35 36.1608 6.01338506999178
68.4 38.1949 6.1802022620623
68.45 25.113 5.01128725977667
68.5 31.2606 5.5911179561873
68.55 24.0944 4.90860468972599
68.6 35.8155 5.98460525013973
68.65 28.0562 5.29681036096253
68.7 29.9524 5.47287858443799
68.75 33.2882 5.7695927065955
68.8 31.9122 5.64908842203767
68.85 38.8314 6.23148457432095
68.9 23.4926 4.84691654559886
68.95 23.2675 4.8236397046214
69 26.387 5.13682781490678
69.05 36.1197 6.00996672203765
69.1 32.2208 5.67633684694628
69.15 32.6059 5.71015761603828
69.2 25.9057 5.08976423815485
69.25 32.1185 5.66731858995063
69.3 31.1064 5.57731118012972
69.35 34.9794 5.91433850908113
69.4 33.745 5.80904467188883
69.45 23.6497 4.86309572186277
69.5 33.0123 5.74563312438238
69.55 26.5557 5.15322229289597
69.6 33.0254 5.74677300752344
69.65 33.1165 5.75469373642073
69.7 35.0427 5.91968749175157
69.75 27.5498 5.24879033683
69.8 35.0384 5.919324285761
69.85 36.7104 6.05891079320368
69.9 32.9632 5.74135872420458
69.95 31.4947 5.6120138987711
70 27.4657 5.24077284377028
70.05 33.1267 5.75557990127841
70.1 38.0005 6.16445455819085
70.15 31.8719 5.64552034802816
70.2 37.2753 6.10535011281089
70.25 34.3637 5.86205595333241
70.3 23.7566 4.87407427107959
70.35 28.1673 5.30728744275265
70.4 37.4067 6.11610169961226
70.45 22.9688 4.79257759457267
70.5 31.928 5.65048670470076
70.55 44.3868 6.66234193058267
70.6 31.201 5.58578553114958
70.65 28.5096 5.33943817269195
70.7 24.3057 4.930081135235
70.75 37.0427 6.08627143660222
70.8 34.2611 5.85329821553626
70.85 30.085 5.48497948947852
70.9 27.4105 5.23550379619765
70.95 28.6587 5.35338210853662
71 28.4602 5.33481021218187
71.05 28.6236 5.35010280275062
71.1 26.8723 5.18384992066707
71.15 22.3872 4.7315113864388
71.2 33.4735 5.78562874716309
71.25 32.1809 5.67282116763784
71.3 24.7927 4.97922684761399
71.35 44.6924 6.68523746773441
71.4 28.3844 5.32770119282229
71.45 28.1466 5.30533693557723
71.5 33.4366 5.78243893180032
71.55 30.2427 5.49933632359397
71.6 23.8291 4.88150591518642
71.65 33.3372 5.77383754534192
71.7 25.7 5.06951674225463
71.75 27.607 5.2542363860032
71.8 19.1621 4.3774535976981
71.85 31.1641 5.58248152706303
71.9 27.5936 5.25296106972058
71.95 23.6766 4.86586066384972
72 32.5618 5.70629476981342
72.05 25.8804 5.08727825069555
72.1 26.7042 5.16761066644924
72.15 24.0798 4.90711728003316
72.2 27.2905 5.22403101062771
72.25 42.8731 6.54775534057283
72.3 26.896 5.18613536267614
72.35 27.4317 5.23752804288435
72.4 38.0354 6.16728465371917
72.45 30.8234 5.55188256359949
72.5 38.2014 6.18072811244759
72.55 30.708 5.54147994672903
72.6 31.526 5.61480186649538
72.65 27.1002 5.20578524336147
72.7 22.8975 4.78513322698543
72.75 36.7321 6.06070127955503
72.8 33.3501 5.77495454527566
72.85 32.3059 5.68382793546744
72.9 26.2356 5.12206989409555
72.95 22.718 4.76634031516844
73 37.7827 6.14676337595649
73.05 23.7533 4.87373573350053
73.1 42.2704 6.50156904139301
73.15 25.0225 5.00224949397768
73.2 31.1921 5.58498880929944
73.25 35.3926 5.94916800905807
73.3 38.2661 6.18595990934309
73.35 38.7191 6.22246735628239
73.4 28.473 5.33600974511854
73.45 23.7529 4.87369469704453
73.5 25.1527 5.01524675365031
73.55 24.6372 4.96358741234603
73.6 25.6533 5.064908686245
73.65 36.8527 6.07064247011797
73.7 32.0129 5.65799434428844
73.75 28.0983 5.3007829610351
73.8 39.7044 6.30114275350115
73.85 43.94 6.62872536767062
73.9 22.5243 4.74597724394039
73.95 19.6907 4.43742042182167
74 24.0012 4.8991019585226
74.05 32.2986 5.68318572633343
74.1 29.3505 5.41761017423735
74.15 31.8068 5.63975176758694
74.2 26.4025 5.13833630662688
74.25 45.0339 6.71073021362057
74.3 22.2783 4.71998940676777
74.35 24.3233 4.93186577270712
74.4 32.2941 5.68278980783206
74.45 22.8238 4.77742608524716
74.5 35.2499 5.93716262199377
74.55 26.6881 5.16605265168678
74.6 40.2591 6.34500591016273
74.65 32.833 5.73000872599685
74.7 30.7079 5.54147092386128
74.75 28.5221 5.34060857955346
74.8 31.8476 5.64336778882965
74.85 37.3846 6.11429472629509
74.9 33.8253 5.81595220062889
74.95 31.377 5.6015176514941
75 17.452 4.1775590959315
75.05 20.0884 4.48200847834986
75.1 29.4392 5.42579026502131
75.15 29.437 5.42558752578926
75.2 44.8091 6.69395996402727
75.25 30.8462 5.5539355415777
75.3 29.6844 5.44833919648915
75.35 40.4989 6.36387460592994
75.4 17.7371 4.21154365998977
75.45 26.4333 5.14133251210229
75.5 34.0073 5.83157783108483
75.55 45.7495 6.76383766806981
75.6 34.7307 5.89327582928205
75.65 37.3557 6.1119309551074
75.7 32.8451 5.73106447355114
75.75 22.7641 4.77117385975401
75.8 35.6716 5.97257063583178
75.85 38.005 6.1648195431821
75.9 41.2669 6.42393181781999
75.95 33.3903 5.77843404392574
76 23.9079 4.88957053328817
76.05 27.1995 5.21531398863002
76.1 39.0923 6.25238354549687
76.15 37.9874 6.1633919232838
76.2 34.3316 5.85931736638322
76.25 21.1496 4.59886942628294
76.3 31.2007 5.5857586772076
76.35 41.0046 6.40348342701065
76.4 24.5626 4.95606698905493
76.45 25.0687 5.00686528678374
76.5 33.8069 5.81437012925734
76.55 38.3092 6.18944262434026
76.6 30.3616 5.51013611447122
76.65 25.4398 5.04378825883879
76.7 23.7072 4.8690040049275
76.75 37.6505 6.13600032594523
76.8 31.2224 5.58770077939039
76.85 23.6278 4.86084354819202
76.9 30.5046 5.52309695732385
76.95 30.4192 5.51536036900582
77 30.5685 5.52887872900103
77.05 39.2029 6.2612219254711
77.1 29.8671 5.46508005430845
77.15 32.0944 5.66519196497347
77.2 28.5695 5.34504443386582
77.25 39.8286 6.31099041355634
77.3 37.5007 6.12378151145189
77.35 28.487 5.33732142558418
77.4 41.7761 6.46344335474521
77.45 25.6955 5.06907289353783
77.5 19.1317 4.37397988106941
77.55 38.7281 6.22319050005702
77.6 23.6798 4.86618947432177
77.65 36.0339 6.00282433526086
77.7 30.4979 5.52249038025418
77.75 29.8373 5.4623529728497
77.8 34.0671 5.83670283636232
77.85 29.7456 5.45395269506438
77.9 28.5961 5.34753214109088
77.95 38.2694 6.18622663665016
78 21.7657 4.66537243958079
78.05 31.0815 5.57507847478401
78.1 20.2366 4.49851086471957
78.15 34.9638 5.9130195331996
78.2 26.2727 5.12569019742707
78.25 20.9621 4.57843859847438
78.3 37.597 6.13163925879532
78.35 37.6739 6.13790680932841
78.4 34.9575 5.91248678645458
78.45 35.8858 5.99047577409341
78.5 27.7306 5.26598518797765
78.55 26.8447 5.18118712265828
78.6 28.0987 5.30082069117604
78.65 28.2653 5.31651201446964
78.7 24.0096 4.89995918350347
78.75 27.8296 5.27537676379612
78.8 37.5258 6.1258305559328
78.85 29.6115 5.4416449718812
78.9 44.0383 6.63613592386413
78.95 21.1929 4.60357469799285
79 36.6742 6.05592272077509
79.05 28.2846 5.31832680455047
79.1 22.2677 4.71886638929309
79.15 25.7594 5.07537190755515
79.2 29.271 5.4102680155423
79.25 34.0159 5.83231514923534
79.3 24.1482 4.91408180640087
79.35 23.1673 4.81324215056754
79.4 23.3847 4.83577294752349
79.45 42.7234 6.53631394594843
79.5 35.824 5.98531536345413
79.55 34.1676 5.84530580893763
79.6 40.2284 6.3425862233004
79.65 48.5436 6.9673237329695
79.7 34.3593 5.86168064636756
79.75 33.4347 5.78227463892887
79.8 31.9402 5.6515661546159
79.85 32.4671 5.69799087398357
79.9 27.6694 5.26017109987879
79.95 32.5838 5.70822214003625
80 25.718 5.07129174865734
80.05 34.5542 5.87828206196334
80.1 38.044 6.16798184173721
80.15 30.4233 5.51573204570345
80.2 36.4507 6.03744151110385
80.25 17.5662 4.19120507730175
80.3 33.9652 5.82796705550057
80.35 27.7507 5.26789331706708
80.4 32.6927 5.71775305517823
80.45 36.2733 6.02273193824862
80.5 33.9893 5.83003430521639
80.55 25.5229 5.05201939822087
80.6 32.9544 5.7405923039352
80.65 40.8675 6.39276935294869
80.7 36.5894 6.04891725848519
80.75 33.0876 5.75218219461102
80.8 32.8633 5.73265209130992
80.85 30.6866 5.53954871808165
80.9 31.9295 5.65061943507081
80.95 29.2801 5.41110894364547
81 31.614 5.6226328352472
81.05 31.8201 5.64093077426057
81.1 30.2072 5.49610771364609
81.15 43.7933 6.61765064052191
81.2 38.4246 6.19875794010381
81.25 39.8368 6.31164004043323
81.3 29.5264 5.43382001910258
81.35 37.2121 6.10017212871899
81.4 36.9564 6.07917757595548
81.45 43.7653 6.61553474784919
81.5 25.3464 5.03452083122118
81.55 51.2119 7.15624901746718
81.6 44.0111 6.63408622192989
81.65 38.7607 6.22580918435507
81.7 52.4286 7.24075962865776
81.75 44.1043 6.64110683546049
81.8 66.8045 8.17340198448602
81.85 143.0562 11.960610352319
81.9 216.2328 14.7048563406787
81.95 290.6449 17.0483107667593
82 274.7559 16.5757624259037
82.05 207.8073 14.4155228833366
82.1 129.9661 11.4002675407203
82.15 79.5738 8.92041478856225
82.2 64.4115 8.02567754149143
82.25 54.252 7.36559569892348
82.3 33.1205 5.75504126831424
82.35 43.6581 6.60742763865031
82.4 24.6954 4.96944664927595
82.45 31.8331 5.642082948699
82.5 22.5217 4.74570331984628
82.55 20.1836 4.49261616433009
82.6 40.2041 6.34067031156801
82.65 22.3341 4.72589674030231
82.7 24.3962 4.9392509553575
82.75 19.6983 4.43827669259139
82.8 23.1572 4.81219284734101
82.85 35.149 5.92865920761179
82.9 38.6991 6.22086006915443
82.95 35.1143 5.92573202229058
83 42.9279 6.55193864440136
83.05 24.2767 4.92713912935285
83.1 27.2717 5.22223132386914
83.15 27.1694 5.21242745752879
83.2 35.8198 5.98496449446444
83.25 36.1682 6.01400033255736
83.3 37.571 6.12951874130425
83.35 33.4148 5.78055360670585
83.4 33.7032 5.80544571932251
83.45 29.5694 5.43777528038811
83.5 39.2797 6.26735191288953
83.55 36.8067 6.06685256125448
83.6 31.5973 5.62114756966938
83.65 18.2166 4.26809090812274
83.7 40.201 6.34042585320576
83.75 27.6781 5.26099800418134
83.8 24.9246 4.99245430625058
83.85 24.8401 4.98398434989517
83.9 26.6431 5.16169545788978
83.95 24.3893 4.93855241948488
84 27.0661 5.2025090100835
84.05 26.0495 5.10387107987653
84.1 33.6444 5.80037929794251
84.15 30.5446 5.52671692779719
84.2 21.6652 4.65458913331778
84.25 26.4036 5.13844334404886
84.3 29.7713 5.45630827574836
84.35 36.8453 6.07003294883973
84.4 38.8515 6.2330971434753
84.45 32.2095 5.67534139942259
84.5 46.3439 6.80763541914518
84.55 21.7261 4.66112647328948
84.6 24.2856 4.92804220761146
84.65 26.9825 5.19446821147266
84.7 39.4781 6.28316003297704
84.75 30.3616 5.51013611447122
84.8 39.7477 6.30457770195594
84.85 25.2328 5.02322605503674
84.9 31.4426 5.60737015007927
84.95 29.0026 5.3854062056636
85 30.5465 5.52688881740894
85.05 23.1526 4.81171487102052
85.1 28.1398 5.30469603276191
85.15 25.3889 5.03873992184554
85.2 24.076 4.9067300720541
85.25 22.7587 4.77060792771739
85.3 36.3941 6.0327522740454
85.35 33.6634 5.80201689070275
85.4 31.7419 5.63399503017175
85.45 31.5708 5.61878990530879
85.5 30.6729 5.53831201721246
85.55 21.7551 4.66423627188846
85.6 30.3932 5.51300281153565
85.65 33.0183 5.74615523632977
85.7 26.872 5.18382098456341
85.75 35.8831 5.99025041212803
85.8 33.0391 5.74796485723425
85.85 34.5091 5.87444465460353
85.9 28.9544 5.38092928777177
85.95 29.9431 5.47202887419283
86 31.0234 5.5698653484622
86.05 36.4664 6.0387415907621
86.1 34.271 5.85414383150944
86.15 26.4279 5.14080732959328
86.2 27.5867 5.25230425622888
86.25 37.6704 6.13762168922132
86.3 21.7019 4.65852981100261
86.35 31.8972 5.64776061815655
86.4 19.0281 4.36212104371257
86.45 25.5928 5.05893269376061
86.5 32.299 5.6832209177543
86.55 30.5794 5.52986437446706
86.6 23.9731 4.89623324607805
86.65 26.9647 5.19275456766445
86.7 32.6719 5.7159338694565
86.75 32.9306 5.7385189726967
86.8 29.0313 5.38807015544527
86.85 19.8814 4.45885635561407
86.9 26.3688 5.13505598801026
86.95 32.8813 5.73422183037943
87 23.9041 4.88918193566163
87.05 20.4373 4.52076320990162
87.1 30.3572 5.50973683582075
87.15 29.5178 5.43302862131243
87.2 33.5634 5.79339278834087
87.25 32.1861 5.67327947487165
87.3 32.6756 5.71625751694236
87.35 24.5233 4.95210056440699
87.4 23.8391 4.88253008183257
87.45 36.8576 6.07104603836934
87.5 25.7935 5.07873015624969
87.55 33.6254 5.79874124271811
87.6 33.3446 5.77447833141661
87.65 37.8205 6.14983739622439
87.7 33.1439 5.75707390954815
87.75 24.8426 4.9842351469408
87.8 30.0717 5.48376695347277
87.85 43.4134 6.58888457935029
87.9 37.5086 6.12442650376343
87.95 29.9726 5.47472373732228
88 37.8351 6.15102430494304
88.05 37.8236 6.15008943024408
88.1 30.6329 5.53469963051293
88.15 28.2605 5.31606057151346
88.2 29.2286 5.40634812049687
88.25 19.0735 4.36732183380158
88.3 24.1651 4.91580105374495
88.35 33.3798 5.77752542183935
88.4 27.4199 5.23640143610094
88.45 38.2909 6.18796412400718
88.5 32.1219 5.667618547503
88.55 32.0321 5.65969080427544
88.6 30.2377 5.49888170449229
88.65 27.9363 5.28548011064274
88.7 41.3779 6.43256558458598
88.75 29.5291 5.43406845742672
88.8 28.1789 5.30838016724499
88.85 27.2133 5.21663684762511
88.9 35.5971 5.96633053056902
88.95 24.0818 4.90732106143464
89 25.4843 5.04819769818893
89.05 23.7669 4.87513076747691
89.1 29.7572 5.45501604030639
89.15 35.854 5.98782097260765
89.2 34.7701 5.89661767456565
89.25 23.6223 4.86027776983991
89.3 26.0842 5.10726932910337
89.35 25.5294 5.05266266437806
89.4 37.0251 6.08482538779873
89.45 29.4882 5.43030385890145
89.5 28.7004 5.35727542693112
89.55 31.8712 5.64545835163098
89.6 37.3003 6.1073971542712
89.65 36.9079 6.07518723991286
89.7 28.0458 5.29582854707363
89.75 26.5898 5.15652984089106
89.8 35.1473 5.92851583450698
89.85 27.5608 5.24983809274153
89.9 40.2889 6.34735377933198
89.95 26.1956 5.11816373321526
90 32.1435 5.66952378952589
90.05 27.3358 5.22836494518124
90.1 27.5323 5.24712302123745
90.15 27.1154 5.20724495294777
90.2 36.8002 6.06631683973068
90.25 38.5687 6.21037035932641
90.3 42.3208 6.50544387417185
90.35 31.1253 5.57900528768346
90.4 27.4038 5.23486389507884
90.45 38.9739 6.24290797625594
90.5 23.2891 4.82587815842879
90.55 23.9966 4.89863246222862
90.6 35.7662 5.9804849301708
90.65 33.0172 5.74605951935759
90.7 32.2544 5.67929573098637
90.75 33.6015 5.79668008432413
90.8 27.8716 5.27935602133442
90.85 28.1033 5.30125456849603
90.9 29.3979 5.42198303206493
90.95 28.9386 5.3794609395366
91 35.2069 5.93354025856402
91.05 43.3944 6.58744259937041
91.1 37.3452 6.11107191906625
91.15 37.3446 6.11102282764514
91.2 32.1108 5.66663921561978
91.25 37.0242 6.08475143288532
91.3 24.3902 4.93864353846276
91.35 34.2364 5.85118791357789
91.4 36.0752 6.00626339748766
91.45 20.2193 4.49658759505472
91.5 38.4791 6.20315242437263
91.55 39.8704 6.31430122816452
91.6 24.2696 4.92641857742519
91.65 35.7957 5.98295077699959
91.7 30.9341 5.561843219653
91.75 27.9409 5.285915247145
91.8 16.1617 4.02016168829066
91.85 30.7441 5.54473624259982
91.9 27.3766 5.23226528379439
91.95 30.2313 5.49829973719149
92 39.2128 6.26201245607193
92.05 30.9289 5.56137572907999
92.1 24.4575 4.94545245655036
92.15 42.0757 6.48657845092465
92.2 38.4988 6.20474012348624
92.25 34.077 5.83755085630952
92.3 27.7554 5.26833939681186
92.35 30.8108 5.55074769738276
92.4 23.9773 4.89666212842994
92.45 26.0911 5.10794479218403
92.5 27.054 5.20134597964796
92.55 29.8935 5.46749485596466
92.6 26.9395 5.19032754265085
92.65 33.6761 5.80311123450171
92.7 34.0419 5.83454368395678
92.75 29.1072 5.39510889602796
92.8 30.0785 5.48438693018645
92.85 27.8813 5.28027461407075
92.9 28.6604 5.35354088431199
92.95 25.1307 5.01305296201826
93 31.6887 5.62927171133176
93.05 38.6513 6.21701696957633
93.1 21.9358 4.68356701670853
93.15 37.0502 6.08688754619305
93.2 36.8965 6.07424892476428
93.25 29.4272 5.4246843226127
93.3 31.0848 5.5753744268883
93.35 26.7121 5.16837498639563
93.4 34.0615 5.83622309374822
93.45 37.8654 6.1534868164318
93.5 27.5723 5.25093325038512
93.55 29.5907 5.43973344935209
93.6 33.2258 5.76418250925489
93.65 35.9497 5.9958068681371
93.7 29.1955 5.40328603721846
93.75 31.656 5.6263665006823
93.8 36.8264 6.06847592069047
93.85 30.7403 5.54439356467414
93.9 28.9801 5.38331682144011
93.95 40.9982 6.40298367950442
94 40.4992 6.36389817643243
94.05 33.7542 5.80983648651147
94.1 27.6528 5.25859296770533
94.15 29.1442 5.39853683881105
94.2 33.7317 5.80789979252397
94.25 35.1704 5.93046372554457
94.3 38.2363 6.18355075987899
94.35 37.6384 6.13501426241211
94.4 22.0104 4.69152427255791
94.45 35.3211 5.94315572738928
94.5 26.2306 5.1215817869092
94.55 36.024 6.00199966677773
94.6 34.6447 5.88597485553583
94.65 16.1026 4.01280450557961
94.7 39.8686 6.31415869296932
94.75 44.0243 6.635081009302
94.8 36.6945 6.05759853407272
94.85 30.6007 5.53178994539742
94.9 29.613 5.44178279610644
94.95 35.4739 5.95599697783671
95 25.0578 5.00577666301644
95.05 35.8195 5.98493943160664
95.1 31.4853 5.61117634725554
95.15 26.606 5.15810042554427
95.2 45.238 6.72592001141851
95.25 30.3442 5.50855697982693
95.3 28.6387 5.35151380452298
95.35 22.3743 4.73014798922824
95.4 24.2878 4.92826541493049
95.45 34.9847 5.91478655574316
95.5 23.9004 4.88880353460844
95.55 37.6729 6.13782534779216
95.6 26.8391 5.18064667778068
95.65 23.1859 4.81517393247637
95.7 28.3932 5.32852700096378
95.75 30.3275 5.50704094773228
95.8 27.1047 5.20621743687296
95.85 31.8623 5.64467005235913
95.9 23.8744 4.88614367369606
95.95 32.8365 5.73031412751518
96 28.1941 5.30981167274321
96.05 37.3664 6.11280622954793
96.1 31.3091 5.5954535115574
96.15 34.2556 5.85282837609305
96.2 26.9418 5.19054910390028
96.25 19.7194 4.44065310511866
96.3 29.0873 5.3932643176466
96.35 18.7806 4.33365896212427
96.4 38.8943 6.23652948361507
96.45 28.8404 5.37032587465603
96.5 34.4553 5.86986371221683
96.55 31.0414 5.57148095213472
96.6 41.9798 6.47918204714144
96.65 18.2111 4.26744654330901
96.7 30.3064 5.50512488505029
96.75 29.0169 5.38673370420332
96.8 34.3027 5.85685068957712
96.85 37.4338 6.11831676198609
96.9 28.5233 5.34072092511863
96.95 33.9341 5.82529827562503
97 26.9105 5.18753313242431
97.05 31.8734 5.6456531951582
97.1 35.753 5.97938123889086
97.15 30.4285 5.51620340451655
97.2 36.5373 6.04460916850709
97.25 31.3921 5.60286533837821
97.3 28.4247 5.33148197033433
97.35 29.1377 5.39793479026933
97.4 31.7244 5.63244174403961
97.45 30.3743 5.51128841560664
97.5 38.0119 6.16537914487017
97.55 26.9417 5.19053947099914
97.6 37.8759 6.15433993211295
97.65 33.8959 5.8220185502968
97.7 33.5212 5.78974956280494
97.75 34.8924 5.90697892327372
97.8 22.9637 4.79204549227154
97.85 38.7239 6.22285304341987
97.9 39.1241 6.25492605871564
97.95 31.8859 5.64676013303204
98 34.044 5.83472364384124
98.05 32.7828 5.72562660326361
98.1 39.2913 6.26827727529662
98.15 36.103 6.00857720263292
98.2 32.3918 5.69137944614485
98.25 37.4701 6.12128254534946
98.3 54.7013 7.39603272031702
98.35 54.6695 7.39388260658769
98.4 87.767 9.36840434652561
98.45 96.0635 9.80119890625632
98.5 142.2725 11.9278036536489
98.55 175.1643 13.2349650547329
98.6 149.9352 12.2448029792235
98.65 78.8086 8.87742079660528
98.7 71.1582 8.43553199270799
98.75 58.9832 7.68005208315673
98.8 56.3164 7.50442536107862
98.85 51.4275 7.1712969538292
98.9 31.3937 5.60300812064377
98.95 32.5308 5.70357782448877
99 28.9617 5.38160756651765
99.05 30.6196 5.53349798951802
99.1 25.8141 5.0807578174914
99.15 37.2089 6.09990983539921
99.2 30.5847 5.53034356979745
99.25 29.8272 5.46142838458951
99.3 28.2052 5.31085680469734
99.35 28.0686 5.29798074741689
99.4 26.4244 5.1404669048638
99.45 40.463 6.3610533718874
99.5 32.8978 5.73566038046187
99.55 33.6425 5.80021551323742
99.6 33.6728 5.80282689729756
99.65 36.4417 6.03669611625432
99.7 33.0097 5.74540686113699
99.75 27.9993 5.291436477933
99.8 30.7787 5.54785544151972
99.85 34.2843 5.85527966881173
99.9 28.6698 5.35441873596005
99.95 33.2344 5.76492844708414
100 28.367 5.32606796802294
100.05 25.018 5.00179967611659
100.1 33.0768 5.75124334383444
100.15 34.3151 5.85790918331788
100.2 37.4853 6.12252398933642
100.25 29.244 5.40777218455068
100.3 30.6468 5.53595520213088
100.35 28.3451 5.32401164536668
100.4 20.4901 4.52659916493608
100.45 37.7685 6.14560818796643
100.5 30.7137 5.54199422590822
100.55 26.5569 5.15333872358493
100.6 26.6792 5.1651911871682
100.65 20.9182 4.57364187491762
100.7 24.9869 4.99868982834502
100.75 38.4795 6.2031846659599
100.8 18.9526 4.35345839534502
100.85 21.8757 4.67714656601651
100.9 31.0708 5.57411876443263
100.95 33.5035 5.78822079744717
101 25.5673 5.05641177120693
101.05 34.7274 5.89299584252356
101.1 29.6385 5.44412527409133
101.15 35.2055 5.93342228397743
101.2 27.5036 5.2443874761501
101.25 29.6971 5.44950456463705
101.3 30.0597 5.4826727058981
101.35 31.2118 5.58675218709404
101.4 30.3939 5.51306629744283
101.45 31.9284 5.65052209977096
101.5 31.0182 5.56939853125991
101.55 21.3678 4.62253177382265
101.6 29.7257 5.45212802490917
101.65 35.3418 5.94489697135283
101.7 27.2216 5.21743231867937
101.75 23.161 4.81258766153927
101.8 23.666 4.86477132042196
101.85 33.0992 5.75319041923697
101.9 28.6353 5.35119612796989
101.95 18.5523 4.30723809418518
102 26.3693 5.13510467274037
102.05 23.9937 4.89833645230705
102.1 30.8358 5.55299918962717
102.15 30.5364 5.52597502708798
102.2 42.0305 6.48309339744539
102.25 31.1821 5.58409348059289
102.3 33.9749 5.82879919022778
102.35 24.6443 4.96430256934446
102.4 26.6436 5.16174389136075
102.45 24.4435 4.94403681216069
102.5 32.6033 5.70992994703087
102.55 23.3981 4.83715825666269
102.6 33.556 5.7927540945564
102.65 25.8949 5.08870317468017
102.7 21.88 4.6776062254106
102.75 29.8878 5.46697356862094
102.8 41.1506 6.41487334247528
102.85 30.6503 5.53627130838076
102.9 20.8556 4.56679318559534
102.95 40.604 6.37212680350917
103 34.3555 5.86135649828604
103.05 32.5981 5.70947458178071
103.1 26.503 5.14810644800591
103.15 32.8507 5.73155301816183
103.2 30.3143 5.50584235153895
103.25 34.0786 5.83768789847487
103.3 35.5484 5.96224789823436
103.35 31.3486 5.59898205033736
103.4 27.9573 5.28746631194942
103.45 31.5736 5.61903906375458
103.5 34.8346 5.90208437757374
103.55 27.9009 5.2821302520858
103.6 27.3008 5.22501674638465
103.65 28.3029 5.32004699227366
103.7 38.0814 6.17101288282564
103.75 29.4334 5.42525575434007
103.8 22.3232 4.72474337927469
103.85 22.8946 4.78483019552418
103.9 24.9668 4.9966788970275
103.95 31.4525 5.60825284736699
104 19.6575 4.43367793146954
104.05 28.2642 5.31640856217804
104.1 27.8788 5.28003787865201
104.15 35.6017 5.96671601469351
104.2 31.7745 5.6368874390039
104.25 19.4315 4.40811751204525
104.3 25.4406 5.04386756368563
104.35 28.7715 5.36390715803322
104.4 33.7288 5.80765012720291
104.45 42.3907 6.51081408120367
104.5 29.3539 5.41792395664613
104.55 27.3638 5.23104196121576
104.6 27.6306 5.25648171308528
104.65 35.6325 5.96929644095516
104.7 33.3477 5.77474674769379
104.75 31.448 5.60785163855108
104.8 35.1378 5.92771456802704
104.85 28.4487 5.33373227674581
104.9 31.5716 5.61886109456356
104.95 19.5073 4.41670691805558
105 14.1261 3.75847043356736
105.05 37.1874 6.0981472596191
105.1 29.9586 5.47344498465089
105.15 24.3348 4.93303152229945
105.2 27.9106 5.28304836245136
105.25 36.7571 6.06276339633999
105.3 31.5485 5.61680514171535
105.35 29.2946 5.41244861407478
105.4 22.7331 4.76792407657672
105.45 33.5263 5.79018997961207
105.5 33.5231 5.78991364357017
105.55 32.4912 5.70010526218595
105.6 32.3324 5.68615863303162
105.65 25.4126 5.04109115172499
105.7 25.0207 5.0020695716873
105.75 29.7852 5.45758188211592
105.8 29.9864 5.47598392985224
105.85 27.4835 5.24247079152569
105.9 32.1259 5.6679714184177
105.95 23.8425 4.88287824955732
106 34.5792 5.88040814909986
106.05 25.1896 5.0189241875127
106.1 24.7179 4.97170996740558
106.15 32.7138 5.7195978879638
106.2 30.2593 5.50084538957422
106.25 25.6181 5.06143260352245
106.3 35.9896 5.9991332707317
106.35 30.8692 5.55600575953625
106.4 34.4048 5.86556050177645
106.45 25.9694 5.09601805334322
106.5 28.007 5.29216401862225
106.55 28.7102 5.35818999289872
106.6 36.5156 6.04281391406355
106.65 34.401 5.86523656811897
106.7 40.8385 6.39050076285106
106.75 34.8208 5.90091518325759
106.8 36.971 6.08037827770608
106.85 37.5486 6.12769124548553
106.9 31.5452 5.61651137272952
106.95 34.3296 5.85914669555218
107 25.4439 5.04419468299946
107.05 27.1328 5.2089154341379
107.1 26.3332 5.13158844803439
107.15 20.9965 4.58219379773488
107.2 22.7355 4.76817575179439
107.25 30.9622 5.56436878720309
107.3 39.2024 6.26118199703538
107.35 26.8666 5.18330010707464
107.4 23.1226 4.80859646882539
107.45 31.0539 5.57260262355033
107.5 37.0226 6.08461995526426
107.55 31.929 5.65057519196055
107.6 26.6498 5.16234442864867
107.65 22.2174 4.71353370625479
107.7 22.1043 4.70152103047514
107.75 32.7708 5.72457858711015
107.8 29.9189 5.46981718158843
107.85 28.3623 5.32562672368239
107.9 37.554 6.12813185236741
107.95 42.3227 6.5055899040748
108 35.7263 5.97714814941039
108.05 35.857 5.98807147585932
108.1 32.5386 5.70426156483028
108.15 22.7473 4.76941296178052
108.2 29.4415 5.42600221157345
108.25 39.5908 6.29212205857452
108.3 24.7256 4.97248428856241
108.35 23.8268 4.88127032646216
108.4 23.2879 4.8257538271238
108.45 31.6727 5.62785038891405
108.5 27.8009 5.27265587725958
108.55 31.0793 5.57488116465275
108.6 37.6384 6.13501426241211
108.65 28.6198 5.34974765760031
108.7 22.4109 4.73401520910104
108.75 30.7733 5.54736874563067
108.8 32.7054 5.71886352346338
108.85 23.3563 4.83283560655647
108.9 28.6506 5.35262552398353
108.95 29.5244 5.43363598339086
109 34.757 5.8955067636294
109.05 23.834 4.882007783689
109.1 34.6695 5.88808118150557
109.15 42.8421 6.5453876890525
109.2 38.2365 6.18356693179592
109.25 37.2833 6.10600524074456
109.3 30.9802 5.56598598632803
109.35 38.9439 6.24050478727482
109.4 36.4939 6.04101812611086
109.45 19.5085 4.41684276378501
109.5 40.3349 6.35097630290021
109.55 27.8713 5.2793276087017
109.6 38.2935 6.18817420569266
109.65 34.9251 5.90974618744325
109.7 32.1224 5.66766265756881
109.75 28.6206 5.34982242695961
109.8 24.1501 4.91427512457331
109.85 27.36 5.23067873224881
109.9 25.2803 5.02795186930026
109.95 36.0257 6.00214128457503
110 26.4752 5.14540571772528
110.05 27.6665 5.25989543622304
110.1 36.6578 6.05456852302458
110.15 25.1155 5.01153669047728
110.2 30.7021 5.54094757239229
110.25 37.6514 6.13607366318235
110.3 20.5358 4.53164429318984
110.35 34.6298 5.88470899875261
110.4 21.3912 4.62506216174442
110.45 35.5146 5.95941272274374
110.5 28.685 5.35583793630838
110.55 28.9955 5.38474697641403
110.6 15.0284 3.87664803664196
110.65 22.8096 4.77593969811178
110.7 34.2341 5.85099136899039
110.75 32.2049 5.67493612298852
110.8 34.1931 5.84748663957431
110.85 36.6209 6.05152047009675
110.9 44.6155 6.67948351296715
110.95 25.3971 5.03955355165515
111 37.8916 6.15561532261398
111.05 34.3463 5.86057164447292
111.1 20.2953 4.50503052153923
111.15 38.9504 6.24102555674947
111.2 34.259 5.85311882674528
111.25 25.9922 5.09825460329317
111.3 28.705 5.35770473243907
111.35 30.9761 5.56561766563245
111.4 28.4137 5.33045026240748
111.45 32.1019 5.66585386327604
111.5 25.7493 5.07437680902788
111.55 12.9785 3.60256852814766
111.6 26.4031 5.13839469095164
111.65 33.0084 5.74529372617275
111.7 31.9115 5.64902646479905
111.75 33.9445 5.82619086539396
111.8 23.0336 4.79933328703061
111.85 31.9009 5.6480881721163
111.9 34.7549 5.89532865920128
111.95 24.9991 4.99990999918999
112 26.0709 5.1059670974263
112.05 22.6419 4.75835055455144
112.1 31.1457 5.58083327111642
112.15 31.8968 5.64772520577976
112.2 31.0514 5.57237830732982
112.25 31.404 5.60392719438788
112.3 21.7486 4.66353942837412
112.35 31.3795 5.60174080085825
112.4 23.4629 4.84385177312436
112.45 26.2762 5.12603160349212
112.5 27.6488 5.25821262407674
112.55 31.4121 5.60464985525412
112.6 33.1484 5.75746471982243
112.65 30.7852 5.5484412225417
112.7 30.5693 5.52895107592751
112.75 30.1699 5.49271335498222
112.8 25.5044 5.05018811530818
112.85 33.0399 5.74803444666088
112.9 27.6423 5.25759450699652
112.95 32.3311 5.68604431920821
113 37.8278 6.15043087921489
113.05 25.6658 5.06614251674783
113.1 32.8365 5.73031412751518
113.15 32.557 5.70587416615544
113.2 29.4857 5.43007366432537
113.25 33.8951 5.82194984519791
113.3 47.3372 6.88020348536292
113.35 35.0248 5.91817539449449
113.4 31.3913 5.60279394588093
113.45 29.5805 5.43879582260632
113.5 33.4443 5.78310470249329
113.55 27.2632 5.22141743207723
113.6 28.482 5.33685300528317
113.65 30.069 5.48352076680667
113.7 28.6897 5.35627669188215
113.75 40.8144 6.38861487335087
113.8 25.5573 5.05542283098061
113.85 29.2149 5.40508094296468
113.9 34.9874 5.91501479288091
113.95 35.7982 5.983159700359
114 35.8494 5.98743684726612
114.05 36.521 6.04326070925291
114.1 36.0452 6.0037654850935
114.15 30.4147 5.51495240233313
114.2 23.229 4.81964728999955
114.25 25.9045 5.08964635313693
114.3 29.9803 5.47542692399415
114.35 32.2881 5.6822618735852
114.4 24.9127 4.99126236537411
114.45 43.0524 6.5614327703635
114.5 29.776 5.45673895289119
114.55 31.2641 5.59143094386401
114.6 30.4324 5.51655689719593
114.65 28.5292 5.34127325644364
114.7 27.8649 5.27872143610553
114.75 25.6179 5.06141284623177
114.8 26.8884 5.18540258803499
114.85 31.7634 5.63590276708177
114.9 25.6432 5.06391153161269
114.95 36.6152 6.05104949574865
115 32.6927 5.71775305517823
115.05 27.348 5.2295315277757
115.1 42.9874 6.55647771291873
115.15 29.0172 5.38676155031945
115.2 41.6281 6.45198419092918
115.25 30.8596 5.55514176236755
115.3 36.8494 6.07037066413576
115.35 36.2771 6.02304740144057
115.4 33.6016 5.79668870994467
115.45 41.1473 6.41461612257507
115.5 39.9525 6.32079900012649
115.55 54.0838 7.35416888574093
115.6 50.0109 7.07183851625587
115.65 41.9684 6.47830224673101
115.7 68.419 8.27157784222575
115.75 87.2745 9.34208220901529
115.8 82.9255 9.10634394254906
115.85 93.8812 9.68923113564745
115.9 109.4747 10.4630158176312
115.95 102.8943 10.1436827631783
116 101.0459 10.0521589720816
116.05 89.0036 9.43417192974561
116.1 77.2307 8.78809990839886
116.15 64.8604 8.05359547034739
116.2 59.0346 7.68339768591995
116.25 51.3947 7.16900969451151
116.3 49.4105 7.02926027402599
116.35 34.2978 5.85643236108811
116.4 45.2132 6.72407614472055
116.45 31.9799 5.65507736463437
116.5 41.3841 6.43304748933194
116.55 35.3809 5.948184597001
116.6 32.4825 5.69934206729163
116.65 30.301 5.50463441111215
116.7 35.5023 5.95838065249276
116.75 43.4434 6.59116074754667
116.8 29.3524 5.41778552547072
116.85 37.6672 6.13736099638925
116.9 28.3644 5.32582387992694
116.95 32.6981 5.71822524914855
117 38.2624 6.18566083777635
117.05 37.7919 6.14751169173349
117.1 34.0875 5.83845013680857
117.15 37.0611 6.08778284763838
117.2 41.3429 6.42984447712384
117.25 37.4144 6.11673115315689
117.3 29.5256 5.43374640556587
117.35 29.748 5.45417271453701
117.4 27.9439 5.28619901252308
117.45 22.2721 4.71933257993119
117.5 31.2497 5.59014311086935
117.55 36.1227 6.010216302264
117.6 32.4432 5.69589325742679
117.65 35.9148 5.99289579418831
117.7 35.0492 5.92023648176321
117.75 28.649 5.35247606253405
117.8 31.3177 5.59622193984477
117.85 41.8547 6.46952084779082
117.9 30.2033 5.4957529056536
117.95 39.3192 6.27050237221867
118 34.1025 5.83973458300974
118.05 30.3375 5.50794880150497
118.1 29.1348 5.3976661623335
118.15 25.5635 5.0560359967073
118.2 32.4712 5.698350638562
118.25 45.5611 6.74989629549966
118.3 32.2705 5.6807129834203
118.35 35.8226 5.98519840940967
118.4 26.1484 5.11355062554386
118.45 25.6281 5.0624203697441
118.5 31.7183 5.63190021218416
118.55 22.3543 4.7280334178176
118.6 19.0288 4.36220127917087
118.65 41.9202 6.47458106752862
118.7 25.9107 5.0902553963431
118.75 25.2864 5.02855844154167
118.8 36.8822 6.07307171042793
118.85 29.9725 5.47471460443373
118.9 30.195 5.49499772520426
118.95 18.6657 4.3203819275615
119 30.4547 5.5185777153176
119.05 33.492 5.78722731539033
119.1 21.9685 4.68705664569994
119.15 28.1088 5.30177328824989
119.2 27.2655 5.22163767414017
119.25 27.2455 5.21972221483098
119.3 20.4133 4.51810801110376
119.35 35.4464 5.95368793270188
119.4 30.2571 5.50064541667612
119.45 35.4604 5.9548635584705
119.5 32.9284 5.73832728240556
119.55 32.9706 5.74200313479538
119.6 28.1129 5.30215993723313
119.65 37.936 6.15922072993005
119.7 28.0067 5.29213567475362
119.75 35.0161 5.9174403250054
119.8 24.6493 4.96480613921631
119.85 26.9572 5.19203235737221
119.9 21.6164 4.64934403975443
119.95 32.4895 5.69995614018213
120 29.5459 5.43561404075013
120.05 30.7166 5.54225585840279
120.1 25.9023 5.08943022351226
120.15 34.0824 5.83801336072469
120.2 35.1449 5.92831341951486
120.25 35.3974 5.94957141313557
120.3 41.968 6.47827137437141
120.35 30.3363 5.50783986695329
120.4 24.5259 4.95236307231205
120.45 27.9184 5.28378652104719
120.5 27.1235 5.20802265740079
120.55 21.6705 4.65515842909777
120.6 26.7927 5.17616653518799
120.65 29.4254 5.42451841180395
120.7 30.943 5.56264325658225
120.75 33.3183 5.7722006202141
120.8 32.5712 5.70711836218595
120.85 31.5323 5.61536285559535
120.9 33.5668 5.7936862186349
120.95 31.0591 5.57306917236813
121 34.5544 5.87829907371171
121.05 30.1377 5.48978141641359
121.1 28.6428 5.35189685999273
121.15 23.8618 4.88485414316538
121.2 36.9749 6.08069897298
121.25 27.6257 5.2560156011945
121.3 27.337 5.22847970255217
121.35 31.5701 5.61872761397098
121.4 28.0657 5.29770705116846
121.45 32.355 5.68814556775756
121.5 28.2736 5.31729254414312
121.55 29.9806 5.4754543190497
121.6 33.0401 5.74805184388589
121.65 30.774 5.54743183824732
121.7 28.2456 5.31465897306685
121.75 29.9864 5.47598392985224
121.8 24.4384 4.94352101239592
121.85 30.6023 5.53193456215816
121.9 36.9381 6.07767225177535
121.95 30.6832 5.53924182537647
122 32.2639 5.68013204071877
122.05 32.267 5.68040491514469
122.1 18.864 4.34327065700493
122.15 31.1555 5.58171120714786
122.2 31.5737 5.61904796206617
122.25 33.4007 5.77933387164992
122.3 29.1426 5.39838864847651
122.35 39.603 6.29309145015389
122.4 32.6029 5.70989492022401
122.45 29.0963 5.39409862720362
122.5 32.4757 5.69874547597978
122.55 24.7377 4.9737008353941
122.6 29.4606 5.42776196972564
122.65 35.3524 5.9457884254319
122.7 36.0581 6.00483971476342
122.75 20.7955 4.56020832857447
122.8 35.5718 5.96420992252956
122.85 37.2181 6.10066389829828
122.9 37.5512 6.12790339349439
122.95 37.1207 6.09267593098468
123 33.3838 5.77787158043513
123.05 32.9329 5.73871936933668
123.1 34.2255 5.85025640463732
123.15 29.554 5.43635907570499
123.2 33.2409 5.76549217326674
123.25 39.4044 6.27729240994874
123.3 33.4958 5.78755561528354
123.35 28.1361 5.30434727369919
123.4 30.2448 5.49952725240997
123.45 20.7403 4.55415195179081
123.5 32.7434 5.72218489739715
123.55 23.9314 4.89197301709648
123.6 27.2929 5.22426071324929
123.65 31.2048 5.58612566990754
123.7 34.0787 5.83769646350339
123.75 32.4896 5.69996491217271
123.8 29.5466 5.43567843051813
123.85 36.1099 6.00915135439273
123.9 42.392 6.51091391434413
123.95 31.7634 5.63590276708177
124 29.301 5.41303981141835
124.05 26.2092 5.11949216231454
124.1 28.6066 5.34851381226598
124.15 26.3878 5.13690568338567
124.2 41.0753 6.40900148229036
124.25 26.5126 5.14903874524168
124.3 25.2987 5.02978130737312
124.35 31.066 5.57368818647043
124.4 25.273 5.02722587517211
124.45 29.0605 5.39077916446222
124.5 30.5664 5.52868881381472
124.55 26.4755 5.1454348698628
124.6 42.1765 6.49434369278374
124.65 28.7187 5.35898311249438
124.7 32.2367 5.67773722533898
124.75 36.3512 6.0291956345768
124.8 26.2708 5.12550485318276
124.85 26.4635 5.14426865550391
124.9 38.5908 6.21214938648452
124.95 43.3843 6.58667594466283
125 26.1098 5.10977494612043
125.05 36.032 6.0026660743373
125.1 31.2781 5.59268271941114
125.15 33.0854 5.7519909596591
125.2 29.4553 5.42727371707011
125.25 27.8909 5.28118357946398
125.3 26.6036 5.15786777651386
125.35 32.4503 5.69651647939335
125.4 25.5421 5.05391927121912
125.45 27.0961 5.20539143580961
125.5 33.0216 5.7464423776803
125.55 33.5824 5.79503235538854
125.6 26.5165 5.14941744277933
125.65 32.5833 5.70817834339468
125.7 22.7467 4.76935006054284
125.75 34.1726 5.84573348691163
125.8 20.1403 4.48779455857774
125.85 30.3211 5.50645984276649
125.9 27.8594 5.27820045091128
125.95 24.3589 4.93547363481966
126 33.9867 5.82981131770146
126.05 22.4012 4.73299059792009
126.1 30.5936 5.53114816290434
126.15 29.8227 5.46101638891516
126.2 25.3968 5.03952378702591
126.25 39.9681 6.32203290089509
126.3 29.6595 5.44605361706989
126.35 31.3668 5.60060710994799
126.4 36.6043 6.05014875850173
126.45 28.7576 5.36261130420619
126.5 28.6985 5.35709809505109
126.55 34.501 5.8737551872716
126.6 33.0464 5.74859982952371
126.65 29.0575 5.39050090436872
126.7 24.4668 4.94639262493385
126.75 30.8111 5.55077472070341
126.8 34.9943 5.91559802555921
126.85 26.4599 5.1439187396381
126.9 33.2128 5.7630547455321
126.95 35.2708 5.93892246118772
127 33.601 5.7966369560289
127.05 27.2159 5.21688604437551
127.1 34.3094 5.85742264140125
127.15 21.4434 4.6307018906425
127.2 24.4776 4.94748420917136
127.25 35.6697 5.97241157322568
127.3 39.3669 6.27430474235991
127.35 31.0778 5.57474663101383
127.4 20.5839 4.53694831356938
127.45 47.3919 6.88417751078515
127.5 41.4316 6.43673830445203
127.55 19.9053 4.46153561007866
127.6 40.4927 6.36338746266483
127.65 42.2542 6.50032306889435
127.7 39.1829 6.25962458938234
127.75 31.3975 5.60334721394275
127.8 28.4898 5.33758372299676
127.85 22.7292 4.76751507601182
127.9 29.8441 5.46297537977246
127.95 36.7247 6.06009075839628
128 34.4122 5.86619126861714
128.05 29.2508 5.40840087271645
128.1 29.988 5.47613002037023
128.15 41.4279 6.43645088538707
128.2 31.543 5.6163155182023
128.25 32.574 5.70736366460032
128.3 38.677 6.21908353376926
128.35 25.9854 5.0975876647685
128.4 31.3475 5.59888381733359
128.45 39.117 6.25435848029196
128.5 24.2184 4.92121936109335
128.55 29.8625 5.46465918424928
128.6 29.4369 5.42557831018962
128.65 25.1444 5.01441920864221
128.7 32.0295 5.65946110508766
128.75 29.566 5.43746264354984
128.8 22.1094 4.70206337685914
128.85 31.5897 5.62047151046956
128.9 25.1151 5.01149678239945
128.95 23.7295 4.8712934627263
129 34.0974 5.8392979030017
129.05 28.2289 5.31308761456086
129.1 36.5945 6.04933880684493
129.15 31.9385 5.65141575182715
129.2 37.1152 6.09222455265726
129.25 29.2997 5.41291972968379
129.3 31.8212 5.64102827505766
129.35 29.0208 5.38709569248589
129.4 19.7078 4.43934679879822
129.45 27.1898 5.21438395210786
129.5 35.9388 5.99489783065567
129.55 21.8171 4.6708778618157
129.6 29.7603 5.45530017505911
129.65 25.459 5.04569123113969
129.7 28.7524 5.36212644386534
129.75 30.0029 5.47749030122373
129.8 34.3542 5.8612456014059
129.85 31.4646 5.60933151097348
129.9 32.1575 5.67075832671434
129.95 22.4804 4.7413500187183
130 17.3401 4.16414457001675
130 17.3401 4.16414457001675
