40.0000 41.6084
40.0500 41.3732
40.1000 39.3909
40.1500 34.0527
40.2000 51.7072
40.2500 33.3644
40.3000 34.1208
40.3500 45.0854
40.4000 43.7180
40.4500 40.0726
40.5000 42.4308
40.5500 32.6221
40.6000 49.6135
40.6500 44.5603
40.7000 40.4635
40.7500 45.8025
40.8000 40.2386
40.8500 41.2022
40.9000 36.0483
40.9500 32.6445
41.0000 36.4433
41.0500 41.9755
41.1000 43.1043
41.1500 44.7385
41.2000 33.2086
41.2500 41.0334
41.3000 49.2402
41.3500 51.1746
41.4000 39.9609
41.4500 36.6537
41.5000 35.5346
41.5500 39.5538
41.6000 48.3490
41.6500 29.2995
41.7000 27.8307
41.7500 19.7892
41.8000 39.0971
41.8500 39.5082
41.9000 45.4240
41.9500 41.5289
42.0000 50.6490
42.0500 41.1252
42.1000 45.5129
42.1500 31.7323
42.2000 40.5881
42.2500 36.6979
42.3000 48.8740
42.3500 33.1446
42.4000 35.3835
42.4500 44.4612
42.5000 36.1546
42.5500 31.6656
42.6000 45.8615
42.6500 44.1566
42.7000 44.6732
42.7500 33.1598
42.8000 44.4974
42.8500 28.9630
42.9000 30.5308
42.9500 39.2837
43.0000 37.9898
43.0500 55.4978
43.1000 42.4278
43.1500 44.4926
43.2000 31.4849
43.2500 48.1052
43.3000 31.9050
43.3500 38.4255
43.4000 33.6195
43.4500 45.6728
43.5000 31.6897
43.5500 43.0563
43.6000 48.0764
43.6500 47.1378
43.7000 42.6213
43.7500 32.8943
43.8000 52.7252
43.8500 47.2311
43.9000 46.9354
43.9500 70.6801
44.0000 74.1863
44.0500 66.6794
44.1000 64.9795
44.1500 81.3858
44.2000 150.2256
44.2500 376.5679
44.3000 1176.3809
44.3500 2125.2429
44.4000 2237.6953
44.4500 1419.8086
44.5000 485.2942
44.5500 170.7101
44.6000 98.3437
44.6500 85.3971
44.7000 54.8194
44.7500 43.8562
44.8000 38.7618
44.8500 37.2706
44.9000 44.7852
44.9500 44.9820
45.0000 38.4591
45.0500 39.3670
45.1000 49.4569
45.1500 32.8633
45.2000 33.8740
45.2500 21.7433
45.3000 48.3717
45.3500 31.8629
45.4000 40.0403
45.4500 49.4561
45.5000 34.2525
45.5500 38.7812
45.6000 34.0433
45.6500 43.7335
45.7000 44.9794
45.7500 45.6456
45.8000 37.8456
45.8500 39.6877
45.9000 43.9338
45.9500 36.9527
46.0000 30.6545
46.0500 35.4624
46.1000 30.6217
46.1500 40.2788
46.2000 39.9403
46.2500 32.5798
46.3000 48.2729
46.3500 32.2396
46.4000 42.5938
46.4500 34.3645
46.5000 36.2828
46.5500 37.8232
46.6000 34.2768
46.6500 39.3162
46.7000 39.2707
46.7500 42.3558
46.8000 34.6439
46.8500 52.0943
46.9000 24.6823
46.9500 40.2140
47.0000 31.5665
47.0500 39.6051
47.1000 32.9351
47.1500 40.2737
47.2000 39.8947
47.2500 29.0729
47.3000 34.9177
47.3500 39.6427
47.4000 32.5465
47.4500 31.2291
47.5000 43.5661
47.5500 34.0716
47.6000 42.5466
47.6500 40.6622
47.7000 37.5218
47.7500 44.2992
47.8000 30.3641
47.8500 27.0784
47.9000 29.9244
47.9500 32.0346
48.0000 40.6769
48.0500 36.3750
48.1000 27.9455
48.1500 35.4625
48.2000 35.7628
48.2500 26.6587
48.3000 34.0419
48.3500 32.4406
48.4000 31.2902
48.4500 27.5802
48.5000 34.6311
48.5500 33.2510
48.6000 33.3363
48.6500 27.5308
48.7000 30.7076
48.7500 27.6453
48.8000 31.3686
48.8500 29.8665
48.9000 31.5104
48.9500 26.9305
49.0000 37.4480
49.0500 36.5054
49.1000 32.6940
49.1500 36.5226
49.2000 36.0171
49.2500 38.2943
49.3000 30.7379
49.3500 25.5615
49.4000 34.8263
49.4500 32.3919
49.5000 38.5315
49.5500 35.7423
49.6000 30.3529
49.6500 25.9672
49.7000 36.9647
49.7500 29.8381
49.8000 36.1750
49.8500 35.3538
49.9000 35.8182
49.9500 34.7920
50.0000 36.8928
50.0500 32.3026
50.1000 33.5798
50.1500 36.4026
50.2000 42.8186
50.2500 26.9869
50.3000 36.1098
50.3500 29.6708
50.4000 41.6269
50.4500 32.4383
50.5000 33.5443
50.5500 26.5475
50.6000 25.6701
50.6500 35.2966
50.7000 37.4436
50.7500 28.8811
50.8000 30.1124
50.8500 31.8498
50.9000 36.1034
50.9500 31.1568
51.0000 36.8522
51.0500 34.9804
51.1000 34.5539
51.1500 30.6120
51.2000 29.7128
51.2500 34.4746
51.3000 32.7038
51.3500 43.2338
51.4000 35.9510
51.4500 25.5565
51.5000 32.5962
51.5500 29.5283
51.6000 41.7575
51.6500 28.7212
51.7000 32.7505
51.7500 37.4678
51.8000 29.2324
51.8500 35.8018
51.9000 37.4341
51.9500 31.8479
52.0000 31.3392
52.0500 23.6367
52.1000 36.1856
52.1500 37.5864
52.2000 34.9565
52.2500 30.8759
52.3000 27.9912
52.3500 44.8349
52.4000 40.7520
52.4500 34.7856
52.5000 28.1156
52.5500 21.8877
52.6000 36.1442
52.6500 30.0584
52.7000 40.6256
52.7500 31.2672
52.8000 36.7473
52.8500 40.4143
52.9000 36.0099
52.9500 29.9881
53.0000 39.5637
53.0500 33.7139
53.1000 40.3993
53.1500 22.2934
53.2000 27.1190
53.2500 36.3166
53.3000 39.5547
53.3500 41.8443
53.4000 29.8669
53.4500 26.3083
53.5000 37.5069
53.5500 40.8804
53.6000 44.3989
53.6500 37.1141
53.7000 29.5546
53.7500 39.3135
53.8000 35.8435
53.8500 33.7535
53.9000 30.3921
53.9500 47.7411
54.0000 35.4753
54.0500 24.6692
54.1000 24.2083
54.1500 42.9850
54.2000 36.7170
54.2500 29.8044
54.3000 39.8791
54.3500 36.3204
54.4000 26.2844
54.4500 38.8124
54.5000 38.8555
54.5500 33.7408
54.6000 24.6629
54.6500 36.3400
54.7000 31.3363
54.7500 35.3815
54.8000 45.1305
54.8500 34.2042
54.9000 28.5223
54.9500 29.1352
55.0000 24.7142
55.0500 27.0637
55.1000 31.6593
55.1500 25.8823
55.2000 35.9296
55.2500 30.6827
55.3000 34.1786
55.3500 28.7846
55.4000 30.5124
55.4500 26.2568
55.5000 32.9070
55.5500 38.8337
55.6000 27.9007
55.6500 32.0035
55.7000 36.1147
55.7500 28.7252
55.8000 31.8276
55.8500 36.6478
55.9000 28.0024
55.9500 42.3190
56.0000 23.9941
56.0500 23.6528
56.1000 33.0344
56.1500 33.1007
56.2000 25.7224
56.2500 30.3330
56.3000 27.7884
56.3500 34.5143
56.4000 28.4045
56.4500 37.1411
56.5000 29.7610
56.5500 26.5528
56.6000 25.7184
56.6500 35.6753
56.7000 27.5086
56.7500 26.6668
56.8000 28.9872
56.8500 28.2053
56.9000 34.5350
56.9500 35.5042
57.0000 33.0633
57.0500 23.2405
57.1000 37.3672
57.1500 28.8716
57.2000 26.7943
57.2500 51.8745
57.3000 35.3474
57.3500 44.4673
57.4000 27.2050
57.4500 31.7855
57.5000 31.2934
57.5500 36.3987
57.6000 36.5852
57.6500 27.4936
57.7000 34.4512
57.7500 25.8637
57.8000 28.0485
57.8500 42.5958
57.9000 24.6058
57.9500 35.0072
58.0000 33.2947
58.0500 34.9257
58.1000 30.7559
58.1500 33.2937
58.2000 32.5195
58.2500 25.5668
58.3000 53.1351
58.3500 37.6681
58.4000 25.0988
58.4500 35.3060
58.5000 42.3700
58.5500 30.0062
58.6000 32.5741
58.6500 29.8894
58.7000 36.9825
58.7500 35.4351
58.8000 26.0324
58.8500 31.3606
58.9000 34.7068
58.9500 38.8602
59.0000 23.3608
59.0500 29.7690
59.1000 29.0499
59.1500 23.2812
59.2000 27.5960
59.2500 22.6309
59.3000 37.2614
59.3500 37.8284
59.4000 29.9732
59.4500 37.7582
59.5000 30.4312
59.5500 35.4816
59.6000 17.4863
59.6500 26.9577
59.7000 23.7976
59.7500 39.9011
59.8000 32.9930
59.8500 26.3621
59.9000 27.7983
59.9500 43.0712
60.0000 29.7433
60.0500 31.7427
60.1000 32.4569
60.1500 33.7768
60.2000 31.8266
60.2500 27.4707
60.3000 30.6791
60.3500 37.1501
60.4000 30.5166
60.4500 35.2961
60.5000 30.4946
60.5500 29.7558
60.6000 35.6750
60.6500 24.0867
60.7000 35.5964
60.7500 25.6360
60.8000 29.3176
60.8500 33.6448
60.9000 24.2772
60.9500 38.6417
61.0000 36.9295
61.0500 29.2766
61.1000 26.6075
61.1500 41.7082
61.2000 25.7478
61.2500 32.6478
61.3000 34.9372
61.3500 34.9189
61.4000 33.3919
61.4500 27.6001
61.5000 39.8313
61.5500 29.1000
61.6000 41.7374
61.6500 35.7375
61.7000 36.6209
61.7500 27.8887
61.8000 26.6240
61.8500 28.0196
61.9000 25.9929
61.9500 28.3846
62.0000 30.3868
62.0500 34.7987
62.1000 38.8054
62.1500 26.9374
62.2000 35.0321
62.2500 36.4363
62.3000 33.3199
62.3500 29.7030
62.4000 22.9192
62.4500 24.8715
62.5000 23.0244
62.5500 31.0170
62.6000 23.5667
62.6500 26.7321
62.7000 41.5016
62.7500 26.0933
62.8000 25.8752
62.8500 30.8239
62.9000 31.1195
62.9500 27.1884
63.0000 31.4263
63.0500 22.4271
63.1000 29.5474
63.1500 34.0986
63.2000 25.7118
63.2500 32.3382
63.3000 34.7091
63.3500 24.1904
63.4000 25.4425
63.4500 33.5671
63.5000 32.0383
63.5500 29.9195
63.6000 37.4505
63.6500 24.1930
63.7000 38.1754
63.7500 38.1700
63.8000 34.4012
63.8500 36.0748
63.9000 27.1138
63.9500 38.9373
64.0000 36.4862
64.0500 29.6073
64.1000 33.9087
64.1500 33.1947
64.2000 38.0862
64.2500 30.2259
64.3000 39.8883
64.3500 35.0789
64.4000 48.0717
64.4500 45.5889
64.5000 38.7363
64.5500 82.3671
64.6000 106.4162
64.6500 152.0640
64.7000 134.6772
64.7500 142.3985
64.8000 92.3866
64.8500 67.5940
64.9000 50.1016
64.9500 50.2698
65.0000 35.5159
65.0500 39.7805
65.1000 32.6055
65.1500 34.8729
65.2000 28.9411
65.2500 34.0167
65.3000 36.3530
65.3500 24.4744
65.4000 27.0023
65.4500 27.5786
65.5000 44.2984
65.5500 35.6389
65.6000 33.8379
65.6500 32.6677
65.7000 34.7995
65.7500 28.2297
65.8000 37.0371
65.8500 29.3031
65.9000 27.0775
65.9500 31.7293
66.0000 27.0806
66.0500 40.1874
66.1000 27.5570
66.1500 23.8000
66.2000 29.7807
66.2500 35.3076
66.3000 29.3104
66.3500 22.4553
66.4000 31.3279
66.4500 20.5439
66.5000 33.1616
66.5500 35.2661
66.6000 39.5402
66.6500 31.1266
66.7000 26.6520
66.7500 25.9676
66.8000 25.4939
66.8500 28.1748
66.9000 26.4945
66.9500 33.7127
67.0000 24.6035
67.0500 32.5254
67.1000 29.7708
67.1500 21.9513
67.2000 33.9225
67.2500 39.7626
67.3000 34.4030
67.3500 41.7119
67.4000 39.1309
67.4500 43.0860
67.5000 40.3331
67.5500 30.8099
67.6000 32.8912
67.6500 27.3287
67.7000 32.9462
67.7500 29.0814
67.8000 28.9922
67.8500 30.8621
67.9000 29.6968
67.9500 23.1593
68.0000 37.2370
68.0500 47.3029
68.1000 36.5204
68.1500 22.8699
68.2000 27.0532
68.2500 30.0186
68.3000 29.3976
68.3500 36.1608
68.4000 38.1949
68.4500 25.1130
68.5000 31.2606
68.5500 24.0944
68.6000 35.8155
68.6500 28.0562
68.7000 29.9524
68.7500 33.2882
68.8000 31.9122
68.8500 38.8314
68.9000 23.4926
68.9500 23.2675
69.0000 26.3870
69.0500 36.1197
69.1000 32.2208
69.1500 32.6059
69.2000 25.9057
69.2500 32.1185
69.3000 31.1064
69.3500 34.9794
69.4000 33.7450
69.4500 23.6497
69.5000 33.0123
69.5500 26.5557
69.6000 33.0254
69.6500 33.1165
69.7000 35.0427
69.7500 27.5498
69.8000 35.0384
69.8500 36.7104
69.9000 32.9632
69.9500 31.4947
70.0000 27.4657
70.0500 33.1267
70.1000 38.0005
70.1500 31.8719
70.2000 37.2753
70.2500 34.3637
70.3000 23.7566
70.3500 28.1673
70.4000 37.4067
70.4500 22.9688
70.5000 31.9280
70.5500 44.3868
70.6000 31.2010
70.6500 28.5096
70.7000 24.3057
70.7500 37.0427
70.8000 34.2611
70.8500 30.0850
70.9000 27.4105
70.9500 28.6587
71.0000 28.4602
71.0500 28.6236
71.1000 26.8723
71.1500 22.3872
71.2000 33.4735
71.2500 32.1809
71.3000 24.7927
71.3500 44.6924
71.4000 28.3844
71.4500 28.1466
71.5000 33.4366
71.5500 30.2427
71.6000 23.8291
71.6500 33.3372
71.7000 25.7000
71.7500 27.6070
71.8000 19.1621
71.8500 31.1641
71.9000 27.5936
71.9500 23.6766
72.0000 32.5618
72.0500 25.8804
72.1000 26.7042
72.1500 24.0798
72.2000 27.2905
72.2500 42.8731
72.3000 26.8960
72.3500 27.4317
72.4000 38.0354
72.4500 30.8234
72.5000 38.2014
72.5500 30.7080
72.6000 31.5260
72.6500 27.1002
72.7000 22.8975
72.7500 36.7321
72.8000 33.3501
72.8500 32.3059
72.9000 26.2356
72.9500 22.7180
73.0000 37.7827
73.0500 23.7533
73.1000 42.2704
73.1500 25.0225
73.2000 31.1921
73.2500 35.3926
73.3000 38.2661
73.3500 38.7191
73.4000 28.4730
73.4500 23.7529
73.5000 25.1527
73.5500 24.6372
73.6000 25.6533
73.6500 36.8527
73.7000 32.0129
73.7500 28.0983
73.8000 39.7044
73.8500 43.9400
73.9000 22.5243
73.9500 19.6907
74.0000 24.0012
74.0500 32.2986
74.1000 29.3505
74.1500 31.8068
74.2000 26.4025
74.2500 45.0339
74.3000 22.2783
74.3500 24.3233
74.4000 32.2941
74.4500 22.8238
74.5000 35.2499
74.5500 26.6881
74.6000 40.2591
74.6500 32.8330
74.7000 30.7079
74.7500 28.5221
74.8000 31.8476
74.8500 37.3846
74.9000 33.8253
74.9500 31.3770
75.0000 17.4520
75.0500 20.0884
75.1000 29.4392
75.1500 29.4370
75.2000 44.8091
75.2500 30.8462
75.3000 29.6844
75.3500 40.4989
75.4000 17.7371
75.4500 26.4333
75.5000 34.0073
75.5500 45.7495
75.6000 34.7307
75.6500 37.3557
75.7000 32.8451
75.7500 22.7641
75.8000 35.6716
75.8500 38.0050
75.9000 41.2669
75.9500 33.3903
76.0000 23.9079
76.0500 27.1995
76.1000 39.0923
76.1500 37.9874
76.2000 34.3316
76.2500 21.1496
76.3000 31.2007
76.3500 41.0046
76.4000 24.5626
76.4500 25.0687
76.5000 33.8069
76.5500 38.3092
76.6000 30.3616
76.6500 25.4398
76.7000 23.7072
76.7500 37.6505
76.8000 31.2224
76.8500 23.6278
76.9000 30.5046
76.9500 30.4192
77.0000 30.5685
77.0500 39.2029
77.1000 29.8671
77.1500 32.0944
77.2000 28.5695
77.2500 39.8286
77.3000 37.5007
77.3500 28.4870
77.4000 41.7761
77.4500 25.6955
77.5000 19.1317
77.5500 38.7281
77.6000 23.6798
77.6500 36.0339
77.7000 30.4979
77.7500 29.8373
77.8000 34.0671
77.8500 29.7456
77.9000 28.5961
77.9500 38.2694
78.0000 21.7657
78.0500 31.0815
78.1000 20.2366
78.1500 34.9638
78.2000 26.2727
78.2500 20.9621
78.3000 37.5970
78.3500 37.6739
78.4000 34.9575
78.4500 35.8858
78.5000 27.7306
78.5500 26.8447
78.6000 28.0987
78.6500 28.2653
78.7000 24.0096
78.7500 27.8296
78.8000 37.5258
78.8500 29.6115
78.9000 44.0383
78.9500 21.1929
79.0000 36.6742
79.0500 28.2846
79.1000 22.2677
79.1500 25.7594
79.2000 29.2710
79.2500 34.0159
79.3000 24.1482
79.3500 23.1673
79.4000 23.3847
79.4500 42.7234
79.5000 35.8240
79.5500 34.1676
79.6000 40.2284
79.6500 48.5436
79.7000 34.3593
79.7500 33.4347
79.8000 31.9402
79.8500 32.4671
79.9000 27.6694
79.9500 32.5838
80.0000 25.7180
80.0500 34.5542
80.1000 38.0440
80.1500 30.4233
80.2000 36.4507
80.2500 17.5662
80.3000 33.9652
80.3500 27.7507
80.4000 32.6927
80.4500 36.2733
80.5000 33.9893
80.5500 25.5229
80.6000 32.9544
80.6500 40.8675
80.7000 36.5894
80.7500 33.0876
80.8000 32.8633
80.8500 30.6866
80.9000 31.9295
80.9500 29.2801
81.0000 31.6140
81.0500 31.8201
81.1000 30.2072
81.1500 43.7933
81.2000 38.4246
81.2500 39.8368
81.3000 29.5264
81.3500 37.2121
81.4000 36.9564
81.4500 43.7653
81.5000 25.3464
81.5500 51.2119
81.6000 44.0111
81.6500 38.7607
81.7000 52.4286
81.7500 44.1043
81.8000 66.8045
81.8500 143.0562
81.9000 216.2328
81.9500 290.6449
82.0000 274.7559
82.0500 207.8073
82.1000 129.9661
82.1500 79.5738
82.2000 64.4115
82.2500 54.2520
82.3000 33.1205
82.3500 43.6581
82.4000 24.6954
82.4500 31.8331
82.5000 22.5217
82.5500 20.1836
82.6000 40.2041
82.6500 22.3341
82.7000 24.3962
82.7500 19.6983
82.8000 23.1572
82.8500 35.1490
82.9000 38.6991
82.9500 35.1143
83.0000 42.9279
83.0500 24.2767
83.1000 27.2717
83.1500 27.1694
83.2000 35.8198
83.2500 36.1682
83.3000 37.5710
83.3500 33.4148
83.4000 33.7032
83.4500 29.5694
83.5000 39.2797
83.5500 36.8067
83.6000 31.5973
83.6500 18.2166
83.7000 40.2010
83.7500 27.6781
83.8000 24.9246
83.8500 24.8401
83.9000 26.6431
83.9500 24.3893
84.0000 27.0661
84.0500 26.0495
84.1000 33.6444
84.1500 30.5446
84.2000 21.6652
84.2500 26.4036
84.3000 29.7713
84.3500 36.8453
84.4000 38.8515
84.4500 32.2095
84.5000 46.3439
84.5500 21.7261
84.6000 24.2856
84.6500 26.9825
84.7000 39.4781
84.7500 30.3616
84.8000 39.7477
84.8500 25.2328
84.9000 31.4426
84.9500 29.0026
85.0000 30.5465
85.0500 23.1526
85.1000 28.1398
85.1500 25.3889
85.2000 24.0760
85.2500 22.7587
85.3000 36.3941
85.3500 33.6634
85.4000 31.7419
85.4500 31.5708
85.5000 30.6729
85.5500 21.7551
85.6000 30.3932
85.6500 33.0183
85.7000 26.8720
85.7500 35.8831
85.8000 33.0391
85.8500 34.5091
85.9000 28.9544
85.9500 29.9431
86.0000 31.0234
86.0500 36.4664
86.1000 34.2710
86.1500 26.4279
86.2000 27.5867
86.2500 37.6704
86.3000 21.7019
86.3500 31.8972
86.4000 19.0281
86.4500 25.5928
86.5000 32.2990
86.5500 30.5794
86.6000 23.9731
86.6500 26.9647
86.7000 32.6719
86.7500 32.9306
86.8000 29.0313
86.8500 19.8814
86.9000 26.3688
86.9500 32.8813
87.0000 23.9041
87.0500 20.4373
87.1000 30.3572
87.1500 29.5178
87.2000 33.5634
87.2500 32.1861
87.3000 32.6756
87.3500 24.5233
87.4000 23.8391
87.4500 36.8576
87.5000 25.7935
87.5500 33.6254
87.6000 33.3446
87.6500 37.8205
87.7000 33.1439
87.7500 24.8426
87.8000 30.0717
87.8500 43.4134
87.9000 37.5086
87.9500 29.9726
88.0000 37.8351
88.0500 37.8236
88.1000 30.6329
88.1500 28.2605
88.2000 29.2286
88.2500 19.0735
88.3000 24.1651
88.3500 33.3798
88.4000 27.4199
88.4500 38.2909
88.5000 32.1219
88.5500 32.0321
88.6000 30.2377
88.6500 27.9363
88.7000 41.3779
88.7500 29.5291
88.8000 28.1789
88.8500 27.2133
88.9000 35.5971
88.9500 24.0818
89.0000 25.4843
89.0500 23.7669
89.1000 29.7572
89.1500 35.8540
89.2000 34.7701
89.2500 23.6223
89.3000 26.0842
89.3500 25.5294
89.4000 37.0251
89.4500 29.4882
89.5000 28.7004
89.5500 31.8712
89.6000 37.3003
89.6500 36.9079
89.7000 28.0458
89.7500 26.5898
89.8000 35.1473
89.8500 27.5608
89.9000 40.2889
89.9500 26.1956
90.0000 32.1435
90.0500 27.3358
90.1000 27.5323
90.1500 27.1154
90.2000 36.8002
90.2500 38.5687
90.3000 42.3208
90.3500 31.1253
90.4000 27.4038
90.4500 38.9739
90.5000 23.2891
90.5500 23.9966
90.6000 35.7662
90.6500 33.0172
90.7000 32.2544
90.7500 33.6015
90.8000 27.8716
90.8500 28.1033
90.9000 29.3979
90.9500 28.9386
91.0000 35.2069
91.0500 43.3944
91.1000 37.3452
91.1500 37.3446
91.2000 32.1108
91.2500 37.0242
91.3000 24.3902
91.3500 34.2364
91.4000 36.0752
91.4500 20.2193
91.5000 38.4791
91.5500 39.8704
91.6000 24.2696
91.6500 35.7957
91.7000 30.9341
91.7500 27.9409
91.8000 16.1617
91.8500 30.7441
91.9000 27.3766
91.9500 30.2313
92.0000 39.2128
92.0500 30.9289
92.1000 24.4575
92.1500 42.0757
92.2000 38.4988
92.2500 34.0770
92.3000 27.7554
92.3500 30.8108
92.4000 23.9773
92.4500 26.0911
92.5000 27.0540
92.5500 29.8935
92.6000 26.9395
92.6500 33.6761
92.7000 34.0419
92.7500 29.1072
92.8000 30.0785
92.8500 27.8813
92.9000 28.6604
92.9500 25.1307
93.0000 31.6887
93.0500 38.6513
93.1000 21.9358
93.1500 37.0502
93.2000 36.8965
93.2500 29.4272
93.3000 31.0848
93.3500 26.7121
93.4000 34.0615
93.4500 37.8654
93.5000 27.5723
93.5500 29.5907
93.6000 33.2258
93.6500 35.9497
93.7000 29.1955
93.7500 31.6560
93.8000 36.8264
93.8500 30.7403
93.9000 28.9801
93.9500 40.9982
94.0000 40.4992
94.0500 33.7542
94.1000 27.6528
94.1500 29.1442
94.2000 33.7317
94.2500 35.1704
94.3000 38.2363
94.3500 37.6384
94.4000 22.0104
94.4500 35.3211
94.5000 26.2306
94.5500 36.0240
94.6000 34.6447
94.6500 16.1026
94.7000 39.8686
94.7500 44.0243
94.8000 36.6945
94.8500 30.6007
94.9000 29.6130
94.9500 35.4739
95.0000 25.0578
95.0500 35.8195
95.1000 31.4853
95.1500 26.6060
95.2000 45.2380
95.2500 30.3442
95.3000 28.6387
95.3500 22.3743
95.4000 24.2878
95.4500 34.9847
95.5000 23.9004
95.5500 37.6729
95.6000 26.8391
95.6500 23.1859
95.7000 28.3932
95.7500 30.3275
95.8000 27.1047
95.8500 31.8623
95.9000 23.8744
95.9500 32.8365
96.0000 28.1941
96.0500 37.3664
96.1000 31.3091
96.1500 34.2556
96.2000 26.9418
96.2500 19.7194
96.3000 29.0873
96.3500 18.7806
96.4000 38.8943
96.4500 28.8404
96.5000 34.4553
96.5500 31.0414
96.6000 41.9798
96.6500 18.2111
96.7000 30.3064
96.7500 29.0169
96.8000 34.3027
96.8500 37.4338
96.9000 28.5233
96.9500 33.9341
97.0000 26.9105
97.0500 31.8734
97.1000 35.7530
97.1500 30.4285
97.2000 36.5373
97.2500 31.3921
97.3000 28.4247
97.3500 29.1377
97.4000 31.7244
97.4500 30.3743
97.5000 38.0119
97.5500 26.9417
97.6000 37.8759
97.6500 33.8959
97.7000 33.5212
97.7500 34.8924
97.8000 22.9637
97.8500 38.7239
97.9000 39.1241
97.9500 31.8859
98.0000 34.0440
98.0500 32.7828
98.1000 39.2913
98.1500 36.1030
98.2000 32.3918
98.2500 37.4701
98.3000 54.7013
98.3500 54.6695
98.4000 87.7670
98.4500 96.0635
98.5000 142.2725
98.5500 175.1643
98.6000 149.9352
98.6500 78.8086
98.7000 71.1582
98.7500 58.9832
98.8000 56.3164
98.8500 51.4275
98.9000 31.3937
98.9500 32.5308
99.0000 28.9617
99.0500 30.6196
99.1000 25.8141
99.1500 37.2089
99.2000 30.5847
99.2500 29.8272
99.3000 28.2052
99.3500 28.0686
99.4000 26.4244
99.4500 40.4630
99.5000 32.8978
99.5500 33.6425
99.6000 33.6728
99.6500 36.4417
99.7000 33.0097
99.7500 27.9993
99.8000 30.7787
99.8500 34.2843
99.9000 28.6698
99.9500 33.2344
100.0000 28.3670
100.0500 25.0180
100.1000 33.0768
100.1500 34.3151
100.2000 37.4853
100.2500 29.2440
100.3000 30.6468
100.3500 28.3451
100.4000 20.4901
100.4500 37.7685
100.5000 30.7137
100.5500 26.5569
100.6000 26.6792
100.6500 20.9182
100.7000 24.9869
100.7500 38.4795
100.8000 18.9526
100.8500 21.8757
100.9000 31.0708
100.9500 33.5035
101.0000 25.5673
101.0500 34.7274
101.1000 29.6385
101.1500 35.2055
101.2000 27.5036
101.2500 29.6971
101.3000 30.0597
101.3500 31.2118
101.4000 30.3939
101.4500 31.9284
101.5000 31.0182
101.5500 21.3678
101.6000 29.7257
101.6500 35.3418
101.7000 27.2216
101.7500 23.1610
101.8000 23.6660
101.8500 33.0992
101.9000 28.6353
101.9500 18.5523
102.0000 26.3693
102.0500 23.9937
102.1000 30.8358
102.1500 30.5364
102.2000 42.0305
102.2500 31.1821
102.3000 33.9749
102.3500 24.6443
102.4000 26.6436
102.4500 24.4435
102.5000 32.6033
102.5500 23.3981
102.6000 33.5560
102.6500 25.8949
102.7000 21.8800
102.7500 29.8878
102.8000 41.1506
102.8500 30.6503
102.9000 20.8556
102.9500 40.6040
103.0000 34.3555
103.0500 32.5981
103.1000 26.5030
103.1500 32.8507
103.2000 30.3143
103.2500 34.0786
103.3000 35.5484
103.3500 31.3486
103.4000 27.9573
103.4500 31.5736
103.5000 34.8346
103.5500 27.9009
103.6000 27.3008
103.6500 28.3029
103.7000 38.0814
103.7500 29.4334
103.8000 22.3232
103.8500 22.8946
103.9000 24.9668
103.9500 31.4525
104.0000 19.6575
104.0500 28.2642
104.1000 27.8788
104.1500 35.6017
104.2000 31.7745
104.2500 19.4315
104.3000 25.4406
104.3500 28.7715
104.4000 33.7288
104.4500 42.3907
104.5000 29.3539
104.5500 27.3638
104.6000 27.6306
104.6500 35.6325
104.7000 33.3477
104.7500 31.4480
104.8000 35.1378
104.8500 28.4487
104.9000 31.5716
104.9500 19.5073
105.0000 14.1261
105.0500 37.1874
105.1000 29.9586
105.1500 24.3348
105.2000 27.9106
105.2500 36.7571
105.3000 31.5485
105.3500 29.2946
105.4000 22.7331
105.4500 33.5263
105.5000 33.5231
105.5500 32.4912
105.6000 32.3324
105.6500 25.4126
105.7000 25.0207
105.7500 29.7852
105.8000 29.9864
105.8500 27.4835
105.9000 32.1259
105.9500 23.8425
106.0000 34.5792
106.0500 25.1896
106.1000 24.7179
106.1500 32.7138
106.2000 30.2593
106.2500 25.6181
106.3000 35.9896
106.3500 30.8692
106.4000 34.4048
106.4500 25.9694
106.5000 28.0070
106.5500 28.7102
106.6000 36.5156
106.6500 34.4010
106.7000 40.8385
106.7500 34.8208
106.8000 36.9710
106.8500 37.5486
106.9000 31.5452
106.9500 34.3296
107.0000 25.4439
107.0500 27.1328
107.1000 26.3332
107.1500 20.9965
107.2000 22.7355
107.2500 30.9622
107.3000 39.2024
107.3500 26.8666
107.4000 23.1226
107.4500 31.0539
107.5000 37.0226
107.5500 31.9290
107.6000 26.6498
107.6500 22.2174
107.7000 22.1043
107.7500 32.7708
107.8000 29.9189
107.8500 28.3623
107.9000 37.5540
107.9500 42.3227
108.0000 35.7263
108.0500 35.8570
108.1000 32.5386
108.1500 22.7473
108.2000 29.4415
108.2500 39.5908
108.3000 24.7256
108.3500 23.8268
108.4000 23.2879
108.4500 31.6727
108.5000 27.8009
108.5500 31.0793
108.6000 37.6384
108.6500 28.6198
108.7000 22.4109
108.7500 30.7733
108.8000 32.7054
108.8500 23.3563
108.9000 28.6506
108.9500 29.5244
109.0000 34.7570
109.0500 23.8340
109.1000 34.6695
109.1500 42.8421
109.2000 38.2365
109.2500 37.2833
109.3000 30.9802
109.3500 38.9439
109.4000 36.4939
109.4500 19.5085
109.5000 40.3349
109.5500 27.8713
109.6000 38.2935
109.6500 34.9251
109.7000 32.1224
109.7500 28.6206
109.8000 24.1501
109.8500 27.3600
109.9000 25.2803
109.9500 36.0257
110.0000 26.4752
110.0500 27.6665
110.1000 36.6578
110.1500 25.1155
110.2000 30.7021
110.2500 37.6514
110.3000 20.5358
110.3500 34.6298
110.4000 21.3912
110.4500 35.5146
110.5000 28.6850
110.5500 28.9955
110.6000 15.0284
110.6500 22.8096
110.7000 34.2341
110.7500 32.2049
110.8000 34.1931
110.8500 36.6209
110.9000 44.6155
110.9500 25.3971
111.0000 37.8916
111.0500 34.3463
111.1000 20.2953
111.1500 38.9504
111.2000 34.2590
111.2500 25.9922
111.3000 28.7050
111.3500 30.9761
111.4000 28.4137
111.4500 32.1019
111.5000 25.7493
111.5500 12.9785
111.6000 26.4031
111.6500 33.0084
111.7000 31.9115
111.7500 33.9445
111.8000 23.0336
111.8500 31.9009
111.9000 34.7549
111.9500 24.9991
112.0000 26.0709
112.0500 22.6419
112.1000 31.1457
112.1500 31.8968
112.2000 31.0514
112.2500 31.4040
112.3000 21.7486
112.3500 31.3795
112.4000 23.4629
112.4500 26.2762
112.5000 27.6488
112.5500 31.4121
112.6000 33.1484
112.6500 30.7852
112.7000 30.5693
112.7500 30.1699
112.8000 25.5044
112.8500 33.0399
112.9000 27.6423
112.9500 32.3311
113.0000 37.8278
113.0500 25.6658
113.1000 32.8365
113.1500 32.5570
113.2000 29.4857
113.2500 33.8951
113.3000 47.3372
113.3500 35.0248
113.4000 31.3913
113.4500 29.5805
113.5000 33.4443
113.5500 27.2632
113.6000 28.4820
113.6500 30.0690
113.7000 28.6897
113.7500 40.8144
113.8000 25.5573
113.8500 29.2149
113.9000 34.9874
113.9500 35.7982
114.0000 35.8494
114.0500 36.5210
114.1000 36.0452
114.1500 30.4147
114.2000 23.2290
114.2500 25.9045
114.3000 29.9803
114.3500 32.2881
114.4000 24.9127
114.4500 43.0524
114.5000 29.7760
114.5500 31.2641
114.6000 30.4324
114.6500 28.5292
114.7000 27.8649
114.7500 25.6179
114.8000 26.8884
114.8500 31.7634
114.9000 25.6432
114.9500 36.6152
115.0000 32.6927
115.0500 27.3480
115.1000 42.9874
115.1500 29.0172
115.2000 41.6281
115.2500 30.8596
115.3000 36.8494
115.3500 36.2771
115.4000 33.6016
115.4500 41.1473
115.5000 39.9525
115.5500 54.0838
115.6000 50.0109
115.6500 41.9684
115.7000 68.4190
115.7500 87.2745
115.8000 82.9255
115.8500 93.8812
115.9000 109.4747
115.9500 102.8943
116.0000 101.0459
116.0500 89.0036
116.1000 77.2307
116.1500 64.8604
116.2000 59.0346
116.2500 51.3947
116.3000 49.4105
116.3500 34.2978
116.4000 45.2132
116.4500 31.9799
116.5000 41.3841
116.5500 35.3809
116.6000 32.4825
116.6500 30.3010
116.7000 35.5023
116.7500 43.4434
116.8000 29.3524
116.8500 37.6672
116.9000 28.3644
116.9500 32.6981
117.0000 38.2624
117.0500 37.7919
117.1000 34.0875
117.1500 37.0611
117.2000 41.3429
117.2500 37.4144
117.3000 29.5256
117.3500 29.7480
117.4000 27.9439
117.4500 22.2721
117.5000 31.2497
117.5500 36.1227
117.6000 32.4432
117.6500 35.9148
117.7000 35.0492
117.7500 28.6490
117.8000 31.3177
117.8500 41.8547
117.9000 30.2033
117.9500 39.3192
118.0000 34.1025
118.0500 30.3375
118.1000 29.1348
118.1500 25.5635
118.2000 32.4712
118.2500 45.5611
118.3000 32.2705
118.3500 35.8226
118.4000 26.1484
118.4500 25.6281
118.5000 31.7183
118.5500 22.3543
118.6000 19.0288
118.6500 41.9202
118.7000 25.9107
118.7500 25.2864
118.8000 36.8822
118.8500 29.9725
118.9000 30.1950
118.9500 18.6657
119.0000 30.4547
119.0500 33.4920
119.1000 21.9685
119.1500 28.1088
119.2000 27.2655
119.2500 27.2455
119.3000 20.4133
119.3500 35.4464
119.4000 30.2571
119.4500 35.4604
119.5000 32.9284
119.5500 32.9706
119.6000 28.1129
119.6500 37.9360
119.7000 28.0067
119.7500 35.0161
119.8000 24.6493
119.8500 26.9572
119.9000 21.6164
119.9500 32.4895
120.0000 29.5459
120.0500 30.7166
120.1000 25.9023
120.1500 34.0824
120.2000 35.1449
120.2500 35.3974
120.3000 41.9680
120.3500 30.3363
120.4000 24.5259
120.4500 27.9184
120.5000 27.1235
120.5500 21.6705
120.6000 26.7927
120.6500 29.4254
120.7000 30.9430
120.7500 33.3183
120.8000 32.5712
120.8500 31.5323
120.9000 33.5668
120.9500 31.0591
121.0000 34.5544
121.0500 30.1377
121.1000 28.6428
121.1500 23.8618
121.2000 36.9749
121.2500 27.6257
121.3000 27.3370
121.3500 31.5701
121.4000 28.0657
121.4500 32.3550
121.5000 28.2736
121.5500 29.9806
121.6000 33.0401
121.6500 30.7740
121.7000 28.2456
121.7500 29.9864
121.8000 24.4384
121.8500 30.6023
121.9000 36.9381
121.9500 30.6832
122.0000 32.2639
122.0500 32.2670
122.1000 18.8640
122.1500 31.1555
122.2000 31.5737
122.2500 33.4007
122.3000 29.1426
122.3500 39.6030
122.4000 32.6029
122.4500 29.0963
122.5000 32.4757
122.5500 24.7377
122.6000 29.4606
122.6500 35.3524
122.7000 36.0581
122.7500 20.7955
122.8000 35.5718
122.8500 37.2181
122.9000 37.5512
122.9500 37.1207
123.0000 33.3838
123.0500 32.9329
123.1000 34.2255
123.1500 29.5540
123.2000 33.2409
123.2500 39.4044
123.3000 33.4958
123.3500 28.1361
123.4000 30.2448
123.4500 20.7403
123.5000 32.7434
123.5500 23.9314
123.6000 27.2929
123.6500 31.2048
123.7000 34.0787
123.7500 32.4896
123.8000 29.5466
123.8500 36.1099
123.9000 42.3920
123.9500 31.7634
124.0000 29.3010
124.0500 26.2092
124.1000 28.6066
124.1500 26.3878
124.2000 41.0753
124.2500 26.5126
124.3000 25.2987
124.3500 31.0660
124.4000 25.2730
124.4500 29.0605
124.5000 30.5664
124.5500 26.4755
124.6000 42.1765
124.6500 28.7187
124.7000 32.2367
124.7500 36.3512
124.8000 26.2708
124.8500 26.4635
124.9000 38.5908
124.9500 43.3843
125.0000 26.1098
125.0500 36.0320
125.1000 31.2781
125.1500 33.0854
125.2000 29.4553
125.2500 27.8909
125.3000 26.6036
125.3500 32.4503
125.4000 25.5421
125.4500 27.0961
125.5000 33.0216
125.5500 33.5824
125.6000 26.5165
125.6500 32.5833
125.7000 22.7467
125.7500 34.1726
125.8000 20.1403
125.8500 30.3211
125.9000 27.8594
125.9500 24.3589
126.0000 33.9867
126.0500 22.4012
126.1000 30.5936
126.1500 29.8227
126.2000 25.3968
126.2500 39.9681
126.3000 29.6595
126.3500 31.3668
126.4000 36.6043
126.4500 28.7576
126.5000 28.6985
126.5500 34.5010
126.6000 33.0464
126.6500 29.0575
126.7000 24.4668
126.7500 30.8111
126.8000 34.9943
126.8500 26.4599
126.9000 33.2128
126.9500 35.2708
127.0000 33.6010
127.0500 27.2159
127.1000 34.3094
127.1500 21.4434
127.2000 24.4776
127.2500 35.6697
127.3000 39.3669
127.3500 31.0778
127.4000 20.5839
127.4500 47.3919
127.5000 41.4316
127.5500 19.9053
127.6000 40.4927
127.6500 42.2542
127.7000 39.1829
127.7500 31.3975
127.8000 28.4898
127.8500 22.7292
127.9000 29.8441
127.9500 36.7247
128.0000 34.4122
128.0500 29.2508
128.1000 29.9880
128.1500 41.4279
128.2000 31.5430
128.2500 32.5740
128.3000 38.6770
128.3500 25.9854
128.4000 31.3475
128.4500 39.1170
128.5000 24.2184
128.5500 29.8625
128.6000 29.4369
128.6500 25.1444
128.7000 32.0295
128.7500 29.5660
128.8000 22.1094
128.8500 31.5897
128.9000 25.1151
128.9500 23.7295
129.0000 34.0974
129.0500 28.2289
129.1000 36.5945
129.1500 31.9385
129.2000 37.1152
129.2500 29.2997
129.3000 31.8212
129.3500 29.0208
129.4000 19.7078
129.4500 27.1898
129.5000 35.9388
129.5500 21.8171
129.6000 29.7603
129.6500 25.4590
129.7000 28.7524
129.7500 30.0029
129.8000 34.3542
129.8500 31.4646
129.9000 32.1575
129.9500 22.4804
130.0000 17.3401
