40 41.6084 32.2879 9.3205
40.05 41.3732 32.286 9.0872
40.1 39.3909 32.2842 7.1067
40.15 34.0527 32.2823 1.7704
40.2 51.7072 32.2803 19.4269
40.25 33.3644 32.2841 1.0803
40.3 34.1208 32.288 1.8328
40.35 45.0854 32.2842 12.8012
40.4 43.718 32.2804 11.4376
40.45 40.0726 32.282 7.7906
40.5 42.4308 32.2837 10.1471
40.55 32.6221 32.2861 0.336
40.6 49.6135 32.2885 17.325
40.65 44.5603 32.2839 12.2764
40.7 40.4635 32.2813 8.1822
40.75 45.8025 32.2863 13.5162
40.8 40.2386 32.2914 7.9472
40.85 41.2022 32.2912 8.911
40.9 36.0483 32.291 3.7573
40.95 32.6445 32.2902 0.3543
41 36.4433 32.2894 4.1539
41.05 41.9755 32.2961 9.6794
41.1 43.1043 32.3028 10.8015
41.15 44.7385 32.3008 12.4377
41.2 33.2086 32.2987 0.9099
41.25 41.0334 32.3027 8.7307
41.3 49.2402 32.3067 16.9335
41.35 51.1746 32.3158 18.8588
41.4 39.9609 32.3192 7.6417
41.45 36.6537 32.3178 4.3359
41.5 35.5346 32.3163 3.2183
41.55 39.5538 32.3256 7.2282
41.6 48.349 32.335 16.014
41.65 29.2995 32.3396 -3.0401
41.7 27.8307 32.3442 -4.5135
41.75 19.7892 32.347 -12.5578
41.8 39.0971 32.3498 6.7473
41.85 39.5082 32.3636 7.1446
41.9 45.424 32.3774 13.0466
41.95 41.5289 32.3838 9.1451
42 50.649 32.3855 18.2635
42.05 41.1252 32.3915 8.7337
42.1 45.5129 32.4072 13.1057
42.15 31.7323 32.4244 -0.6921
42.2 40.5881 32.4416 8.1465
42.25 36.6979 32.4491 4.2488
42.3 48.874 32.4567 16.4173
42.35 33.1446 32.4791 0.6655
42.4 35.3835 32.5015 2.882
42.45 44.4612 32.5231 11.9381
42.5 36.1546 32.5446 3.61
42.55 31.6656 32.5634 -0.8978
42.6 45.8615 32.5822 13.2793
42.65 44.1566 32.6182 11.5384
42.7 44.6732 32.6595 12.0137
42.75 33.1598 32.6921 0.4677
42.8 44.4974 32.7247 11.7727
42.85 28.963 32.7688 -3.8058
42.9 30.5308 32.813 -2.2822
42.95 39.2837 32.8804 6.4033
43 37.9898 32.9478 5.042
43.05 55.4978 33.0134 22.4844
43.1 42.4278 33.0883 9.3395
43.15 44.4926 33.2731 11.2195
43.2 31.4849 33.4578 -1.9729
43.25 48.1052 33.8132 14.292
43.3 31.905 34.1685 -2.2635
43.35 38.4255 34.3991 4.0264
43.4 33.6195 34.6297 -1.0102
43.45 45.6728 34.9602 10.7126
43.5 31.6897 35.2908 -3.6011
43.55 43.0563 35.7445 7.3118
43.6 48.0764 36.1982 11.8782
43.65 47.1378 36.7905 10.3473
43.7 42.6213 37.5401 5.0812
43.75 32.8943 38.642 -5.7477
43.8 52.7252 39.7439 12.9813
43.85 47.2311 41.3599 5.8712
43.9 46.9354 43.5423 3.3931
43.95 70.6801 46.6419 24.0382
44 74.1863 51.296 22.8903
44.05 66.6794 58.8403 7.8391
44.1 64.9795 72.8475 -7.868
44.15 81.3858 105.595 -24.2092
44.2 150.226 200.422 -50.196
44.25 376.568 472.431 -95.863
44.3 1176.38 1077.67 98.71
44.35 2125.24 1942 183.24
44.4 2237.7 2434.31 -196.61
44.45 1419.81 1522 -102.19
44.5 485.294 429.453 55.841
44.55 170.71 156.109 14.601
44.6 98.3437 90.9833 7.3604
44.65 85.3971 66.7873 18.6098
44.7 54.8194 54.7122 0.1072
44.75 43.8562 48.0652 -4.209
44.8 38.7618 43.9675 -5.2057
44.85 37.2706 41.6948 -4.4242
44.9 44.7852 39.4221 5.3631
44.95 44.982 38.0754 6.9066
45 38.4591 37.052 1.4071
45.05 39.367 36.3444 3.0226
45.1 49.4569 35.6368 13.8201
45.15 32.8633 35.2066 -2.3433
45.2 33.874 34.7765 -0.9025
45.25 21.7433 34.4712 -12.7279
45.3 48.3717 34.166 14.2057
45.35 31.8629 33.9469 -2.084
45.4 40.0403 33.7277 6.3126
45.45 49.4561 33.5718 15.8843
45.5 34.2525 33.434 0.8185
45.55 38.7812 33.2834 5.4978
45.6 34.0433 33.1328 0.9105
45.65 43.7335 32.9971 10.7364
45.7 44.9794 32.8614 12.118
45.75 45.6456 32.7951 12.8505
45.8 37.8456 32.7298 5.1158
45.85 39.6877 32.6627 7.025
45.9 43.9338 32.5956 11.3382
45.95 36.9527 32.5535 4.3992
46 30.6545 32.5113 -1.8568
46.05 35.4624 32.4741 2.9883
46.1 30.6217 32.4368 -1.8151
46.15 40.2788 32.3959 7.8829
46.2 39.9403 32.3549 7.5854
46.25 32.5798 32.3335 0.2463
46.3 48.2729 32.3122 15.9607
46.35 32.2396 32.2849 -0.0453
46.4 42.5938 32.2576 10.3362
46.45 34.3645 32.2319 2.1326
46.5 36.2828 32.2062 4.0766
46.55 37.8232 32.1939 5.6293
46.6 34.2768 32.1816 2.0952
46.65 39.3162 32.159 7.1572
46.7 39.2707 32.1364 7.1343
46.75 42.3558 32.1212 10.2346
46.8 34.6439 32.1059 2.538
46.85 52.0943 32.0992 19.9951
46.9 24.6823 32.0873 -7.405
46.95 40.214 32.0683 8.1457
47 31.5665 32.0493 -0.4828
47.05 39.6051 32.0411 7.564
47.1 32.9351 32.0329 0.9022
47.15 40.2737 32.0235 8.2502
47.2 39.8947 32.014 7.8807
47.25 29.0729 31.9989 -2.926
47.3 34.9177 31.9839 2.9338
47.35 39.6427 31.9797 7.663
47.4 32.5465 31.9755 0.571
47.45 31.2291 31.9649 -0.7358
47.5 43.5661 31.9543 11.6118
47.55 34.0716 31.9435 2.1281
47.6 42.5466 31.9327 10.6139
47.65 40.6622 31.9299 8.7323
47.7 37.5218 31.9271 5.5947
47.75 44.2992 31.9158 12.3834
47.8 30.3641 31.9044 -1.5403
47.85 27.0784 31.8977 -4.8193
47.9 29.9244 31.891 -1.9666
47.95 32.0346 31.8877 0.1469
48 40.6769 31.8844 8.7925
48.05 36.375 31.8733 4.5017
48.1 27.9455 31.8622 -3.9167
48.15 35.4625 31.8587 3.6038
48.2 35.7628 31.8552 3.9076
48.25 26.6587 31.8503 -5.1916
48.3 34.0419 31.8453 2.1966
48.35 32.4406 31.8357 0.6049
48.4 31.2902 31.8261 -0.5359
48.45 27.5802 31.8245 -4.2443
48.5 34.6311 31.8228 2.8083
48.55 33.251 31.8161 1.4349
48.6 33.3363 31.8093 1.527
48.65 27.5308 31.802 -4.2712
48.7 30.7076 31.7947 -1.0871
48.75 27.6453 31.7935 -4.1482
48.8 31.3686 31.7924 -0.4238
48.85 29.8665 31.7843 -1.9178
48.9 31.5104 31.7762 -0.2658
48.95 26.9305 31.7714 -4.8409
49 37.448 31.7666 5.6814
49.05 36.5054 31.7651 4.7403
49.1 32.694 31.7636 0.9304
49.15 36.5226 31.7556 4.767
49.2 36.0171 31.7476 4.2695
49.25 38.2943 31.7448 6.5495
49.3 30.7379 31.7419 -1.004
49.35 25.5615 31.7384 -6.1769
49.4 34.8263 31.7348 3.0915
49.45 32.3919 31.7274 0.6645
49.5 38.5315 31.7201 6.8114
49.55 35.7423 31.7184 4.0239
49.6 30.3529 31.7168 -1.3639
49.65 25.9672 31.7118 -5.7446
49.7 36.9647 31.7067 5.258
49.75 29.8381 31.7007 -1.8626
49.8 36.175 31.6946 4.4804
49.85 35.3538 31.6933 3.6605
49.9 35.8182 31.692 4.1262
49.95 34.792 31.6859 3.1061
50 36.8928 31.6797 5.2131
50.05 32.3026 31.6753 0.6273
50.1 33.5798 31.6708 1.909
50.15 36.4026 31.6691 4.7335
50.2 42.8186 31.6673 11.1513
50.25 26.9869 31.6606 -4.6737
50.3 36.1098 31.6539 4.4559
50.35 29.6708 31.651 -1.9802
50.4 41.6269 31.648 9.9789
50.45 32.4383 31.6452 0.7931
50.5 33.5443 31.6425 1.9018
50.55 26.5475 31.636 -5.0885
50.6 25.6701 31.6295 -5.9594
50.65 35.2966 31.6276 3.669
50.7 37.4436 31.6257 5.8179
50.75 28.8811 31.6218 -2.7407
50.8 30.1124 31.6178 -1.5054
50.85 31.8498 31.612 0.2378
50.9 36.1034 31.6062 4.4972
50.95 31.1568 31.6048 -0.448
51 36.8522 31.6035 5.2487
51.05 34.9804 31.5984 3.382
51.1 34.5539 31.5933 2.9606
51.15 30.612 31.5887 -0.9767
51.2 29.7128 31.5841 -1.8713
51.25 34.4746 31.5825 2.8921
51.3 32.7038 31.581 1.1228
51.35 43.2338 31.5752 11.6586
51.4 35.951 31.5695 4.3815
51.45 25.5565 31.566 -6.0095
51.5 32.5962 31.5626 1.0336
51.55 29.5283 31.5604 -2.0321
51.6 41.7575 31.5583 10.1992
51.65 28.7212 31.5523 -2.8311
51.7 32.7505 31.5463 1.2042
51.75 37.4678 31.5439 5.9239
51.8 29.2324 31.5415 -2.3091
51.85 35.8018 31.5384 4.2634
51.9 37.4341 31.5353 5.8988
51.95 31.8479 31.5296 0.3183
52 31.3392 31.5239 -0.1847
52.05 23.6367 31.5222 -7.8855
52.1 36.1856 31.5204 4.6652
52.15 37.5864 31.5164 6.07
52.2 34.9565 31.5123 3.4442
52.25 30.8759 31.5073 -0.6314
52.3 27.9912 31.5023 -3.5111
52.35 44.8349 31.5008 13.3341
52.4 40.752 31.4992 9.2528
52.45 34.7856 31.4943 3.2913
52.5 28.1156 31.4894 -3.3738
52.55 21.8877 31.4854 -9.5977
52.6 36.1442 31.4813 4.6629
52.65 30.0584 31.4795 -1.4211
52.7 40.6256 31.4777 9.1479
52.75 31.2672 31.4723 -0.2051
52.8 36.7473 31.467 5.2803
52.85 40.4143 31.4638 8.9505
52.9 36.0099 31.4606 4.5493
52.95 29.9881 31.4583 -1.4702
53 39.5637 31.4559 8.1078
53.05 33.7139 31.4504 2.2635
53.1 40.3993 31.4449 8.9544
53.15 22.2934 31.4425 -9.1491
53.2 27.119 31.4401 -4.3211
53.25 36.3166 31.437 4.8796
53.3 39.5547 31.4339 8.1208
53.35 41.8443 31.4287 10.4156
53.4 29.8669 31.4234 -1.5565
53.45 26.3083 31.4215 -5.1132
53.5 37.5069 31.4196 6.0873
53.55 40.8804 31.4158 9.4646
53.6 44.3989 31.4119 12.987
53.65 37.1141 31.4072 5.7069
53.7 29.5546 31.4024 -1.8478
53.75 39.3135 31.4007 7.9128
53.8 35.8435 31.399 4.4445
53.85 33.7535 31.3944 2.3591
53.9 30.3921 31.3899 -0.9978
53.95 47.7411 31.3859 16.3552
54 35.4753 31.3818 4.0935
54.05 24.6692 31.3799 -6.7107
54.1 24.2083 31.3781 -7.1698
54.15 42.985 31.3731 11.6119
54.2 36.717 31.3681 5.3489
54.25 29.8044 31.3648 -1.5604
54.3 39.8791 31.3615 8.5176
54.35 36.3204 31.3592 4.9612
54.4 26.2844 31.357 -5.0726
54.45 38.8124 31.3518 7.4606
54.5 38.8555 31.3467 7.5088
54.55 33.7408 31.344 2.3968
54.6 24.6629 31.3413 -6.6784
54.65 36.34 31.3385 5.0015
54.7 31.3363 31.3357 0.0006
54.75 35.3815 31.3306 4.0509
54.8 45.1305 31.3255 13.805
54.85 34.2042 31.3234 2.8808
54.9 28.5223 31.3212 -2.7989
54.95 29.1352 31.3177 -2.1825
55 24.7142 31.3143 -6.6001
55.05 27.0637 31.3096 -4.2459
55.1 31.6593 31.3048 0.3545
55.15 25.8823 31.3029 -5.4206
55.2 35.9296 31.301 4.6286
55.25 30.6827 31.297 -0.6143
55.3 34.1786 31.293 2.8856
55.35 28.7846 31.2887 -2.5041
55.4 30.5124 31.2844 -0.772
55.45 26.2568 31.2825 -5.0257
55.5 32.907 31.2806 1.6264
55.55 38.8337 31.2762 7.5575
55.6 27.9007 31.2717 -3.371
55.65 32.0035 31.268 0.7355
55.7 36.1147 31.2642 4.8505
55.75 28.7252 31.2622 -2.537
55.8 31.8276 31.2601 0.5675
55.85 36.6478 31.2554 5.3924
55.9 28.0024 31.2506 -3.2482
55.95 42.319 31.2474 11.0716
56 23.9941 31.2443 -7.2502
56.05 23.6528 31.2419 -7.5891
56.1 33.0344 31.2395 1.7949
56.15 33.1007 31.2347 1.866
56.2 25.7224 31.2298 -5.5074
56.25 30.333 31.2271 -0.8941
56.3 27.7884 31.2244 -3.436
56.35 34.5143 31.2216 3.2927
56.4 28.4045 31.2188 -2.8143
56.45 37.1411 31.214 5.9271
56.5 29.761 31.2092 -1.4482
56.55 26.5528 31.2069 -4.6541
56.6 25.7184 31.2046 -5.4862
56.65 35.6753 31.2014 4.4739
56.7 27.5086 31.1981 -3.6895
56.75 26.6668 31.1935 -4.5267
56.8 28.9872 31.1889 -2.2017
56.85 28.2053 31.1869 -2.9816
56.9 34.535 31.1848 3.3502
56.95 35.5042 31.1811 4.3231
57 33.0633 31.1774 1.8859
57.05 23.2405 31.1732 -7.9327
57.1 37.3672 31.1689 6.1983
57.15 28.8716 31.1669 -2.2953
57.2 26.7943 31.165 -4.3707
57.25 51.8745 31.1616 20.7129
57.3 35.3474 31.1568 4.1906
57.35 44.4673 31.153 13.3143
57.4 27.205 31.1491 -3.9441
57.45 31.7855 31.1471 0.6384
57.5 31.2934 31.1451 0.1483
57.55 36.3987 31.1407 5.258
57.6 36.5852 31.1364 5.4488
57.65 27.4936 31.133 -3.6394
57.7 34.4512 31.1295 3.3217
57.75 25.8637 31.1274 -5.2637
57.8 28.0485 31.1252 -3.0767
57.85 42.5958 31.1207 11.4751
57.9 24.6058 31.1162 -6.5104
57.95 35.0072 31.1132 3.894
58 33.2947 31.1101 2.1846
58.05 34.9257 31.1077 3.818
58.1 30.7559 31.1053 -0.3494
58.15 33.2937 31.1007 2.193
58.2 32.5195 31.0962 1.4233
58.25 25.5668 31.0935 -5.5267
58.3 53.1351 31.0908 22.0443
58.35 37.6681 31.0881 6.58
58.4 25.0988 31.0854 -5.9866
58.45 35.306 31.0809 4.2251
58.5 42.37 31.0764 11.2936
58.55 30.0062 31.074 -1.0678
58.6 32.5741 31.0716 1.5025
58.65 29.8894 31.0686 -1.1792
58.7 36.9825 31.0656 5.9169
58.75 35.4351 31.0613 4.3738
58.8 26.0324 31.057 -5.0246
58.85 31.3606 31.0548 0.3058
58.9 34.7068 31.0526 3.6542
58.95 38.8602 31.0493 7.8109
59 23.3608 31.0459 -7.6851
59.05 29.769 31.0418 -1.2728
59.1 29.0499 31.0377 -1.9878
59.15 23.2812 31.0357 -7.7545
59.2 27.596 31.0336 -3.4376
59.25 22.6309 31.03 -8.3991
59.3 37.2614 31.0265 6.2349
59.35 37.8284 31.0226 6.8058
59.4 29.9732 31.0188 -1.0456
59.45 37.7582 31.0168 6.7414
59.5 30.4312 31.0147 -0.5835
59.55 35.4816 31.011 4.4706
59.6 17.4863 31.0072 -13.5209
59.65 26.9577 30.9956 -4.0379
59.7 23.7976 30.9839 -7.1863
59.75 39.9011 30.9801 8.921
59.8 32.993 30.9763 2.0167
59.85 26.3621 30.9738 -4.6117
59.9 27.7983 30.9714 -3.1731
59.95 43.0712 30.9683 12.1029
60 29.7433 30.9652 -1.2219
60.05 31.7427 30.9614 0.7813
60.1 32.4569 30.9577 1.4992
60.15 33.7768 30.9554 2.8214
60.2 31.8266 30.9531 0.8735
60.25 27.4707 30.9499 -3.4792
60.3 30.6791 30.9466 -0.2675
60.35 37.1501 30.943 6.2071
60.4 30.5166 30.9394 -0.4228
60.45 35.2961 30.9373 4.3588
60.5 30.4946 30.9351 -0.4405
60.55 29.7558 30.9318 -1.176
60.6 35.675 30.9284 4.7466
60.65 24.0867 30.925 -6.8383
60.7 35.5964 30.9215 4.6749
60.75 25.636 30.9196 -5.2836
60.8 29.3176 30.9176 -1.6
60.85 33.6448 30.9141 2.7307
60.9 24.2772 30.9106 -6.6334
60.95 38.6417 30.9074 7.7343
61 36.9295 30.9042 6.0253
61.05 29.2766 30.9023 -1.6257
61.1 26.6075 30.9005 -4.293
61.15 41.7082 30.8969 10.8113
61.2 25.7478 30.8934 -5.1456
61.25 32.6478 30.8904 1.7574
61.3 34.9372 30.8875 4.0497
61.35 34.9189 30.8858 4.0331
61.4 33.3919 30.884 2.5079
61.45 27.6001 30.8805 -3.2804
61.5 39.8313 30.8769 8.9544
61.55 29.1 30.8743 -1.7743
61.6 41.7374 30.8717 10.8657
61.65 35.7375 30.8701 4.8674
61.7 36.6209 30.8686 5.7523
61.75 27.8887 30.865 -2.9763
61.8 26.624 30.8615 -4.2375
61.85 28.0196 30.8593 -2.8397
61.9 25.9929 30.8571 -4.8642
61.95 28.3846 30.8558 -2.4712
62 30.3868 30.8545 -0.4677
62.05 34.7987 30.8511 3.9476
62.1 38.8054 30.8477 7.9577
62.15 26.9374 30.846 -3.9086
62.2 35.0321 30.8444 4.1877
62.25 36.4363 30.8435 5.5928
62.3 33.3199 30.8426 2.4773
62.35 29.703 30.8395 -1.1365
62.4 22.9192 30.8365 -7.9173
62.45 24.8715 30.8356 -5.9641
62.5 23.0244 30.8347 -7.8103
62.55 31.017 30.8345 0.1825
62.6 23.5667 30.8342 -7.2675
62.65 26.7321 30.8319 -4.0998
62.7 41.5016 30.8295 10.6721
62.75 26.0933 30.8299 -4.7366
62.8 25.8752 30.8303 -4.9551
62.85 30.8239 30.8314 -0.0075
62.9 31.1195 30.8325 0.287
62.95 27.1884 30.8317 -3.6433
63 31.4263 30.8308 0.5955
63.05 22.4271 30.8337 -8.4066
63.1 29.5474 30.8366 -1.2892
63.15 34.0986 30.8409 3.2577
63.2 25.7118 30.8451 -5.1333
63.25 32.3382 30.849 1.4892
63.3 34.7091 30.8528 3.8563
63.35 24.1904 30.866 -6.6756
63.4 25.4425 30.8793 -5.4368
63.45 33.5671 30.911 2.6561
63.5 32.0383 30.9428 1.0955
63.55 29.9195 30.976 -1.0565
63.6 37.4505 31.0092 6.4413
63.65 24.193 31.0448 -6.8518
63.7 38.1754 31.0803 7.0951
63.75 38.17 31.1274 7.0426
63.8 34.4012 31.1744 3.2268
63.85 36.0748 31.2396 4.8352
63.9 27.1138 31.3049 -4.1911
63.95 38.9373 31.4136 7.5237
64 36.4862 31.5224 4.9638
64.05 29.6073 31.7063 -2.099
64.1 33.9087 31.8903 2.0184
64.15 33.1947 32.231 0.9637
64.2 38.0862 32.5717 5.5145
64.25 30.2259 33.3273 -3.1014
64.3 39.8883 34.0828 5.8055
64.35 35.0789 36.1553 -1.0764
64.4 48.0717 38.2277 9.844
64.45 45.5889 43.2379 2.351
64.5 38.7363 53.3168 -14.5805
64.55 82.3671 73.4636 8.9035
64.6 106.416 106.389 0.027
64.65 152.064 144.674 7.39
64.7 134.677 161.591 -26.914
64.75 142.399 137.594 4.805
64.8 92.3866 94.6796 -2.293
64.85 67.594 63.3087 4.2853
64.9 50.1016 47.4195 2.6821
64.95 50.2698 39.9843 10.2855
65 35.5159 36.3148 -0.7989
65.05 39.7805 34.7613 5.0192
65.1 32.6055 33.2077 -0.6022
65.15 34.8729 32.6295 2.2434
65.2 28.9411 32.0513 -3.1102
65.25 34.0167 31.7889 2.2278
65.3 36.353 31.5266 4.8264
65.35 24.4744 31.3816 -6.9072
65.4 27.0023 31.2365 -4.2342
65.45 27.5786 31.1503 -3.5717
65.5 44.2984 31.064 13.2344
65.55 35.6389 31.0121 4.6268
65.6 33.8379 30.9601 2.8778
65.65 32.6677 30.9198 1.7479
65.7 34.7995 30.8794 3.9201
65.75 28.2297 30.8488 -2.6191
65.8 37.0371 30.8182 6.2189
65.85 29.3031 30.7922 -1.4891
65.9 27.0775 30.7663 -3.6888
65.95 31.7293 30.7414 0.9879
66 27.0806 30.7164 -3.6358
66.05 40.1874 30.7014 9.486
66.1 27.557 30.6863 -3.1293
66.15 23.8 30.6784 -6.8784
66.2 29.7807 30.6706 -0.8899
66.25 35.3076 30.6606 4.647
66.3 29.3104 30.6507 -1.3403
66.35 22.4553 30.6423 -8.187
66.4 31.3279 30.6338 0.6941
66.45 20.5439 30.6296 -10.0857
66.5 33.1616 30.6253 2.5363
66.55 35.2661 30.6183 4.6478
66.6 39.5402 30.6113 8.9289
66.65 31.1266 30.605 0.5216
66.7 26.652 30.5986 -3.9466
66.75 25.9676 30.5958 -4.6282
66.8 25.4939 30.5929 -5.099
66.85 28.1748 30.5873 -2.4125
66.9 26.4945 30.5817 -4.0872
66.95 33.7127 30.5764 3.1363
67 24.6035 30.5712 -5.9677
67.05 32.5254 30.569 1.9564
67.1 29.7708 30.5668 -0.796
67.15 21.9513 30.562 -8.6107
67.2 33.9225 30.5572 3.3653
67.25 39.7626 30.5525 9.2101
67.3 34.403 30.5479 3.8551
67.35 41.7119 30.5461 11.1658
67.4 39.1309 30.5442 8.5867
67.45 43.086 30.5399 12.5461
67.5 40.3331 30.5357 9.7974
67.55 30.8099 30.5314 0.2785
67.6 32.8912 30.5272 2.364
67.65 27.3287 30.5255 -3.1968
67.7 32.9462 30.5239 2.4223
67.75 29.0814 30.52 -1.4386
67.8 28.9922 30.516 -1.5238
67.85 30.8621 30.512 0.3501
67.9 29.6968 30.508 -0.8112
67.95 23.1593 30.5065 -7.3472
68 37.237 30.505 6.732
68.05 47.3029 30.5022 16.8007
68.1 36.5204 30.4978 6.0226
68.15 22.8699 30.4939 -7.624
68.2 27.0532 30.4901 -3.4369
68.25 30.0186 30.4887 -0.4701
68.3 29.3976 30.4872 -1.0896
68.35 36.1608 30.4838 5.677
68.4 38.1949 30.4804 7.7145
68.45 25.113 30.4767 -5.3637
68.5 31.2606 30.473 0.7876
68.55 24.0944 30.4716 -6.3772
68.6 35.8155 30.4702 5.3453
68.65 28.0562 30.4671 -2.4109
68.7 29.9524 30.4639 -0.5115
68.75 33.2882 30.4602 2.828
68.8 31.9122 30.4566 1.4556
68.85 38.8314 30.4552 8.3762
68.9 23.4926 30.4539 -6.9613
68.95 23.2675 30.4509 -7.1834
69 26.387 30.4479 -4.0609
69.05 36.1197 30.4443 5.6754
69.1 32.2208 30.4408 1.78
69.15 32.6059 30.4394 2.1665
69.2 25.9057 30.4381 -4.5324
69.25 32.1185 30.4353 1.6832
69.3 31.1064 30.4325 0.6739
69.35 34.9794 30.429 4.5504
69.4 33.745 30.4254 3.3196
69.45 23.6497 30.4241 -6.7744
69.5 33.0123 30.4227 2.5896
69.55 26.5557 30.4201 -3.8644
69.6 33.0254 30.4175 2.6079
69.65 33.1165 30.414 2.7025
69.7 35.0427 30.4105 4.6322
69.75 27.5498 30.4091 -2.8593
69.8 35.0384 30.4078 4.6306
69.85 36.7104 30.4054 6.305
69.9 32.9632 30.403 2.5602
69.95 31.4947 30.3995 1.0952
70 27.4657 30.396 -2.9303
70.05 33.1267 30.3946 2.7321
70.1 38.0005 30.3932 7.6073
70.15 31.8719 30.391 1.4809
70.2 37.2753 30.3888 6.8865
70.25 34.3637 30.3853 3.9784
70.3 23.7566 30.3819 -6.6253
70.35 28.1673 30.3805 -2.2132
70.4 37.4067 30.379 7.0277
70.45 22.9688 30.377 -7.4082
70.5 31.928 30.375 1.553
70.55 44.3868 30.3716 14.0152
70.6 31.201 30.3681 0.8329
70.65 28.5096 30.3666 -1.857
70.7 24.3057 30.3652 -6.0595
70.75 37.0427 30.3633 6.6794
70.8 34.2611 30.3615 3.8996
70.85 30.085 30.3581 -0.2731
70.9 27.4105 30.3547 -2.9442
70.95 28.6587 30.3532 -1.6945
71 28.4602 30.3516 -1.8914
71.05 28.6236 30.35 -1.7264
71.1 26.8723 30.3484 -3.4761
71.15 22.3872 30.3451 -7.9579
71.2 33.4735 30.3417 3.1318
71.25 32.1809 30.3401 1.8408
71.3 24.7927 30.3384 -5.5457
71.35 44.6924 30.337 14.3554
71.4 28.3844 30.3356 -1.9512
71.45 28.1466 30.3323 -2.1857
71.5 33.4366 30.3291 3.1075
71.55 30.2427 30.3273 -0.0846
71.6 23.8291 30.3255 -6.4964
71.65 33.3372 30.3243 3.0129
71.7 25.7 30.3231 -4.6231
71.75 27.607 30.3199 -2.7129
71.8 19.1621 30.3168 -11.1547
71.85 31.1641 30.3149 0.8492
71.9 27.5936 30.3129 -2.7193
71.95 23.6766 30.3119 -6.6353
72 32.5618 30.3108 2.251
72.05 25.8804 30.3079 -4.4275
72.1 26.7042 30.3049 -3.6007
72.15 24.0798 30.3028 -6.223
72.2 27.2905 30.3007 -3.0102
72.25 42.8731 30.2998 12.5733
72.3 26.896 30.2989 -3.4029
72.35 27.4317 30.2961 -2.8644
72.4 38.0354 30.2933 7.7421
72.45 30.8234 30.2911 0.5323
72.5 38.2014 30.2888 7.9126
72.55 30.708 30.288 0.42
72.6 31.526 30.2873 1.2387
72.65 27.1002 30.2847 -3.1845
72.7 22.8975 30.2822 -7.3847
72.75 36.7321 30.2797 6.4524
72.8 33.3501 30.2773 3.0728
72.85 32.3059 30.2766 2.0293
72.9 26.2356 30.2759 -4.0403
72.95 22.718 30.2736 -7.5556
73 37.7827 30.2713 7.5114
73.05 23.7533 30.2688 -6.5155
73.1 42.2704 30.2662 12.0042
73.15 25.0225 30.2655 -5.243
73.2 31.1921 30.2648 0.9273
73.25 35.3926 30.2629 5.1297
73.3 38.2661 30.2609 8.0052
73.35 38.7191 30.2582 8.4609
73.4 28.473 30.2555 -1.7825
73.45 23.7529 30.2547 -6.5018
73.5 25.1527 30.254 -5.1013
73.55 24.6372 30.2524 -5.6152
73.6 25.6533 30.2508 -4.5975
73.65 36.8527 30.248 6.6047
73.7 32.0129 30.2452 1.7677
73.75 28.0983 30.2444 -2.1461
73.8 39.7044 30.2435 9.4609
73.85 43.94 30.2429 13.6971
73.9 22.5243 30.241 -7.7167
73.95 19.6907 30.2382 -10.5475
74 24.0012 30.2353 -6.2341
74.05 32.2986 30.2343 2.0643
74.1 29.3505 30.2333 -0.8828
74.15 31.8068 30.2324 1.5744
74.2 26.4025 30.2315 -3.829
74.25 45.0339 30.2287 14.8052
74.3 22.2783 30.226 -7.9477
74.35 24.3233 30.2247 -5.9014
74.4 32.2941 30.2235 2.0706
74.45 22.8238 30.2229 -7.3991
74.5 35.2499 30.2223 5.0276
74.55 26.6881 30.2197 -3.5316
74.6 40.2591 30.2171 10.042
74.65 32.833 30.2156 2.6174
74.7 30.7079 30.2141 0.4938
74.75 28.5221 30.2138 -1.6917
74.8 31.8476 30.2134 1.6342
74.85 37.3846 30.2111 7.1735
74.9 33.8253 30.2087 3.6166
74.95 31.377 30.2069 1.1701
75 17.452 30.2051 -12.7531
75.05 20.0884 30.2049 -10.1165
75.1 29.4392 30.2048 -0.7656
75.15 29.437 30.2028 -0.7658
75.2 44.8091 30.2008 14.6083
75.25 30.8462 30.1987 0.6475
75.3 29.6844 30.1966 -0.5122
75.35 40.4989 30.1965 10.3024
75.4 17.7371 30.1965 -12.4594
75.45 26.4333 30.195 -3.7617
75.5 34.0073 30.1934 3.8139
75.55 45.7495 30.191 15.5585
75.6 34.7307 30.1887 4.542
75.65 37.3557 30.1886 7.1671
75.7 32.8451 30.1885 2.6566
75.75 22.7641 30.1875 -7.4234
75.8 35.6716 30.1864 5.4852
75.85 38.005 30.1839 7.8211
75.9 41.2669 30.1814 11.0855
75.95 33.3903 30.1811 3.2092
76 23.9079 30.1808 -6.2729
76.05 27.1995 30.1803 -2.9808
76.1 39.0923 30.1799 8.9124
76.15 37.9874 30.1773 7.8101
76.2 34.3316 30.1748 4.1568
76.25 21.1496 30.1742 -9.0246
76.3 31.2007 30.1736 1.0271
76.35 41.0046 30.1736 10.831
76.4 24.5626 30.1736 -5.611
76.45 25.0687 30.1713 -5.1026
76.5 33.8069 30.169 3.6379
76.55 38.3092 30.1679 8.1413
76.6 30.3616 30.1669 0.1947
76.65 25.4398 30.1673 -4.7275
76.7 23.7072 30.1677 -6.4605
76.75 37.6505 30.1658 7.4847
76.8 31.2224 30.1638 1.0586
76.85 23.6278 30.1623 -6.5345
76.9 30.5046 30.1608 0.3438
76.95 30.4192 30.1615 0.2577
77 30.5685 30.1622 0.4063
77.05 39.2029 30.1608 9.0421
77.1 29.8671 30.1594 -0.2923
77.15 32.0944 30.1575 1.9369
77.2 28.5695 30.1555 -1.586
77.25 39.8286 30.1563 9.6723
77.3 37.5007 30.157 7.3437
77.35 28.487 30.1563 -1.6693
77.4 41.7761 30.1557 11.6204
77.45 25.6955 30.1535 -4.458
77.5 19.1317 30.1513 -11.0196
77.55 38.7281 30.1518 8.5763
77.6 23.6798 30.1523 -6.4725
77.65 36.0339 30.1525 5.8814
77.7 30.4979 30.1527 0.3452
77.75 29.8373 30.1504 -0.3131
77.8 34.0671 30.1481 3.919
77.85 29.7456 30.1482 -0.4026
77.9 28.5961 30.1482 -1.5521
77.95 38.2694 30.1492 8.1202
78 21.7657 30.1503 -8.3846
78.05 31.0815 30.1483 0.9332
78.1 20.2366 30.1464 -9.9098
78.15 34.9638 30.1458 4.818
78.2 26.2727 30.1452 -3.8725
78.25 20.9621 30.1469 -9.1848
78.3 37.597 30.1485 7.4485
78.35 37.6739 30.1473 7.5266
78.4 34.9575 30.1461 4.8114
78.45 35.8858 30.1449 5.7409
78.5 27.7306 30.1437 -2.4131
78.55 26.8447 30.1457 -3.301
78.6 28.0987 30.1477 -2.049
78.65 28.2653 30.1476 -1.8823
78.7 24.0096 30.1475 -6.1379
78.75 27.8296 30.1459 -2.3163
78.8 37.5258 30.1443 7.3815
78.85 29.6115 30.1463 -0.5348
78.9 44.0383 30.1483 13.89
78.95 21.1929 30.1496 -8.9567
79 36.6742 30.1509 6.5233
79.05 28.2846 30.1493 -1.8647
79.1 22.2677 30.1477 -7.88
79.15 25.7594 30.1493 -4.3899
79.2 29.271 30.151 -0.88
79.25 34.0159 30.1539 3.862
79.3 24.1482 30.1568 -6.0086
79.35 23.1673 30.1566 -6.9893
79.4 23.3847 30.1563 -6.7716
79.45 42.7234 30.1576 12.5658
79.5 35.824 30.1589 5.6651
79.55 34.1676 30.163 4.0046
79.6 40.2284 30.1671 10.0613
79.65 48.5436 30.1691 18.3745
79.7 34.3593 30.1693 4.19
79.75 33.4347 30.1705 3.2642
79.8 31.9402 30.1717 1.7685
79.85 32.4671 30.1774 2.2897
79.9 27.6694 30.1831 -2.5137
79.95 32.5838 30.1871 2.3967
80 25.718 30.1911 -4.4731
80.05 34.5542 30.1933 4.3609
80.1 38.044 30.1956 7.8484
80.15 30.4233 30.2032 0.2201
80.2 36.4507 30.2109 6.2398
80.25 17.5662 30.2197 -12.6535
80.3 33.9652 30.2286 3.7366
80.35 27.7507 30.2347 -2.484
80.4 32.6927 30.2408 2.4519
80.45 36.2733 30.2526 6.0207
80.5 33.9893 30.2644 3.7249
80.55 25.5229 30.2831 -4.7602
80.6 32.9544 30.3019 2.6525
80.65 40.8675 30.3241 10.5434
80.7 36.5894 30.3464 6.243
80.75 33.0876 30.4073 2.6803
80.8 32.8633 30.4682 2.3951
80.85 30.6866 30.5546 0.132
80.9 31.9295 30.6411 1.2884
80.95 29.2801 30.71 -1.4299
81 31.614 30.7789 0.8351
81.05 31.8201 30.865 0.9551
81.1 30.2072 30.951 -0.7438
81.15 43.7933 31.0838 12.7095
81.2 38.4246 31.2166 7.208
81.25 39.8368 31.4206 8.4162
81.3 29.5264 31.6247 -2.0983
81.35 37.2121 31.9552 5.2569
81.4 36.9564 32.2857 4.6707
81.45 43.7653 32.9039 10.8614
81.5 25.3464 33.5222 -8.1758
81.55 51.2119 34.5815 16.6304
81.6 44.0111 36.2045 7.8066
81.65 38.7607 38.8561 -0.0954
81.7 52.4286 43.5878 8.8408
81.75 44.1043 53.0734 -8.9691
81.8 66.8045 74.4445 -7.64
81.85 143.056 123.187 19.869
81.9 216.233 211.349 4.884
81.95 290.645 304.312 -13.667
82 274.756 310.394 -35.638
82.05 207.807 213.192 -5.385
82.1 129.966 117.061 12.905
82.15 79.5738 69.3088 10.265
82.2 64.4115 50.0478 14.3637
82.25 54.252 41.6888 12.5632
82.3 33.1205 37.5286 -4.4081
82.35 43.6581 35.669 7.9891
82.4 24.6954 33.8093 -9.1139
82.45 31.8331 33.0497 -1.2166
82.5 22.5217 32.2902 -9.7685
82.55 20.1836 31.9203 -11.7367
82.6 40.2041 31.5504 8.6537
82.65 22.3341 31.3419 -9.0078
82.7 24.3962 31.1334 -6.7372
82.75 19.6983 30.9992 -11.3009
82.8 23.1572 30.8651 -7.7079
82.85 35.149 30.7796 4.3694
82.9 38.6991 30.6942 8.0049
82.95 35.1143 30.6379 4.4764
83 42.9279 30.5816 12.3463
83.05 24.2767 30.5306 -6.2539
83.1 27.2717 30.4796 -3.2079
83.15 27.1694 30.4203 -3.2509
83.2 35.8198 30.3609 5.4589
83.25 36.1682 30.3335 5.8347
83.3 37.571 30.3062 7.2648
83.35 33.4148 30.2891 3.1257
83.4 33.7032 30.2721 3.4311
83.45 29.5694 30.2557 -0.6863
83.5 39.2797 30.2393 9.0404
83.55 36.8067 30.23 6.5767
83.6 31.5973 30.2208 1.3765
83.65 18.2166 30.2151 -11.9985
83.7 40.201 30.2094 9.9916
83.75 27.6781 30.2003 -2.5222
83.8 24.9246 30.1912 -5.2666
83.85 24.8401 30.1843 -5.3442
83.9 26.6431 30.1774 -3.5343
83.95 24.3893 30.1755 -5.7862
84 27.0661 30.1736 -3.1075
84.05 26.0495 30.1693 -4.1198
84.1 33.6444 30.165 3.4794
84.15 30.5446 30.1592 0.3854
84.2 21.6652 30.1533 -8.4881
84.25 26.4036 30.152 -3.7484
84.3 29.7713 30.1506 -0.3793
84.35 36.8453 30.1497 6.6956
84.4 38.8515 30.1488 8.7027
84.45 32.2095 30.1444 2.0651
84.5 46.3439 30.14 16.2039
84.55 21.7261 30.1379 -8.4118
84.6 24.2856 30.1358 -5.8502
84.65 26.9825 30.1365 -3.154
84.7 39.4781 30.1372 9.3409
84.75 30.3616 30.135 0.2266
84.8 39.7477 30.1327 9.615
84.85 25.2328 30.1298 -4.897
84.9 31.4426 30.127 1.3156
84.95 29.0026 30.1277 -1.1251
85 30.5465 30.1285 0.418
85.05 23.1526 30.1284 -6.9758
85.1 28.1398 30.1283 -1.9885
85.15 25.3889 30.1255 -4.7366
85.2 24.076 30.1228 -6.0468
85.25 22.7587 30.1225 -7.3638
85.3 36.3941 30.1223 6.2718
85.35 33.6634 30.1236 3.5398
85.4 31.7419 30.1249 1.617
85.45 31.5708 30.1232 1.4476
85.5 30.6729 30.1216 0.5513
85.55 21.7551 30.1202 -8.3651
85.6 30.3932 30.1188 0.2744
85.65 33.0183 30.1203 2.898
85.7 26.872 30.1218 -3.2498
85.75 35.8831 30.1219 5.7612
85.8 33.0391 30.1219 2.9172
85.85 34.5091 30.12 4.3891
85.9 28.9544 30.1182 -1.1638
85.95 29.9431 30.1188 -0.1757
86 31.0234 30.1195 0.9039
86.05 36.4664 30.1209 6.3455
86.1 34.271 30.1223 4.1487
86.15 26.4279 30.121 -3.6931
86.2 27.5867 30.1198 -2.5331
86.25 37.6704 30.1192 7.5512
86.3 21.7019 30.1187 -8.4168
86.35 31.8972 30.1205 1.7767
86.4 19.0281 30.1223 -11.0942
86.45 25.5928 30.1224 -4.5296
86.5 32.299 30.1224 2.1766
86.55 30.5794 30.1212 0.4582
86.6 23.9731 30.1199 -6.1468
86.65 26.9647 30.1211 -3.1564
86.7 32.6719 30.1223 2.5496
86.75 32.9306 30.1237 2.8069
86.8 29.0313 30.1251 -1.0938
86.85 19.8814 30.1241 -10.2427
86.9 26.3688 30.1231 -3.7543
86.95 32.8813 30.1231 2.7582
87 23.9041 30.1231 -6.219
87.05 20.4373 30.1251 -9.6878
87.1 30.3572 30.127 0.2302
87.15 29.5178 30.1272 -0.6094
87.2 33.5634 30.1273 3.4361
87.25 32.1861 30.1265 2.0596
87.3 32.6756 30.1257 2.5499
87.35 24.5233 30.1271 -5.6038
87.4 23.8391 30.1286 -6.2895
87.45 36.8576 30.13 6.7276
87.5 25.7935 30.1314 -4.3379
87.55 33.6254 30.1307 3.4947
87.6 33.3446 30.13 3.2146
87.65 37.8205 30.1303 7.6902
87.7 33.1439 30.1307 3.0132
87.75 24.8426 30.1327 -5.2901
87.8 30.0717 30.1347 -0.063
87.85 43.4134 30.135 13.2784
87.9 37.5086 30.1353 7.3733
87.95 29.9726 30.1348 -0.1622
88 37.8351 30.1343 7.7008
88.05 37.8236 30.1359 7.6877
88.1 30.6329 30.1375 0.4954
88.15 28.2605 30.139 -1.8785
88.2 29.2286 30.1405 -0.9119
88.25 19.0735 30.1401 -11.0666
88.3 24.1651 30.1396 -5.9745
88.35 33.3798 30.1401 3.2397
88.4 27.4199 30.1407 -2.7208
88.45 38.2909 30.1428 8.1481
88.5 32.1219 30.1449 1.977
88.55 32.0321 30.1454 1.8867
88.6 30.2377 30.1459 0.0918
88.65 27.9363 30.1456 -2.2093
88.7 41.3779 30.1453 11.2326
88.75 29.5291 30.147 -0.6179
88.8 28.1789 30.1486 -1.9697
88.85 27.2133 30.1503 -2.937
88.9 35.5971 30.152 5.4451
88.95 24.0818 30.1517 -6.0699
89 25.4843 30.1515 -4.6672
89.05 23.7669 30.1521 -6.3852
89.1 29.7572 30.1528 -0.3956
89.15 35.854 30.155 5.699
89.2 34.7701 30.1572 4.6129
89.25 23.6223 30.1579 -6.5356
89.3 26.0842 30.1587 -4.0745
89.35 25.5294 30.1585 -4.6291
89.4 37.0251 30.1583 6.8668
89.45 29.4882 30.16 -0.6718
89.5 28.7004 30.1617 -1.4613
89.55 31.8712 30.1636 1.7076
89.6 37.3003 30.1655 7.1348
89.65 36.9079 30.1655 6.7424
89.7 28.0458 30.1655 -2.1197
89.75 26.5898 30.1662 -3.5764
89.8 35.1473 30.1668 4.9805
89.85 27.5608 30.169 -2.6082
89.9 40.2889 30.1713 10.1176
89.95 26.1956 30.1724 -3.9768
90 32.1435 30.1735 1.97
90.05 27.3358 30.1734 -2.8376
90.1 27.5323 30.1734 -2.6411
90.15 27.1154 30.175 -3.0596
90.2 36.8002 30.1766 6.6236
90.25 38.5687 30.1787 8.39
90.3 42.3208 30.1809 12.1399
90.35 31.1253 30.1812 0.9441
90.4 27.4038 30.1816 -2.7778
90.45 38.9739 30.1821 8.7918
90.5 23.2891 30.1826 -6.8935
90.55 23.9966 30.1849 -6.1883
90.6 35.7662 30.1872 5.579
90.65 33.0172 30.1887 2.8285
90.7 32.2544 30.1902 2.0642
90.75 33.6015 30.1903 3.4112
90.8 27.8716 30.1903 -2.3187
90.85 28.1033 30.1918 -2.0885
90.9 29.3979 30.1932 -0.7953
90.95 28.9386 30.1956 -1.257
91 35.2069 30.198 5.0089
91.05 43.3944 30.1987 13.1957
91.1 37.3452 30.1995 7.1457
91.15 37.3446 30.1999 7.1447
91.2 32.1108 30.2003 1.9105
91.25 37.0242 30.2026 6.8216
91.3 24.3902 30.2048 -5.8146
91.35 34.2364 30.2067 4.0297
91.4 36.0752 30.2087 5.8665
91.45 20.2193 30.209 -9.9897
91.5 38.4791 30.2093 8.2698
91.55 39.8704 30.2105 9.6599
91.6 24.2696 30.2117 -5.9421
91.65 35.7957 30.2143 5.5814
91.7 30.9341 30.2169 0.7172
91.75 27.9409 30.2182 -2.2773
91.8 16.1617 30.2196 -14.0579
91.85 30.7441 30.22 0.5241
91.9 27.3766 30.2205 -2.8439
91.95 30.2313 30.2226 0.0087
92 39.2128 30.2247 8.9881
92.05 30.9289 30.2273 0.7016
92.1 24.4575 30.2298 -5.7723
92.15 42.0757 30.2307 11.845
92.2 38.4988 30.2315 8.2673
92.25 34.077 30.2325 3.8445
92.3 27.7554 30.2336 -2.4782
92.35 30.8108 30.2364 0.5744
92.4 23.9773 30.2392 -6.2619
92.45 26.0911 30.2413 -4.1502
92.5 27.054 30.2434 -3.1894
92.55 29.8935 30.2441 -0.3506
92.6 26.9395 30.2448 -3.3053
92.65 33.6761 30.2467 3.4294
92.7 34.0419 30.2486 3.7933
92.75 29.1072 30.2516 -1.1444
92.8 30.0785 30.2547 -0.1762
92.85 27.8813 30.2563 -2.375
92.9 28.6604 30.2579 -1.5975
92.95 25.1307 30.2588 -5.1281
93 31.6887 30.2598 1.4289
93.05 38.6513 30.2625 8.3888
93.1 21.9358 30.2652 -8.3294
93.15 37.0502 30.2681 6.7821
93.2 36.8965 30.2711 6.6254
93.25 29.4272 30.2722 -0.845
93.3 31.0848 30.2734 0.8114
93.35 26.7121 30.275 -3.5629
93.4 34.0615 30.2765 3.785
93.45 37.8654 30.2802 7.5852
93.5 27.5723 30.2839 -2.7116
93.55 29.5907 30.2867 -0.696
93.6 33.2258 30.2895 2.9363
93.65 35.9497 30.2905 5.6592
93.7 29.1955 30.2915 -1.096
93.75 31.656 30.2936 1.3624
93.8 36.8264 30.2957 6.5307
93.85 30.7403 30.2995 0.4408
93.9 28.9801 30.3032 -1.3231
93.95 40.9982 30.3054 10.6928
94 40.4992 30.3077 10.1915
94.05 33.7542 30.3088 3.4454
94.1 27.6528 30.3099 -2.6571
94.15 29.1442 30.313 -1.1688
94.2 33.7317 30.316 3.4157
94.25 35.1704 30.3198 4.8506
94.3 38.2363 30.3235 7.9128
94.35 37.6384 30.3253 7.3131
94.4 22.0104 30.3271 -8.3167
94.45 35.3211 30.3287 4.9924
94.5 26.2306 30.3303 -4.0997
94.55 36.024 30.3341 5.6899
94.6 34.6447 30.3379 4.3068
94.65 16.1026 30.3415 -14.2389
94.7 39.8686 30.3451 9.5235
94.75 44.0243 30.3466 13.6777
94.8 36.6945 30.3481 6.3464
94.85 30.6007 30.3505 0.2502
94.9 29.613 30.3528 -0.7398
94.95 35.4739 30.3573 5.1166
95 25.0578 30.3617 -5.3039
95.05 35.8195 30.3649 5.4546
95.1 31.4853 30.3681 1.1172
95.15 26.606 30.3697 -3.7637
95.2 45.238 30.3712 14.8668
95.25 30.3442 30.3746 -0.0304
95.3 28.6387 30.3779 -1.7392
95.35 22.3743 30.3827 -8.0084
95.4 24.2878 30.3876 -6.0998
95.45 34.9847 30.3905 4.5942
95.5 23.9004 30.3934 -6.493
95.55 37.6729 30.3954 7.2775
95.6 26.8391 30.3974 -3.5583
95.65 23.1859 30.4018 -7.2159
95.7 28.3932 30.4062 -2.013
95.75 30.3275 30.4114 -0.0839
95.8 27.1047 30.4165 -3.3118
95.85 31.8623 30.4193 1.443
95.9 23.8744 30.4222 -6.5478
95.95 32.8365 30.4251 2.4114
96 28.1941 30.428 -2.2339
96.05 37.3664 30.4336 6.9328
96.1 31.3091 30.4393 0.8698
96.15 34.2556 30.4449 3.8107
96.2 26.9418 30.4505 -3.5087
96.25 19.7194 30.4538 -10.7344
96.3 29.0873 30.4572 -1.3699
96.35 18.7806 30.4616 -11.681
96.4 38.8943 30.466 8.4283
96.45 28.8404 30.4735 -1.6331
96.5 34.4553 30.4809 3.9744
96.55 31.0414 30.4877 0.5537
96.6 41.9798 30.4944 11.4854
96.65 18.2111 30.4994 -12.2883
96.7 30.3064 30.5044 -0.198
96.75 29.0169 30.5118 -1.4949
96.8 34.3027 30.5192 3.7835
96.85 37.4338 30.5301 6.9037
96.9 28.5233 30.5409 -2.0176
96.95 33.9341 30.5513 3.3828
97 26.9105 30.5616 -3.6511
97.05 31.8734 30.5719 1.3015
97.1 35.753 30.5822 5.1708
97.15 30.4285 30.5983 -0.1698
97.2 36.5373 30.6145 5.9228
97.25 31.3921 30.6407 0.7514
97.3 28.4247 30.667 -2.2423
97.35 29.1377 30.7081 -1.5704
97.4 31.7244 30.7492 0.9752
97.45 30.3743 30.7909 -0.4166
97.5 38.0119 30.8326 7.1793
97.55 26.9417 30.8845 -3.9428
97.6 37.8759 30.9363 6.9396
97.65 33.8959 31.0095 2.8864
97.7 33.5212 31.0826 2.4386
97.75 34.8924 31.1873 3.7051
97.8 22.9637 31.292 -8.3283
97.85 38.7239 31.4586 7.2653
97.9 39.1241 31.6253 7.4988
97.95 31.8859 31.9238 -0.0379
98 34.044 32.2224 1.8216
98.05 32.7828 32.8183 -0.0355
98.1 39.2913 33.4142 5.8771
98.15 36.103 34.8187 1.2843
98.2 32.3918 36.2232 -3.8314
98.25 37.4701 40.4825 -3.0124
98.3 54.7013 44.7418 9.9595
98.35 54.6695 56.2192 -1.5497
98.4 87.767 76.8071 10.9599
98.45 96.0635 111.538 -15.4745
98.5 142.273 149.725 -7.452
98.55 175.164 164.754 10.41
98.6 149.935 141.946 7.989
98.65 78.8086 102.305 -23.4964
98.7 71.1582 71.2631 -0.1049
98.75 58.9832 54.1246 4.8586
98.8 56.3164 44.5324 11.784
98.85 51.4275 39.6306 11.7969
98.9 31.3937 36.8122 -5.4185
98.95 32.5308 35.3872 -2.8564
99 28.9617 33.9623 -5.0006
99.05 30.6196 33.3155 -2.6959
99.1 25.8141 32.6687 -6.8546
99.15 37.2089 32.3324 4.8765
99.2 30.5847 31.9961 -1.4114
99.25 29.8272 31.8028 -1.9756
99.3 28.2052 31.6094 -3.4042
99.35 28.0686 31.4865 -3.4179
99.4 26.4244 31.3636 -4.9392
99.45 40.463 31.2797 9.1833
99.5 32.8978 31.1959 1.7019
99.55 33.6425 31.1359 2.5066
99.6 33.6728 31.076 2.5968
99.65 36.4417 31.0187 5.423
99.7 33.0097 30.9614 2.0483
99.75 27.9993 30.9035 -2.9042
99.8 30.7787 30.8456 -0.0669
99.85 34.2843 30.8194 3.4649
99.9 28.6698 30.7931 -2.1233
99.95 33.2344 30.7814 2.453
100 28.367 30.7697 -2.4027
100.05 25.018 30.7636 -5.7456
100.1 33.0768 30.7576 2.3192
100.15 34.3151 30.7525 3.5626
100.2 37.4853 30.7475 6.7378
100.25 29.244 30.7433 -1.4993
100.3 30.6468 30.7391 -0.0923
100.35 28.3451 30.7375 -2.3924
100.4 20.4901 30.7359 -10.2458
100.45 37.7685 30.7358 7.0327
100.5 30.7137 30.7358 -0.0221
100.55 26.5569 30.7352 -4.1783
100.6 26.6792 30.7346 -4.0554
100.65 20.9182 30.734 -9.8158
100.7 24.9869 30.7333 -5.7464
100.75 38.4795 30.7342 7.7453
100.8 18.9526 30.7351 -11.7825
100.85 21.8757 30.7369 -8.8612
100.9 31.0708 30.7387 0.3321
100.95 33.5035 30.7398 2.7637
101 25.5673 30.7408 -5.1735
101.05 34.7274 30.7416 3.9858
101.1 29.6385 30.7425 -1.104
101.15 35.2055 30.7445 4.461
101.2 27.5036 30.7464 -3.2428
101.25 29.6971 30.749 -1.0519
101.3 30.0597 30.7515 -0.6918
101.35 31.2118 30.7534 0.4584
101.4 30.3939 30.7552 -0.3613
101.45 31.9284 30.7568 1.1716
101.5 31.0182 30.7584 0.2598
101.55 21.3678 30.7609 -9.3931
101.6 29.7257 30.7634 -1.0377
101.65 35.3418 30.7663 4.5755
101.7 27.2216 30.7692 -3.5476
101.75 23.161 30.7704 -7.6094
101.8 23.666 30.7716 -7.1056
101.85 33.0992 30.7732 2.326
101.9 28.6353 30.7749 -2.1396
101.95 18.5523 30.7779 -12.2256
102 26.3693 30.7809 -4.4116
102.05 23.9937 30.7844 -6.7907
102.1 30.8358 30.7879 0.0479
102.15 30.5364 30.7901 -0.2537
102.2 42.0305 30.7924 11.2381
102.25 31.1821 30.7943 0.3878
102.3 33.9749 30.7962 3.1787
102.35 24.6443 30.7994 -6.1551
102.4 26.6436 30.8025 -4.1589
102.45 24.4435 30.8061 -6.3626
102.5 32.6033 30.8096 1.7937
102.55 23.3981 30.812 -7.4139
102.6 33.556 30.8144 2.7416
102.65 25.8949 30.8165 -4.9216
102.7 21.88 30.8186 -8.9386
102.75 29.8878 30.8219 -0.9341
102.8 41.1506 30.8251 10.3255
102.85 30.6503 30.8286 -0.1783
102.9 20.8556 30.8322 -9.9766
102.95 40.604 30.8347 9.7693
103 34.3555 30.8372 3.5183
103.05 32.5981 30.8394 1.7587
103.1 26.503 30.8417 -4.3387
103.15 32.8507 30.8449 2.0058
103.2 30.3143 30.8481 -0.5338
103.25 34.0786 30.8517 3.2269
103.3 35.5484 30.8552 4.6932
103.35 31.3486 30.8578 0.4908
103.4 27.9573 30.8604 -2.9031
103.45 31.5736 30.8627 0.7109
103.5 34.8346 30.865 3.9696
103.55 27.9009 30.8682 -2.9673
103.6 27.3008 30.8714 -3.5706
103.65 28.3029 30.8749 -2.572
103.7 38.0814 30.8784 7.203
103.75 29.4334 30.8811 -1.4477
103.8 22.3232 30.8838 -8.5606
103.85 22.8946 30.8861 -7.9915
103.9 24.9668 30.8884 -5.9216
103.95 31.4525 30.8915 0.561
104 19.6575 30.8946 -11.2371
104.05 28.2642 30.8981 -2.6339
104.1 27.8788 30.9016 -3.0228
104.15 35.6017 30.9044 4.6973
104.2 31.7745 30.9071 0.8674
104.25 19.4315 30.9094 -11.4779
104.3 25.4406 30.9117 -5.4711
104.35 28.7715 30.9147 -2.1432
104.4 33.7288 30.9178 2.811
104.45 42.3907 30.9212 11.4695
104.5 29.3539 30.9247 -1.5708
104.55 27.3638 30.9274 -3.5636
104.6 27.6306 30.9302 -3.2996
104.65 35.6325 30.9325 4.7
104.7 33.3477 30.9348 2.4129
104.75 31.448 30.9377 0.5103
104.8 35.1378 30.9407 4.1971
104.85 28.4487 30.9441 -2.4954
104.9 31.5716 30.9475 0.6241
104.95 19.5073 30.9503 -11.443
105 14.1261 30.9531 -16.827
105.05 37.1874 30.9553 6.2321
105.1 29.9586 30.9576 -0.999
105.15 24.3348 30.9604 -6.6256
105.2 27.9106 30.9632 -3.0526
105.25 36.7571 30.9666 5.7905
105.3 31.5485 30.9699 0.5786
105.35 29.2946 30.9727 -1.6781
105.4 22.7331 30.9756 -8.2425
105.45 33.5263 30.9778 2.5485
105.5 33.5231 30.9801 2.543
105.55 32.4912 30.9827 1.5085
105.6 32.3324 30.9854 1.347
105.65 25.4126 30.9886 -5.576
105.7 25.0207 30.9919 -5.9712
105.75 29.7852 30.9948 -1.2096
105.8 29.9864 30.9976 -1.0112
105.85 27.4835 30.9998 -3.5163
105.9 32.1259 31.0021 1.1238
105.95 23.8425 31.0046 -7.1621
106 34.5792 31.0071 3.5721
106.05 25.1896 31.0102 -5.8206
106.1 24.7179 31.0134 -6.2955
106.15 32.7138 31.0162 1.6976
106.2 30.2593 31.0191 -0.7598
106.25 25.6181 31.0213 -5.4032
106.3 35.9896 31.0236 4.966
106.35 30.8692 31.0259 -0.1567
106.4 34.4048 31.0283 3.3765
106.45 25.9694 31.0313 -5.0619
106.5 28.007 31.0343 -3.0273
106.55 28.7102 31.0371 -2.3269
106.6 36.5156 31.04 5.4756
106.65 34.401 31.0423 3.3587
106.7 40.8385 31.0445 9.794
106.75 34.8208 31.0467 3.7741
106.8 36.971 31.0489 5.9221
106.85 37.5486 31.0517 6.4969
106.9 31.5452 31.0545 0.4907
106.95 34.3296 31.0574 3.2722
107 25.4439 31.0603 -5.6164
107.05 27.1328 31.0625 -3.9297
107.1 26.3332 31.0647 -4.7315
107.15 20.9965 31.0668 -10.0703
107.2 22.7355 31.0688 -8.3333
107.25 30.9622 31.0715 -0.1093
107.3 39.2024 31.0741 8.1283
107.35 26.8666 31.0769 -4.2103
107.4 23.1226 31.0798 -7.9572
107.45 31.0539 31.082 -0.0281
107.5 37.0226 31.0843 5.9383
107.55 31.929 31.0862 0.8428
107.6 26.6498 31.0881 -4.4383
107.65 22.2174 31.0905 -8.8731
107.7 22.1043 31.0929 -8.9886
107.75 32.7708 31.0957 1.6751
107.8 29.9189 31.0985 -1.1796
107.85 28.3623 31.1008 -2.7385
107.9 37.554 31.1031 6.4509
107.95 42.3227 31.1049 11.2178
108 35.7263 31.1068 4.6195
108.05 35.857 31.1089 4.7481
108.1 32.5386 31.1111 1.4275
108.15 22.7473 31.1137 -8.3664
108.2 29.4415 31.1164 -1.6749
108.25 39.5908 31.1188 8.472
108.3 24.7256 31.1213 -6.3957
108.35 23.8268 31.1231 -7.2963
108.4 23.2879 31.1249 -7.837
108.45 31.6727 31.1269 0.5458
108.5 27.8009 31.1288 -3.3279
108.55 31.0793 31.1314 -0.0521
108.6 37.6384 31.134 6.5044
108.65 28.6198 31.1365 -2.5167
108.7 22.4109 31.1391 -8.7282
108.75 30.7733 31.141 -0.3677
108.8 32.7054 31.1429 1.5625
108.85 23.3563 31.1447 -7.7884
108.9 28.6506 31.1465 -2.4959
108.95 29.5244 31.1489 -1.6245
109 34.757 31.1513 3.6057
109.05 23.834 31.154 -7.32
109.1 34.6695 31.1566 3.5129
109.15 42.8421 31.1586 11.6835
109.2 38.2365 31.1607 7.0758
109.25 37.2833 31.1624 6.1209
109.3 30.9802 31.1641 -0.1839
109.35 38.9439 31.1663 7.7776
109.4 36.4939 31.1685 5.3254
109.45 19.5085 31.1712 -11.6627
109.5 40.3349 31.1738 9.1611
109.55 27.8713 31.1761 -3.3048
109.6 38.2935 31.1783 7.1152
109.65 34.9251 31.18 3.7451
109.7 32.1224 31.1817 0.9407
109.75 28.6206 31.1836 -2.563
109.8 24.1501 31.1856 -7.0355
109.85 27.36 31.1882 -3.8282
109.9 25.2803 31.1908 -5.9105
109.95 36.0257 31.1933 4.8324
110 26.4752 31.1957 -4.7205
110.05 27.6665 31.1975 -3.531
110.1 36.6578 31.1993 5.4585
110.15 25.1155 31.2011 -6.0856
110.2 30.7021 31.2028 -0.5007
110.25 37.6514 31.2053 6.4461
110.3 20.5358 31.2077 -10.6719
110.35 34.6298 31.2104 3.4194
110.4 21.3912 31.213 -9.8218
110.45 35.5146 31.215 4.2996
110.5 28.685 31.217 -2.532
110.55 28.9955 31.2186 -2.2231
110.6 15.0284 31.2203 -16.1919
110.65 22.8096 31.2225 -8.4129
110.7 34.2341 31.2247 3.0094
110.75 32.2049 31.2274 0.9775
110.8 34.1931 31.2302 2.9629
110.85 36.6209 31.2325 5.3884
110.9 44.6155 31.2348 13.3807
110.95 25.3971 31.2365 -5.8394
111 37.8916 31.2381 6.6535
111.05 34.3463 31.2401 3.1062
111.1 20.2953 31.242 -10.9467
111.15 38.9504 31.2447 7.7057
111.2 34.259 31.2474 3.0116
111.25 25.9922 31.2501 -5.2579
111.3 28.705 31.2527 -2.5477
111.35 30.9761 31.2546 -0.2785
111.4 28.4137 31.2565 -2.8428
111.45 32.1019 31.2583 0.8436
111.5 25.7493 31.26 -5.5107
111.55 12.9785 31.2623 -18.2838
111.6 26.4031 31.265 -4.8619
111.65 33.0084 31.268 1.7404
111.7 31.9115 31.271 0.6405
111.75 33.9445 31.2733 2.6712
111.8 23.0336 31.2757 -8.2421
111.85 31.9009 31.2774 0.6235
111.9 34.7549 31.2792 3.4757
111.95 24.9991 31.2814 -6.2823
112 26.0709 31.2837 -5.2128
112.05 22.6419 31.2868 -8.6449
112.1 31.1457 31.2899 -0.1442
112.15 31.8968 31.2929 0.6039
112.2 31.0514 31.2959 -0.2445
112.25 31.404 31.298 0.106
112.3 21.7486 31.3001 -9.5515
112.35 31.3795 31.3022 0.0773
112.4 23.4629 31.3042 -7.8413
112.45 26.2762 31.3073 -5.0311
112.5 27.6488 31.3104 -3.6616
112.55 31.4121 31.3141 0.098
112.6 33.1484 31.3177 1.8307
112.65 30.7852 31.3206 -0.5354
112.7 30.5693 31.3235 -0.7542
112.75 30.1699 31.3258 -1.1559
112.8 25.5044 31.3281 -5.8237
112.85 33.0399 31.3312 1.7087
112.9 27.6423 31.3342 -3.6919
112.95 32.3311 31.3384 0.9927
113 37.8278 31.3426 6.4852
113.05 25.6658 31.3469 -5.6811
113.1 32.8365 31.3511 1.4854
113.15 32.557 31.3544 1.2026
113.2 29.4857 31.3577 -1.872
113.25 33.8951 31.3611 2.534
113.3 47.3372 31.3645 15.9727
113.35 35.0248 31.3694 3.6554
113.4 31.3913 31.3743 0.017
113.45 29.5805 31.3803 -1.7998
113.5 33.4443 31.3863 2.058
113.55 27.2632 31.3919 -4.1287
113.6 28.482 31.3975 -2.9155
113.65 30.069 31.4027 -1.3337
113.7 28.6897 31.4079 -2.7182
113.75 40.8144 31.4144 9.4
113.8 25.5573 31.4209 -5.8636
113.85 29.2149 31.4298 -2.2149
113.9 34.9874 31.4387 3.5487
113.95 35.7982 31.449 4.3492
114 35.8494 31.4593 4.3901
114.05 36.521 31.4699 5.0511
114.1 36.0452 31.4804 4.5648
114.15 30.4147 31.4926 -1.0779
114.2 23.229 31.5048 -8.2758
114.25 25.9045 31.5213 -5.6168
114.3 29.9803 31.5379 -1.5576
114.35 32.2881 31.5604 0.7277
114.4 24.9127 31.5829 -6.6702
114.45 43.0524 31.6117 11.4407
114.5 29.776 31.6404 -1.8644
114.55 31.2641 31.6783 -0.4142
114.6 30.4324 31.7161 -1.2837
114.65 28.5292 31.7699 -3.2407
114.7 27.8649 31.8237 -3.9588
114.75 25.6179 31.8993 -6.2814
114.8 26.8884 31.9749 -5.0865
114.85 31.7634 32.0768 -0.3134
114.9 25.6432 32.1786 -6.5354
114.95 36.6152 32.3195 4.2957
115 32.6927 32.4603 0.2324
115.05 27.348 32.6705 -5.3225
115.1 42.9874 32.8807 10.1067
115.15 29.0172 33.2197 -4.2025
115.2 41.6281 33.5588 8.0693
115.25 30.8596 34.1415 -3.2819
115.3 36.8494 34.7243 2.1251
115.35 36.2771 35.7846 0.4925
115.4 33.6016 36.8448 -3.2432
115.45 41.1473 38.8827 2.2646
115.5 39.9525 40.9206 -0.9681
115.55 54.0838 44.2806 9.8032
115.6 50.0109 49.0228 0.9881
115.65 41.9684 55.6205 -13.6521
115.7 68.419 64.4757 3.9433
115.75 87.2745 75.6043 11.6702
115.8 82.9255 87.9689 -5.0434
115.85 93.8812 99.3927 -5.5115
115.9 109.475 106.717 2.758
115.95 102.894 107.371 -4.477
116 101.046 101.314 -0.268
116.05 89.0036 90.4899 -1.4863
116.1 77.2307 78.1237 -0.893
116.15 64.8604 66.7085 -1.8481
116.2 59.0346 57.4276 1.607
116.25 51.3947 50.4279 0.9668
116.3 49.4105 45.3573 4.0532
116.35 34.2978 42.27 -7.9722
116.4 45.2132 39.1826 6.0306
116.45 31.9799 37.6046 -5.6247
116.5 41.3841 36.0267 5.3574
116.55 35.3809 35.1824 0.1985
116.6 32.4825 34.3382 -1.8557
116.65 30.301 33.8608 -3.5598
116.7 35.5023 33.3835 2.1188
116.75 43.4434 33.0985 10.3449
116.8 29.3524 32.8135 -3.4611
116.85 37.6672 32.6319 5.0353
116.9 28.3644 32.4504 -4.086
116.95 32.6981 32.3248 0.3733
117 38.2624 32.1992 6.0632
117.05 37.7919 32.1063 5.6856
117.1 34.0875 32.0134 2.0741
117.15 37.0611 31.9459 5.1152
117.2 41.3429 31.8785 9.4644
117.25 37.4144 31.8329 5.5815
117.3 29.5256 31.7874 -2.2618
117.35 29.748 31.7563 -2.0083
117.4 27.9439 31.7252 -3.7813
117.45 22.2721 31.7017 -9.4296
117.5 31.2497 31.6781 -0.4284
117.55 36.1227 31.6598 4.4629
117.6 32.4432 31.6414 0.8018
117.65 35.9148 31.6284 4.2864
117.7 35.0492 31.6154 3.4338
117.75 28.649 31.6068 -2.9578
117.8 31.3177 31.5983 -0.2806
117.85 41.8547 31.5917 10.263
117.9 30.2033 31.5851 -1.3818
117.95 39.3192 31.5784 7.7408
118 34.1025 31.5718 2.5307
118.05 30.3375 31.5657 -1.2282
118.1 29.1348 31.5597 -2.4249
118.15 25.5635 31.5558 -5.9923
118.2 32.4712 31.5519 0.9193
118.25 45.5611 31.55 14.0111
118.3 32.2705 31.5482 0.7223
118.35 35.8226 31.5467 4.2759
118.4 26.1484 31.5451 -5.3967
118.45 25.6281 31.5427 -5.9146
118.5 31.7183 31.5402 0.1781
118.55 22.3543 31.5377 -9.1834
118.6 19.0288 31.5351 -12.5063
118.65 41.9202 31.534 10.3862
118.7 25.9107 31.533 -5.6223
118.75 25.2864 31.5333 -6.2469
118.8 36.8822 31.5336 5.3486
118.85 29.9725 31.5338 -1.5613
118.9 30.195 31.534 -1.339
118.95 18.6657 31.533 -12.8673
119 30.4547 31.5321 -1.0774
119.05 33.492 31.531 1.961
119.1 21.9685 31.5299 -9.5614
119.15 28.1088 31.53 -3.4212
119.2 27.2655 31.5301 -4.2646
119.25 27.2455 31.5313 -4.2858
119.3 20.4133 31.5325 -11.1192
119.35 35.4464 31.5334 3.913
119.4 30.2571 31.5342 -1.2771
119.45 35.4604 31.5341 3.9263
119.5 32.9284 31.5339 1.3945
119.55 32.9706 31.5335 1.4371
119.6 28.1129 31.5331 -3.4202
119.65 37.936 31.5337 6.4023
119.7 28.0067 31.5344 -3.5277
119.75 35.0161 31.5359 3.4802
119.8 24.6493 31.5375 -6.8882
119.85 26.9572 31.5387 -4.5815
119.9 21.6164 31.54 -9.9236
119.95 32.4895 31.5402 0.9493
120 29.5459 31.5405 -1.9946
120.05 30.7166 31.5404 -0.8238
120.1 25.9023 31.5404 -5.6381
120.15 34.0824 31.5413 2.5411
120.2 35.1449 31.5422 3.6027
120.25 35.3974 31.5439 3.8535
120.3 41.968 31.5456 10.4224
120.35 30.3363 31.5471 -1.2108
120.4 24.5259 31.5486 -7.0227
120.45 27.9184 31.5491 -3.6307
120.5 27.1235 31.5496 -4.4261
120.55 21.6705 31.5498 -9.8793
120.6 26.7927 31.55 -4.7573
120.65 29.4254 31.551 -2.1256
120.7 30.943 31.552 -0.609
120.75 33.3183 31.5538 1.7645
120.8 32.5712 31.5556 1.0156
120.85 31.5323 31.5572 -0.0249
120.9 33.5668 31.5588 2.008
120.95 31.0591 31.5596 -0.5005
121 34.5544 31.5603 2.9941
121.05 30.1377 31.5606 -1.4229
121.1 28.6428 31.561 -2.9182
121.15 23.8618 31.562 -7.7002
121.2 36.9749 31.563 5.4119
121.25 27.6257 31.5648 -3.9391
121.3 27.337 31.5666 -4.2296
121.35 31.5701 31.5683 0.0018
121.4 28.0657 31.5701 -3.5044
121.45 32.355 31.571 0.784
121.5 28.2736 31.5719 -3.2983
121.55 29.9806 31.5724 -1.5918
121.6 33.0401 31.5728 1.4673
121.65 30.774 31.5738 -0.7998
121.7 28.2456 31.5748 -3.3292
121.75 29.9864 31.5765 -1.5901
121.8 24.4384 31.5783 -7.1399
121.85 30.6023 31.5801 -0.9778
121.9 36.9381 31.5819 5.3562
121.95 30.6832 31.583 -0.8998
122 32.2639 31.5841 0.6798
122.05 32.267 31.5847 0.6823
122.1 18.864 31.5853 -12.7213
122.15 31.1555 31.5862 -0.4307
122.2 31.5737 31.5871 -0.0134
122.25 33.4007 31.5887 1.812
122.3 29.1426 31.5904 -2.4478
122.35 39.603 31.5923 8.0107
122.4 32.6029 31.5942 1.0087
122.45 29.0963 31.5955 -2.4992
122.5 32.4757 31.5968 0.8789
122.55 24.7377 31.5975 -6.8598
122.6 29.4606 31.5981 -2.1375
122.65 35.3524 31.5989 3.7535
122.7 36.0581 31.5998 4.4583
122.75 20.7955 31.6008 -10.8053
122.8 35.5718 31.6018 3.97
122.85 37.2181 31.6035 5.6146
122.9 37.5512 31.6052 5.946
122.95 37.1207 31.6067 5.514
123 33.3838 31.6082 1.7756
123.05 32.9329 31.6092 1.3237
123.1 34.2255 31.6103 2.6152
123.15 29.554 31.6112 -2.0572
123.2 33.2409 31.6121 1.6288
123.25 39.4044 31.6134 7.791
123.3 33.4958 31.6146 1.8812
123.35 28.1361 31.6163 -3.4802
123.4 30.2448 31.618 -1.3732
123.45 20.7403 31.6196 -10.8793
123.5 32.7434 31.6212 1.1222
123.55 23.9314 31.6224 -7.691
123.6 27.2929 31.6235 -4.3306
123.65 31.2048 31.6245 -0.4197
123.7 34.0787 31.6254 2.4533
123.75 32.4896 31.6266 0.863
123.8 29.5466 31.6277 -2.0811
123.85 36.1099 31.6293 4.4806
123.9 42.392 31.6309 10.7611
123.95 31.7634 31.6326 0.1308
124 29.301 31.6342 -2.3332
124.05 26.2092 31.6356 -5.4264
124.1 28.6066 31.6369 -3.0303
124.15 26.3878 31.638 -5.2502
124.2 41.0753 31.639 9.4363
124.25 26.5126 31.64 -5.1274
124.3 25.2987 31.6411 -6.3424
124.35 31.066 31.6426 -0.5766
124.4 25.273 31.644 -6.371
124.45 29.0605 31.6457 -2.5852
124.5 30.5664 31.6474 -1.081
124.55 26.4755 31.6489 -5.1734
124.6 42.1765 31.6504 10.5261
124.65 28.7187 31.6516 -2.9329
124.7 32.2367 31.6527 0.584
124.75 36.3512 31.6537 4.6975
124.8 26.2708 31.6548 -5.384
124.85 26.4635 31.6561 -5.1926
124.9 38.5908 31.6574 6.9334
124.95 43.3843 31.659 11.7253
125 26.1098 31.6607 -5.5509
125.05 36.032 31.6623 4.3697
125.1 31.2781 31.6639 -0.3858
125.15 33.0854 31.6653 1.4201
125.2 29.4553 31.6666 -2.2113
125.25 27.8909 31.6676 -3.7767
125.3 26.6036 31.6687 -5.0651
125.35 32.4503 31.6699 0.7804
125.4 25.5421 31.671 -6.1289
125.45 27.0961 31.6726 -4.5765
125.5 33.0216 31.6741 1.3475
125.55 33.5824 31.6758 1.9066
125.6 26.5165 31.6775 -5.161
125.65 32.5833 31.679 0.9043
125.7 22.7467 31.6805 -8.9338
125.75 34.1726 31.6816 2.491
125.8 20.1403 31.6828 -11.5425
125.85 30.3211 31.6839 -1.3628
125.9 27.8594 31.685 -3.8256
125.95 24.3589 31.6864 -7.3275
126 33.9867 31.6877 2.299
126.05 22.4012 31.6894 -9.2882
126.1 30.5936 31.6911 -1.0975
126.15 29.8227 31.6927 -1.87
126.2 25.3968 31.6943 -6.2975
126.25 39.9681 31.6957 8.2724
126.3 29.6595 31.697 -2.0375
126.35 31.3668 31.6982 -0.3314
126.4 36.6043 31.6993 4.905
126.45 28.7576 31.7005 -2.9429
126.5 28.6985 31.7017 -3.0032
126.55 34.501 31.7033 2.7977
126.6 33.0464 31.7048 1.3416
126.65 29.0575 31.7065 -2.649
126.7 24.4668 31.7082 -7.2414
126.75 30.8111 31.7097 -0.8986
126.8 34.9943 31.7113 3.283
126.85 26.4599 31.7125 -5.2526
126.9 33.2128 31.7138 1.499
126.95 35.2708 31.7149 3.5559
127 33.601 31.7161 1.8849
127.05 27.2159 31.7175 -4.5016
127.1 34.3094 31.7188 2.5906
127.15 21.4434 31.7205 -10.2771
127.2 24.4776 31.7221 -7.2445
127.25 35.6697 31.7238 3.9459
127.3 39.3669 31.7255 7.6414
127.35 31.0778 31.7269 -0.6491
127.4 20.5839 31.7284 -11.1445
127.45 47.3919 31.7296 15.6623
127.5 41.4316 31.7308 9.7008
127.55 19.9053 31.732 -11.8267
127.6 40.4927 31.7333 8.7594
127.65 42.2542 31.7348 10.5194
127.7 39.1829 31.7362 7.4467
127.75 31.3975 31.7379 -0.3404
127.8 28.4898 31.7397 -3.2499
127.85 22.7292 31.7413 -9.0121
127.9 29.8441 31.7429 -1.8988
127.95 36.7247 31.7443 4.9804
128 34.4122 31.7457 2.6665
128.05 29.2508 31.7469 -2.4961
128.1 29.988 31.7482 -1.7602
128.15 41.4279 31.7495 9.6784
128.2 31.543 31.7508 -0.2078
128.25 32.574 31.7524 0.8216
128.3 38.677 31.754 6.923
128.35 25.9854 31.7557 -5.7703
128.4 31.3475 31.7574 -0.4099
128.45 39.117 31.759 7.358
128.5 24.2184 31.7607 -7.5423
128.55 29.8625 31.762 -1.8995
128.6 29.4369 31.7634 -2.3265
128.65 25.1444 31.7646 -6.6202
128.7 32.0295 31.7659 0.2636
128.75 29.566 31.7673 -2.2013
128.8 22.1094 31.7687 -9.6593
128.85 31.5897 31.7703 -0.1806
128.9 25.1151 31.772 -6.6569
128.95 23.7295 31.7737 -8.0442
129 34.0974 31.7755 2.3219
129.05 28.2289 31.7771 -3.5482
129.1 36.5945 31.7787 4.8158
129.15 31.9385 31.78 0.1585
129.2 37.1152 31.7814 5.3338
129.25 29.2997 31.7827 -2.483
129.3 31.8212 31.784 0.0372
129.35 29.0208 31.7854 -2.7646
129.4 19.7078 31.7869 -12.0791
129.45 27.1898 31.7886 -4.5988
129.5 35.9388 31.7903 4.1485
129.55 21.8171 31.7921 -9.975
129.6 29.7603 31.7938 -2.0335
129.65 25.459 31.7954 -6.3364
129.7 28.7524 31.797 -3.0446
129.75 30.0029 31.7984 -1.7955
129.8 34.3542 31.7997 2.5545
129.85 31.4646 31.8011 -0.3365
129.9 32.1575 31.8024 0.3551
129.95 22.4804 31.8147 -9.3343
130 17.3401 31.8269 -14.4868
