40 32.8095 5.72795775124084
40.05 40.6882 6.37873028117665
40.1 41.7609 6.46226740393803
40.15 26.3189 5.13019492807047
40.2 32.33 5.6859475903318
40.25 50.5719 7.11139226874738
40.3 33.7172 5.80665135857148
40.35 34.3699 5.8625847541848
40.4 46.0312 6.78462968775747
40.45 44.3343 6.65840070887897
40.5 43.3847 6.58670630892254
40.55 57.5706 7.58752924211828
40.6 47.5483 6.89552753601927
40.65 37.3836 6.11421295016783
40.7 41.309 6.42720779187977
40.75 39.391 6.27622498003378
40.8 46.2649 6.80183063593912
40.85 25.5095 5.05069302175454
40.9 39.0008 6.24506204933146
40.95 53.503 7.31457449206719
41 32.6666 5.71547023437267
41.05 42.0479 6.48443521056383
41.1 32.3173 5.68483069228979
41.15 45.9824 6.78103236977969
41.2 43.9077 6.62628855393425
41.25 36.4939 6.04101812611086
41.3 40.1126 6.33345087610222
41.35 27.5702 5.25073328212356
41.4 51.9872 7.21021497599066
41.45 42.2894 6.50303006297833
41.5 48.6126 6.97227366072216
41.55 50.3441 7.09535763721604
41.6 40.2758 6.3463217693401
41.65 45.9989 6.78224888956458
41.7 34.8588 5.90413414481751
41.75 42.9304 6.55212942485113
41.8 35.3736 5.94757093274221
41.85 40.0042 6.32488735077551
41.9 41.1497 6.41480319261628
41.95 49.0183 7.00130702083547
42 47.6068 6.89976811204551
42.05 38.4398 6.19998387094676
42.1 33.3927 5.77864170891396
42.15 42.5414 6.52237686736975
42.2 31.3685 5.60075887715227
42.25 38.2851 6.18749545454379
42.3 37.4214 6.11730332744748
42.35 32.2043 5.67488325871114
42.4 35.5602 5.96323737578842
42.45 36.2267 6.01886201868759
42.5 47.758 6.91071631598346
42.55 44.71 6.68655367136165
42.6 41.5702 6.44749563784265
42.65 34.2013 5.84818775348398
42.7 35.1044 5.92489662357074
42.75 37.6059 6.13236495978509
42.8 45.6207 6.75430973527273
42.85 43.3374 6.5831147643042
42.9 36.7306 6.06057753023588
42.95 35.0842 5.9231917071795
43 39.6317 6.2953713154984
43.05 42.1473 6.49209519338711
43.1 37.1083 6.09165823072831
43.15 34.604 5.88251646831524
43.2 52.5529 7.2493379008017
43.25 42.1982 6.49601416254614
43.3 46.1459 6.7930773586056
43.35 44.3601 6.66033782926962
43.4 47.4114 6.88559365632332
43.45 43.5859 6.60196182963822
43.5 40.4399 6.3592373756607
43.55 35.7216 5.97675497239095
43.6 47.2207 6.87173195053474
43.65 40.7898 6.3866892831889
43.7 45.4777 6.74371559305402
43.75 38.7311 6.22343152930921
43.8 39.7284 6.30304688226258
43.85 52.8494 7.26975928074651
43.9 41.133 6.41350138379965
43.95 46.9411 6.85135752971628
44 53.2641 7.29822581179837
44.05 59.3574 7.70437538026283
44.1 80.8262 8.99033925944956
44.15 83.5984 9.14321606438347
44.2 138.3121 11.7606164804401
44.25 392.567 19.8133036114627
44.3 1190.7354 34.5070340655351
44.35 2145.9216 46.3240930834053
44.4 2204.1465 46.9483386287523
44.45 1394.9275 37.3487282246665
44.5 463.9585 21.5396959124311
44.55 157.5198 12.5506892241024
44.6 94.1035 9.70069585132943
44.65 61.0503 7.81346913988914
44.7 43.9344 6.62830295022791
44.75 47.2426 6.87332525056104
44.8 48.1024 6.93558937654184
44.85 46.7701 6.83886686520508
44.9 46.5079 6.81967007999654
44.95 29.5209 5.43331390589574
45 37.0064 6.0832885843103
45.05 49.5887 7.04192445287508
45.1 45.0633 6.71292037789813
45.15 44.5612 6.67541758993398
45.2 38.333 6.19136495451528
45.25 43.8622 6.6228543695298
45.3 36.7745 6.06419821575779
45.35 37.8658 6.15351931824383
45.4 39.7006 6.30084121367933
45.45 41.8151 6.46645961867852
45.5 33.5472 5.79199447513549
45.55 25.607 5.06033595722656
45.6 33.733 5.80801170797718
45.65 36.9708 6.08036183133866
45.7 29.5818 5.43891533304206
45.75 39.005 6.24539830595295
45.8 37.3798 6.11390219090885
45.85 28.0447 5.29572469072931
45.9 38.8193 6.23051362248731
45.95 38.9153 6.23821288511381
46 36.9279 6.07683305678213
46.05 36.5368 6.0445678091986
46.1 36.4881 6.04053805550466
46.15 31.3719 5.60106239922392
46.2 40.9421 6.39860140968321
46.25 39.1949 6.26058303994125
46.3 37.0945 6.09052542889363
46.35 41.6502 6.45369661511912
46.4 32.6853 5.71710591121067
46.45 42.6253 6.5288054037473
46.5 25.3648 5.03634788313913
46.55 45.401 6.73802641728273
46.6 37.5131 6.12479387408262
46.65 30.7922 5.54907199448701
46.7 38.6547 6.21729040659997
46.75 31.8535 5.64389050212706
46.8 41.9196 6.47453473231861
46.85 24.3745 4.93705377730484
46.9 25.0565 5.00564681135216
46.95 31.3316 5.59746371136071
47 45.1946 6.72269291281403
47.05 30.2516 5.50014545262214
47.1 35.6161 5.96792258662929
47.15 35.1168 5.92594296293847
47.2 33.1966 5.76164906949391
47.25 48.7644 6.98315115116378
47.3 37.9666 6.16170430968575
47.35 34.7067 5.89123925842433
47.4 41.7956 6.46495166261899
47.45 51.4594 7.1735207534376
47.5 46.5129 6.82003665679298
47.55 34.283 5.85516865683645
47.6 36.1432 6.01192148984
47.65 25.9586 5.09495829227286
47.7 32.5646 5.70654010763089
47.75 22.4306 4.73609543822757
47.8 44.7657 6.69071745031876
47.85 34.0758 5.83744807257418
47.9 35.7483 5.97898820871893
47.95 34.0369 5.83411518569869
48 31.6065 5.62196584834878
48.05 38.823 6.2308105411736
48.1 47.8501 6.91737667038596
48.15 35.7316 5.97759148821664
48.2 33.6557 5.80135329039699
48.25 33.0001 5.74457135041423
48.3 38.8091 6.22969501661197
48.35 27.2095 5.21627261557522
48.4 37.9883 6.16346493459645
48.45 35.979 5.9982497447172
48.5 35.5586 5.96310321896242
48.55 29.8559 5.46405527058429
48.6 45.3092 6.73121088660874
48.65 29.0571 5.39046380193764
48.7 31.1843 5.58429046522475
48.75 43.2607 6.57728667460983
48.8 22.58 4.75184174820669
48.85 39.1604 6.2578270989218
48.9 43.1046 6.56540935509736
48.95 29.663 5.44637494118795
49 35.183 5.93152594194782
49.05 39.0215 6.24671913887602
49.1 43.2118 6.57356828518576
49.15 33.3918 5.77856383541793
49.2 49.0793 7.00566199584308
49.25 31.6463 5.62550442182743
49.3 29.2862 5.41167256954816
49.35 24.694 4.96930578652592
49.4 38.7589 6.2256646231547
49.45 29.2544 5.40873367804332
49.5 36.2015 6.01676823552312
49.55 37.0152 6.08401183430802
49.6 39.7352 6.30358628084046
49.65 29.7691 5.45610667051149
49.7 37.481 6.12217281690088
49.75 34.5997 5.88215096712079
49.8 37.754 6.1444283704833
49.85 38.4657 6.20207223434232
49.9 39.6662 6.29811082785942
49.95 35.5276 5.96050333445088
50 37.3379 6.11047461331769
50.05 30.345 5.50862959364668
50.1 26.3471 5.1329426258239
50.15 23.3114 4.82818806593115
50.2 43.3025 6.58046350951056
50.25 39.2168 6.26233183406948
50.3 32.3981 5.69193288786858
50.35 27.3571 5.23040151422431
50.4 48.0676 6.93308012358144
50.45 26.5145 5.14922324239297
50.5 35.1156 5.92584171236458
50.55 34.3133 5.85775554286793
50.6 38.7004 6.22096455543672
50.65 36.3927 6.0326362396551
50.7 37.8988 6.15620012670154
50.75 34.1165 5.84093314462681
50.8 36.6776 6.05620343119351
50.85 20.9379 4.5757950128912
50.9 31.0603 5.57317683193347
50.95 30.6636 5.53747234756075
51 34.8075 5.89978813178914
51.05 35.2659 5.93850991411145
51.1 39.2092 6.26172500194635
51.15 29.6438 5.44461201556181
51.2 46.4067 6.81224632555224
51.25 34.9846 5.9147781023467
51.3 28.5279 5.34115156122722
51.35 31.5353 5.61562997356485
51.4 36.8404 6.06962931322828
51.45 43.7637 6.61541381925575
51.5 47.0029 6.85586610137625
51.55 27.7008 5.2631549473676
51.6 31.9783 5.65493589707257
51.65 36.6541 6.05426296092266
51.7 38.2949 6.18828732364618
51.75 26.6975 5.16696235713015
51.8 36.6174 6.05123127966532
51.85 39.9145 6.31779233593508
51.9 32.4187 5.69374217891889
51.95 31.3784 5.60164261623321
52 39.8243 6.31064972883141
52.05 26.6894 5.16617847155903
52.1 29.6065 5.44118553258387
52.15 37.836 6.15109746305487
52.2 27.6758 5.26077940993538
52.25 27.6075 5.2542839664411
52.3 31.0522 5.57245008950282
52.35 40.1136 6.33352982151343
52.4 34.8713 5.90519263021961
52.45 26.5819 5.15576376495277
52.5 30.5678 5.52881542466377
52.55 30.6045 5.5321334040314
52.6 25.0134 5.00133982048811
52.65 34.6604 5.88730838329368
52.7 36.1657 6.01379248062319
52.75 32.0806 5.66397386999622
52.8 34.6946 5.89021222028545
52.85 35.4098 5.95061341375828
52.9 29.5094 5.43225551681804
52.95 25.0831 5.00830310584334
53 21.2101 4.6054424326008
53.05 32.87 5.73323643328967
53.1 33.3932 5.77868497151385
53.15 32.1565 5.67067015439974
53.2 36.9451 6.07824810286648
53.25 29.0111 5.38619531766162
53.3 33.6221 5.79845669122397
53.35 28.3306 5.32264971607187
53.4 26.2754 5.12595356982484
53.45 30.2799 5.50271751046699
53.5 28.5839 5.3463913062925
53.55 26.7327 5.17036749177464
53.6 25.6763 5.06717870219711
53.65 24.6621 4.96609504540539
53.7 22.5367 4.74728343371238
53.75 36.6427 6.05332140233773
53.8 32.288 5.68225307426552
53.85 34.0382 5.83422659827333
53.9 28.2444 5.31454607657136
53.95 45.5052 6.74575422024847
54 26.5973 5.15725702287563
54.05 35.1395 5.92785796051154
54.1 36.4222 6.03508077824978
54.15 33.84 5.8172158288996
54.2 39.2608 6.26584391762195
54.25 25.6917 5.068698057687
54.3 38.4453 6.20042740462301
54.35 41.3684 6.4318271121043
54.4 32.8489 5.73139599050702
54.45 30.9127 5.55991906415912
54.5 17.7951 4.21842387628365
54.55 30.5149 5.5240293264971
54.6 30.8413 5.55349439542348
54.65 36.2659 6.02211756776634
54.7 37.4733 6.1215439229005
54.75 27.2901 5.22399272587549
54.8 25.4278 5.04259853646907
54.85 31.0922 5.57603801995646
54.9 33.1259 5.75551040308329
54.95 25.5753 5.05720278414856
55 33.8071 5.8143873279994
55.05 31.0447 5.57177709532605
55.1 28.6293 5.35063547627756
55.15 34.2096 5.84889733197634
55.2 28.7767 5.36439185742429
55.25 30.3111 5.50555174346768
55.3 34.1279 5.84190893458636
55.35 22.0723 4.69811664393297
55.4 32.3227 5.6853056206329
55.45 27.3187 5.22672937887547
55.5 26.6508 5.16244128295906
55.55 30.7094 5.54160626533499
55.6 33.9447 5.82620802924166
55.65 38.0892 6.17164483748052
55.7 31.0691 5.57396627187499
55.75 30.7844 5.54836912975335
55.8 20.095 4.48274469493858
55.85 39.0051 6.24540631184233
55.9 38.8235 6.23085066423518
55.95 36.3211 6.0266989305921
56 31.0978 5.57654014600451
56.05 32.1917 5.67377299510652
56.1 33.5586 5.79297850850493
56.15 37.7483 6.14396451812671
56.2 35.4374 5.95293205067889
56.25 30.5939 5.53117528198122
56.3 30.444 5.5176081774624
56.35 34.1279 5.84190893458636
56.4 28.1789 5.30838016724499
56.45 29.8384 5.46245366113068
56.5 33.8738 5.82012027367133
56.55 33.6288 5.79903440238114
56.6 28.1772 5.30822004065393
56.65 26.8478 5.18148627326176
56.7 41.6741 6.45554800152551
56.75 34.8706 5.90513336005208
56.8 34.7819 5.8976181632927
56.85 20.6756 4.54704299517829
56.9 33.4084 5.78
56.95 37.83 6.15060972587271
57 40.1081 6.33309560957357
57.05 28.9264 5.37832687738482
57.1 24.2763 4.92709853767915
57.15 27.3354 5.22832669216452
57.2 33.405 5.77970587486941
57.25 31.2197 5.58745917211034
57.3 30.0479 5.48159648277762
57.35 32.9353 5.73892847141346
57.4 29.9539 5.47301562212278
57.45 37.6449 6.13554398566256
57.5 40.4288 6.35836456960436
57.55 38.097 6.17227672743211
57.6 32.721 5.72022726821234
57.65 41.4696 6.43968943350531
57.7 24.3259 4.93212935758988
57.75 33.9219 5.82425102480997
57.8 28.2423 5.31434850193323
57.85 26.0667 5.10555579736428
57.9 33.4522 5.7837876862831
57.95 29.7894 5.45796665435032
58 35.2334 5.93577290670726
58.05 32.6186 5.71126956113962
58.1 27.469 5.24108767337468
58.15 31.5788 5.6195017572735
58.2 33.1775 5.7599913194379
58.25 36.5115 6.04247465861463
58.3 29.0276 5.38772679337028
58.35 32.3164 5.6847515337084
58.4 22.7806 4.77290268075937
58.45 22.8232 4.77736328951442
58.5 43.3491 6.58400334143293
58.55 21.7028 4.65862640700024
58.6 26.6112 5.15860446244912
58.65 34.6359 5.88522726833892
58.7 27.8155 5.27404019704059
58.75 35.4755 5.95613129472479
58.8 29.4073 5.42284980430032
58.85 30.7699 5.54706228557062
58.9 30.3599 5.50998185114978
58.95 34.2424 5.85170060751573
59 29.7757 5.45671146387639
59.05 28.4216 5.3311912364874
59.1 33.8073 5.81440452669059
59.15 29.1029 5.39471037220721
59.2 41.9869 6.4797299326438
59.25 36.6039 6.05011570137299
59.3 40.5562 6.36837498895911
59.35 35.8112 5.98424598424898
59.4 37.7548 6.14449346976624
59.45 34.0503 5.83526349019477
59.5 27.0223 5.19829779831822
59.55 22.6693 4.76122883297999
59.6 28.5806 5.34608267799891
59.65 30.7391 5.54428534619206
59.7 36.9574 6.07925982336666
59.75 37.5086 6.12442650376343
59.8 29.5289 5.43405005497741
59.85 30.8732 5.55636571870499
59.9 29.5648 5.43735229684449
59.95 30.3999 5.5136104323755
60 34.24 5.85149553533112
60.05 30.1642 5.49219446123314
60.1 35.7533 5.97940632504599
60.15 33.9229 5.82433687212544
60.2 22.1549 4.70689919161224
60.25 29.1428 5.39840717249079
60.3 24.2963 4.92912771187763
60.35 35.0478 5.9201182420624
60.4 31.1855 5.58439790845889
60.45 24.8213 4.98209795166655
60.5 24.0012 4.8991019585226
60.55 21.722 4.66068664469089
60.6 36.4496 6.03735041222555
60.65 31.0684 5.57390347960924
60.7 27.1536 5.2109116284965
60.75 35.7438 5.97861187902342
60.8 31.4977 5.61228117613507
60.85 35.4255 5.95193245929421
60.9 37.1516 6.09521123505986
60.95 37.5106 6.12458978218133
61 22.5203 4.745555815708
61.05 30.0659 5.483238094411
61.1 33.8898 5.82149465343738
61.15 27.9715 5.28880893963849
61.2 26.2376 5.12226512394663
61.25 29.5348 5.43459290103684
61.3 27.5226 5.24619862376559
61.35 34.3228 5.8585663775364
61.4 36.0162 6.00134984815916
61.45 41.8521 6.46931990243178
61.5 27.6923 5.26234738496044
61.55 44.7228 6.68751074765492
61.6 34.704 5.89101010014412
61.65 24.3879 4.9384106755109
61.7 28.8028 5.36682401425648
61.75 34.8319 5.90185564038972
61.8 31.9677 5.65399858507234
61.85 40.7269 6.38176307927519
61.9 30.7378 5.54416810711941
61.95 29.9762 5.47505251116371
62 34.1608 5.84472411667138
62.05 32.7391 5.72180915445456
62.1 28.8445 5.37070758839094
62.15 34.6749 5.88853971711154
62.2 24.3593 4.93551415761317
62.25 32.2712 5.68077459507064
62.3 35.6898 5.97409407358137
62.35 34.3387 5.85992320768796
62.4 31.275 5.59240556469217
62.45 26.2131 5.11987304530103
62.5 31.1881 5.58463069504153
62.55 27.3456 5.22930205668022
62.6 33.729 5.80766734584549
62.65 15.1703 3.89490693085214
62.7 33.1497 5.75757761562968
62.75 36.4138 6.0343848070868
62.8 39.9282 6.31887648241363
62.85 33.0167 5.74601601111588
62.9 34.7475 5.89470101022944
62.95 34.756 5.89542195266802
63 38.6224 6.21469226913127
63.05 30.073 5.48388548385176
63.1 31.109 5.57754426248685
63.15 32.2361 5.67768438714235
63.2 30.2574 5.50067268613576
63.25 25.1663 5.01660243591218
63.3 20.0534 4.4781022766346
63.35 31.507 5.61310965508425
63.4 32.4217 5.69400561994805
63.45 33.311 5.77156824442023
63.5 38.7023 6.22111726300027
63.55 25.3026 5.030168983245
63.6 31.3165 5.59611472362746
63.65 42.537 6.5220395582977
63.7 28.599 5.3478032873321
63.75 34.5703 5.87965135020777
63.8 32.0585 5.66202260680757
63.85 40.7887 6.38660316600304
63.9 30.3573 5.50974591065686
63.95 21.267 4.61161576890356
64 39.6988 6.30069837398998
64.05 29.4747 5.42906069223765
64.1 41.7243 6.45943495980879
64.15 29.348 5.41737944028291
64.2 29.032 5.38813511337643
64.25 32.4251 5.69430417171405
64.3 31.3294 5.59726719033494
64.35 37.3869 6.11448280723726
64.4 52.6063 7.25302006063681
64.45 43.5261 6.59743131832382
64.5 54.5873 7.38832186629684
64.55 71.8198 8.47465633521502
64.6 95.7471 9.78504471119065
64.65 147.1718 12.1314384967324
64.7 143.1701 11.965370867633
64.75 146.5255 12.1047717863659
64.8 110.8411 10.5281099918266
64.85 61.2702 7.82752834552517
64.9 48.4399 6.95987787249173
64.95 44.6754 6.68396588860236
65 28.8759 5.37363005797757
65.05 43.3262 6.58226404818281
65.1 40.8427 6.3908293671479
65.15 31.0228 5.56981148693562
65.2 38.8475 6.23277626744294
65.25 28.8715 5.37322063570816
65.3 23.9282 4.89164593976302
65.35 31.8711 5.64544949494724
65.4 29.0861 5.39315306662068
65.45 30.0581 5.48252678972023
65.5 34.0982 5.83936640398597
65.55 33.9777 5.82903937197202
65.6 33.1103 5.75415502050475
65.65 33.6556 5.8013446717119
65.7 31.269 5.5918690971803
65.75 25.3012 5.03002982098516
65.8 33.5548 5.79265051595554
65.85 27.8991 5.2819598635355
65.9 28.574 5.34546536795441
65.95 35.8912 5.9909264725917
66 40.2616 6.34520291243708
66.05 30.2492 5.49992727224642
66.1 34.0659 5.83660003769318
66.15 24.1911 4.91844487617784
66.2 29.5415 5.43520928759878
66.25 32.3935 5.69152879286401
66.3 30.1299 5.48907095964335
66.35 31.6793 5.62843672790234
66.4 30.3959 5.51324768172082
66.45 31.5952 5.62096077196772
66.5 30.3447 5.50860236357645
66.55 33.2434 5.76570897635321
66.6 38.8516 6.23310516516447
66.65 30.2676 5.50159976734041
66.7 28.5017 5.33869834322937
66.75 19.0604 4.3658218012191
66.8 35.2528 5.93740684137444
66.85 26.0749 5.10635878097104
66.9 26.5897 5.1565201444385
66.95 18.4592 4.29641711196667
67 20.7575 4.55603994714708
67.05 22.3358 4.72607659692477
67.1 29.9516 5.47280549626971
67.15 22.3857 4.73135287206524
67.2 27.9839 5.28998109637454
67.25 30.2497 5.49997272720511
67.3 38.2852 6.18750353535253
67.35 34.2007 5.84813645531634
67.4 37.2847 6.10611988090637
67.45 36.0969 6.00806957349863
67.5 20.5105 4.52885195165397
67.55 27.8202 5.27448575692456
67.6 30.3019 5.50471615980334
67.65 29.7986 5.45880939399793
67.7 31.4794 5.610650586162
67.75 26.0345 5.10240139542157
67.8 30.0404 5.48091233281467
67.85 32.4864 5.6996842017782
67.9 33.2225 5.76389625166866
67.95 39.5497 6.28885522173949
68 29.7614 5.45540099351093
68.05 32.1448 5.66963843644372
68.1 34.205 5.84850408224189
68.15 31.8531 5.64385506546722
68.2 34.843 5.90279594768445
68.25 33.0112 5.74553739871215
68.3 39.3336 6.27165050046636
68.35 32.306 5.68383673234902
68.4 35.6245 5.96862630761886
68.45 33.0939 5.75272978680557
68.5 37.0905 6.09019704114735
68.55 34.9457 5.91148881416518
68.6 35.3693 5.94720942964009
68.65 30.0402 5.48089408764665
68.7 31.009 5.56857252803625
68.75 37.9271 6.15849819355336
68.8 45.2408 6.72612815816053
68.85 25.2565 5.02558454311536
68.9 29.8637 5.46476897956355
68.95 33.5099 5.78877361796089
69 23.4381 4.84129115009622
69.05 24.7011 4.97002012068362
69.1 33.0489 5.74881726966513
69.15 41.8592 6.46986862308656
69.2 31.302 5.59481903192588
69.25 24.955 4.99549797317545
69.3 36.8526 6.07063423375186
69.35 41.4621 6.43910708095463
69.4 24.7531 4.97524873750047
69.45 24.0327 4.90231577930268
69.5 24.1144 4.91064150595419
69.55 34.1912 5.84732417435531
69.6 31.6096 5.62224154586051
69.65 33.6265 5.79883609011326
69.7 36.2511 6.020888638731
69.75 25.0342 5.00341883115935
69.8 28.2581 5.31583483565846
69.85 27.0396 5.1999615383193
69.9 29.5746 5.43825339608224
69.95 28.9202 5.37775045906743
70 32.1023 5.66588916234689
70.05 37.6829 6.13863991450875
70.1 38.5431 6.20830894849797
70.15 35.2325 5.93569709469747
70.2 29.2141 5.4050069380159
70.25 33.049 5.74882596709972
70.3 26.9976 5.19592147746673
70.35 34.7301 5.8932249235881
70.4 32.7333 5.72130229930214
70.45 27.3366 5.22844145037505
70.5 37.0838 6.08964695199976
70.55 42.2821 6.50246876193958
70.6 32.4815 5.69925433719184
70.65 38.7101 6.22174412845787
70.7 25.3116 5.03106350586037
70.75 21.9016 4.67991452913405
70.8 29.577 5.43847405068738
70.85 29.4128 5.4233568940279
70.9 32.0864 5.66448585486803
70.95 26.6492 5.1622863151902
71 25.4033 5.04016864797201
71.05 36.5147 6.04273944498685
71.1 38.0788 6.17080221689206
71.15 37.3702 6.11311704451992
71.2 35.3704 5.94730190926945
71.25 27.0172 5.19780722997689
71.3 30.1131 5.48754043265287
71.35 27.5509 5.24889512183278
71.4 30.2825 5.5029537523043
71.45 38.3375 6.19172835321447
71.5 35.5068 5.95875825990617
71.55 26.1223 5.1109979456071
71.6 26.8028 5.17714206874797
71.65 29.7564 5.45494271280643
71.7 26.0009 5.09910776508989
71.75 39.2484 6.26485434786795
71.8 33.1188 5.75489356982386
71.85 31.6005 5.62143220185034
71.9 31.688 5.62920953598283
71.95 21.3137 4.6166762936121
72 27.0891 5.20471901258848
72.05 26.7844 5.17536472144718
72.1 24.1061 4.90979632978803
72.15 42.7356 6.53724712704056
72.2 38.9412 6.2402884548713
72.25 31.6194 5.62311301682618
72.3 28.5195 5.34036515605441
72.35 35.9262 5.99384684489018
72.4 37.1682 6.09657280773387
72.45 29.138 5.39796257860315
72.5 30.462 5.51923907798892
72.55 33.721 5.80697856031861
72.6 36.2425 6.02017441607799
72.65 42.0683 6.48600801726301
72.7 40.3335 6.35086608266935
72.75 28.4626 5.33503514515134
72.8 34.1511 5.84389424955654
72.85 25.2855 5.0284689518779
72.9 36.7955 6.06592944238556
72.95 26.8767 5.18427429829865
73 31.0377 5.57114889407921
73.05 33.8779 5.82047248941183
73.1 42.7294 6.53677290411714
73.15 39.1383 6.25606106108308
73.2 26.0051 5.09951958521585
73.25 29.264 5.40962105881734
73.3 33.9172 5.82384752547661
73.35 26.1984 5.11843726150863
73.4 36.5357 6.04447681772376
73.45 31.7784 5.63723336398273
73.5 25.5004 5.04979207492744
73.55 28.5828 5.34628843217423
73.6 34.0311 5.83361808828792
73.65 26.5168 5.1494465722056
73.7 28.6854 5.3558752786076
73.75 28.9308 5.37873591097388
73.8 24.7864 4.97859417908309
73.85 28.2544 5.31548680743354
73.9 30.7223 5.54277006558995
73.95 35.0867 5.92340273829156
74 33.3259 5.77285891045329
74.05 36.1568 6.01305246942017
74.1 25.9354 5.09268102280125
74.15 31.6347 5.62447330867522
74.2 44.2284 6.65044359422738
74.25 38.3471 6.19250353249798
74.3 28.5777 5.34581144448623
74.35 29.0792 5.39251332868079
74.4 34.6723 5.88831894516593
74.45 22.0468 4.69540200621842
74.5 32.9033 5.73613981698494
74.55 26.4591 5.14384097732424
74.6 28.8698 5.373062441476
74.65 33.2409 5.76549217326674
74.7 26.8615 5.18280811915703
74.75 23.2069 4.81735404553163
74.8 33.8808 5.82072160474971
74.85 32.4833 5.69941225039916
74.9 25.8164 5.08098415663737
74.95 29.7948 5.45846132165467
75 29.8402 5.46261841976904
75.05 37.1528 6.09530967219878
75.1 42.6646 6.53181444929355
75.15 24.5313 4.95290823658182
75.2 36.9823 6.08130742521705
75.25 38.567 6.21023348997443
75.3 34.8385 5.90241476007913
75.35 27.7497 5.26779840160954
75.4 29.4477 5.42657350452383
75.45 28.7616 5.3629842438702
75.5 28.8569 5.37186187462038
75.55 36.416 6.03456709300676
75.6 32.216 5.67591402330937
75.65 29.3742 5.41979704417057
75.7 31.6498 5.62581549644138
75.75 38.3506 6.192786125808
75.8 27.9466 5.28645438834007
75.85 35.2522 5.93735631405089
75.9 31.7027 5.63051507412954
75.95 30.6807 5.53901615812772
76 36.9304 6.07703875255046
76.05 30.5761 5.5295659865852
76.1 40.0557 6.32895726008637
76.15 25.7037 5.06988165542353
76.2 27.9233 5.28425018332781
76.25 22.5955 4.75347241498255
76.3 24.2763 4.92709853767915
76.35 23.7351 4.87186822481889
76.4 28.6926 5.3565473954778
76.45 31.0425 5.5715796682808
76.5 36.7097 6.05885302677
76.55 21.498 4.63659357718573
76.6 24.6282 4.96268072718768
76.65 38.8337 6.23166911830209
76.7 29.7593 5.45520852030424
76.75 34.5999 5.88216796767994
76.8 25.5487 5.05457218763369
76.85 38.3758 6.19482041709039
76.9 27.4042 5.23490210032623
76.95 25.4069 5.04052576622717
77 28.0915 5.30014150754487
77.05 25.7078 5.07028598798924
77.1 22.9585 4.79150289575202
77.15 29.2498 5.40830842315784
77.2 33.7749 5.81161767496796
77.25 28.5813 5.34614814609547
77.3 34.3145 5.85785797028231
77.35 33.5933 5.79597273975646
77.4 29.742 5.45362264921217
77.45 30.2486 5.49987272580012
77.5 37.5245 6.12572444695319
77.55 46.6075 6.82696858056341
77.6 34.7187 5.89225763184198
77.65 22.2203 4.71384132104593
77.7 35.2264 5.93518323221786
77.75 35.725 5.97703940090744
77.8 31.9111 5.64899106035759
77.85 33.9423 5.82600205973187
77.9 30.72 5.54256258422041
77.95 32.1548 5.67052025831846
78 14.7 3.83405790253616
78.05 17.0275 4.12643914289306
78.1 23.7139 4.86969198204568
78.15 32.0725 5.66325877918359
78.2 30.5846 5.53033452876044
78.25 30.6304 5.53447377805695
78.3 37.6771 6.13816747897937
78.35 37.2759 6.10539924984435
78.4 21.4301 4.62926560050296
78.45 39.611 6.29372703570786
78.5 30.5158 5.52411078817216
78.55 35.0383 5.91931583884489
78.6 28.5973 5.34764434120296
78.65 25.8054 5.07990157384963
78.7 26.6825 5.16551062335564
78.75 37.9297 6.15870928036062
78.8 30.0217 5.47920614687931
78.85 35.2462 5.9368510171639
78.9 26.3993 5.13802491235689
78.95 23.5532 4.85316391645697
79 35.4603 5.95485516196658
79.05 25.733 5.07277044621576
79.1 29.5214 5.43335991813537
79.15 32.4563 5.69704309269291
79.2 33.106 5.75378136532837
79.25 31.5452 5.61651137272952
79.3 37.0217 6.08454599785391
79.35 38.5571 6.20943636733641
79.4 31.9384 5.65140690447963
79.45 33.6301 5.79914648892404
79.5 34.0742 5.83731102477845
79.55 30.9355 5.56196907578602
79.6 25.9518 5.09429092219908
79.65 35.2429 5.93657308554354
79.7 29.6179 5.44223299758472
79.75 27.9188 5.28382437255441
79.8 25.7615 5.07557878472988
79.85 26.5696 5.1545707871752
79.9 36.9713 6.08040294717381
79.95 24.8874 4.9887272926068
80 29.8629 5.46469578293248
80.05 25.7065 5.07015778847168
80.1 29.4916 5.43061690786599
80.15 33.0995 5.75321649166794
80.2 31.2647 5.59148459713518
80.25 32.6057 5.71014010335999
80.3 34.1919 5.84738403048748
80.35 27.3403 5.22879527233568
80.4 29.4114 5.42322782114121
80.45 22.2075 4.7124834217215
80.5 40.1449 6.33600031565656
80.55 32.7588 5.72353037905802
80.6 27.5808 5.25174256794828
80.65 43.4474 6.59146417725227
80.7 36.0074 6.00061663498011
80.75 29.2687 5.41005545258087
80.8 34.636 5.88523576418141
80.85 35.2918 5.94069019559175
80.9 26.2795 5.12635347981389
80.95 26.4856 5.14641622879456
81 26.9395 5.19032754265085
81.05 40.8687 6.3928632082972
81.1 33.6419 5.80016379079074
81.15 22.2113 4.71288658891767
81.2 28.7859 5.36524929523317
81.25 29.9064 5.46867442804927
81.3 34.6497 5.88639957868985
81.35 30.325 5.50681396090335
81.4 21.5729 4.64466360461121
81.45 34.5984 5.88204046228858
81.5 27.707 5.26374391474357
81.55 30.8191 5.55149529406267
81.6 44.5116 6.67170143216856
81.65 31.6855 5.62898747555899
81.7 42.1954 6.49579864219943
81.75 60.6146 7.78553787480351
81.8 89.7925 9.47589045947662
81.85 137.6895 11.7341169245922
81.9 194.6379 13.9512687595071
81.95 260.161 16.1295071220419
82 254.0335 15.9384284043315
82.05 204.1072 14.286609114832
82.1 118.8619 10.9023804740066
82.15 77.7442 8.81726715031364
82.2 70.9091 8.42075412299872
82.25 53.2715 7.29873276672054
82.3 48.6772 6.97690475784212
82.35 45.9897 6.78157061454056
82.4 29.5694 5.43777528038811
82.45 34.1888 5.84711894867891
82.5 44.4062 6.6637977160175
82.55 30.0597 5.4826727058981
82.6 27.5031 5.2443398059241
82.65 25.4779 5.04756376878985
82.7 32.6956 5.71800664567645
82.75 33.2279 5.76436466577194
82.8 38.9131 6.23803655006926
82.85 31.9996 5.65681889404283
82.9 35.6172 5.96801474529009
82.95 22.0346 4.69410268315468
83 32.3969 5.69182747454629
83.05 33.8844 5.82103083654433
83.1 33.3036 5.7709271352184
83.15 26.2334 5.12185513266434
83.2 30.1081 5.48708483623135
83.25 32.4281 5.69456758674441
83.3 24.1327 4.91250445292419
83.35 31.766 5.63613342638373
83.4 28.7669 5.36347834898212
83.45 34.473 5.87137121974075
83.5 40.326 6.35027558457111
83.55 26.8521 5.1819011955073
83.6 40.6522 6.37590777850496
83.65 29.4825 5.42977900102757
83.7 44.4967 6.67058468202001
83.75 25.3902 5.03886892070036
83.8 22.03 4.69361268108053
83.85 27.5828 5.25193297748553
83.9 26.5596 5.15360068301765
83.95 25.2766 5.0275839127756
84 34.0983 5.8393749665525
84.05 26.9567 5.19198420644747
84.1 20.3862 4.5151079721309
84.15 37.6622 6.13695364166946
84.2 37.0831 6.08958947713226
84.25 27.5837 5.25201865952512
84.3 32.5364 5.70406872328867
84.35 30.0902 5.48545349082462
84.4 30.5687 5.5288968158214
84.45 32.9979 5.74437986209129
84.5 32.7026 5.71861871434003
84.55 42.7132 6.53553364309296
84.6 33.7599 5.81032701317232
84.65 30.1768 5.49334142394226
84.7 20.3154 4.50726080896147
84.75 28.6281 5.35052333888938
84.8 26.0399 5.1029305305873
84.85 33.3453 5.77453894263429
84.9 32.7773 5.72514628634064
84.95 33.1086 5.75400729926544
85 20.5379 4.53187599124248
85.05 28.5753 5.34558696496465
85.1 27.8534 5.27763204477159
85.15 28.2325 5.31342638981665
85.2 26.573 5.15490058100057
85.25 25.9598 5.0950760543882
85.3 33.2355 5.7650238507746
85.35 32.4848 5.69954384139643
85.4 18.2391 4.27072593360895
85.45 31.7226 5.6322819531696
85.5 33.3978 5.77908297223703
85.55 40.9085 6.39597529701296
85.6 29.5176 5.43301021534103
85.65 24.173 4.91660451938124
85.7 29.7253 5.4520913418614
85.75 35.3358 5.9443923154516
85.8 33.8175 5.81528159249404
85.85 26.8919 5.18574006290327
85.9 18.4857 4.29949997092685
85.95 26.4386 5.14184791684857
86 40.3429 6.35160609609884
86.05 28.8887 5.37482092724958
86.1 37.9128 6.1573370867608
86.15 27.7644 5.26919348667327
86.2 26.2653 5.12496829258484
86.25 23.7301 4.87135504762279
86.3 30.9844 5.56636326518491
86.35 33.5106 5.78883407950167
86.4 38.3874 6.19575661239207
86.45 25.5161 5.05134635518096
86.5 31.684 5.62885423509972
86.55 31.9667 5.65391015139081
86.6 33.8411 5.81731037507885
86.65 35.2442 5.9366825753109
86.7 27.1768 5.21313725121447
86.75 23.1391 4.81031184020329
86.8 31.8265 5.64149802800639
86.85 32.4849 5.69955261402156
86.9 20.1206 4.48559917959686
86.95 21.9158 4.68143140502988
87 27.2503 5.22018198916475
87.05 29.6437 5.44460283216324
87.1 27.9675 5.28843076914126
87.15 33.5611 5.79319428294961
87.2 36.5537 6.0459655969911
87.25 43.6533 6.60706440107859
87.3 37.1998 6.09916387712283
87.35 31.0698 5.57402906343338
87.4 24.9694 4.99693906306651
87.45 26.1157 5.11035223834913
87.5 33.8027 5.81400894392157
87.55 33.9555 5.82713480194169
87.6 39.3619 6.27390627918524
87.65 43.4963 6.59517247689551
87.7 32.0786 5.66379731275758
87.75 32.7088 5.71916077759666
87.8 19.1188 4.37250500285591
87.85 27.0428 5.20026922379986
87.9 22.5853 4.75239939399037
87.95 37.2368 6.10219632591414
88 31.3493 5.59904456135152
88.05 26.5622 5.15385292766489
88.1 28.1449 5.30517671713205
88.15 34.8607 5.9042950468282
88.2 18.2041 4.2666263018924
88.25 22.1264 4.70387074652355
88.3 22.4529 4.73844911337032
88.35 28.4671 5.3354568689101
88.4 30.8991 5.55869589022461
88.45 35.3744 5.94763818670907
88.5 32.1532 5.670379176034
88.55 34.7205 5.89241037267433
88.6 28.3794 5.32723192662005
88.65 43.218 6.57403985384938
88.7 35.0098 5.91690797629978
88.75 29.7989 5.4588368724482
88.8 28.5269 5.34105794763547
88.85 29.15 5.39907399467724
88.9 32.7601 5.72364394420198
88.95 29.8263 5.46134598794107
89 32.3781 5.69017574421037
89.05 23.4663 4.84420272077872
89.1 26.1254 5.11130120419449
89.15 28.7908 5.36570591814348
89.2 32.7226 5.72036712108585
89.25 37.838 6.15126003352159
89.3 36.0746 6.00621344942052
89.35 32.5603 5.70616333450069
89.4 35.6182 5.96809852465591
89.45 24.947 4.99469718801851
89.5 27.7455 5.26739973801116
89.55 33.1479 5.75742129776865
89.6 25.5686 5.05654031923014
89.65 32.5261 5.70316578752538
89.7 23.5601 4.85387474086425
89.75 32.9739 5.74229048377039
89.8 28.6079 5.34863533997224
89.85 27.0227 5.19833627230867
89.9 28.2734 5.31727373754634
89.95 30.0552 5.48226230674892
90 31.0868 5.57555378415454
90.05 34.7105 5.89156176238525
90.1 27.7266 5.26560537830172
90.15 27.2002 5.21538109825159
90.2 32.0719 5.66320580590181
90.25 32.6457 5.71364157083729
90.3 24.5172 4.95148462584708
90.35 26.4209 5.14012645758837
90.4 32.9744 5.74233402023951
90.45 32.9103 5.73674995097398
90.5 32.1484 5.6699559081178
90.55 36.5445 6.04520471117397
90.6 29.1974 5.40346185329368
90.65 34.3247 5.85872853100398
90.7 25.3025 5.03015904321126
90.75 35.0903 5.9237066098854
90.8 21.2491 4.60967460890679
90.85 34.6258 5.88436912506345
90.9 33.3813 5.77765523374318
90.95 29.0649 5.39118725328661
91 23.8316 4.8817619769915
91.05 33.0797 5.75149545770489
91.1 21.7368 4.66227412321498
91.15 33.3115 5.7716115600411
91.2 34.8539 5.90371916676259
91.25 34.3252 5.85877120222321
91.3 31.5315 5.61529162199079
91.35 28.2996 5.31973683559629
91.4 22.5308 4.74666198501642
91.45 28.3899 5.32821733790956
91.5 26.12 5.11077293567226
91.55 31.8768 5.64595430374706
91.6 35.757 5.97971571230606
91.65 30.9978 5.56756679349247
91.7 31.5693 5.61865642302499
91.75 36.4004 6.03327440118548
91.8 25.299 5.02981112965487
91.85 29.5212 5.43334151328628
91.9 27.9936 5.29089784441166
91.95 19.9982 4.47193470435336
92 39.5915 6.29217768344156
92.05 37.6918 6.13936478798906
92.1 46.804 6.84134489702135
92.15 31.5593 5.61776646008002
92.2 29.0668 5.39136346391152
92.25 25.9438 5.09350566898673
92.3 22.9548 4.791116780042
92.35 28.1215 5.30297086546777
92.4 24.8385 4.98382383316264
92.45 30.5696 5.52897820578088
92.5 29.5751 5.43829936652994
92.55 26.0049 5.09949997548779
92.6 34.779 5.89737229620108
92.65 30.6093 5.53256721603995
92.7 28.4161 5.33067537934922
92.75 23.6228 4.86032920695708
92.8 32.8559 5.73200662944488
92.85 18.7353 4.32842927630798
92.9 24.2247 4.9218594047372
92.95 24.2396 4.9233728276457
93 33.7933 5.81320049542419
93.05 28.4672 5.33546624017058
93.1 25.7424 5.07369687703158
93.15 39.8344 6.31144991265874
93.2 41.7251 6.45949688443303
93.25 33.8838 5.82097929905269
93.3 20.3238 4.50819254247198
93.35 39.0933 6.25246351448771
93.4 39.6545 6.29718190939407
93.45 31.4443 5.60752173424232
93.5 22.1367 4.70496546214741
93.55 35.4016 5.94992436926723
93.6 32.367 5.68920029529634
93.65 31.6115 5.62241051507269
93.7 23.2938 4.82636509186779
93.75 36.6327 6.05249535315807
93.8 26.9603 5.19233088313909
93.85 33.4111 5.78023355929499
93.9 32.1916 5.67376418262162
93.95 23.6816 4.86637442044896
94 22.3576 4.72838238724408
94.05 14.2573 3.77588400245558
94.1 36.2526 6.02101320377227
94.15 23.5148 4.84920612059335
94.2 27.3396 5.2287283348822
94.25 21.6574 4.65375117512744
94.3 11.1114 3.333376666385
94.35 28.2 5.3103672189407
94.4 21.7662 4.66542602556294
94.45 22.9934 4.79514337637573
94.5 35.3522 5.94577160678074
94.55 34.1056 5.84
94.6 27.5891 5.25253272241116
94.65 30.4366 5.51693755628972
94.7 26.55 5.1526692111953
94.75 24.0293 4.90196899214999
94.8 34.61 5.88302643203309
94.85 34.6214 5.8839952413305
94.9 39.0814 6.25151181715271
94.95 25.1538 5.01535641804249
95 25.0339 5.0033888515685
95.05 28.9421 5.37978624110661
95.1 35.1291 5.92698068159497
95.15 47.416 6.88592767896962
95.2 37.6808 6.13846886446449
95.25 36.8447 6.06998352551306
95.3 32.1807 5.6728035396971
95.35 23.962 4.89509959040672
95.4 29.0775 5.39235570043372
95.45 33.0651 5.75022608251189
95.5 29.8733 5.46564726267621
95.55 26.3085 5.1291812212087
95.6 32.9095 5.73668022465955
95.65 28.0736 5.29845260429873
95.7 28.6124 5.34905599148111
95.75 25.2239 5.02234009202881
95.8 25.3985 5.03969245093389
95.85 26.5845 5.15601590377687
95.9 27.8283 5.27525354840883
95.95 27.9558 5.2873244651714
96 27.1601 5.21153528242878
96.05 38.2449 6.18424611411933
96.1 30.4586 5.51893105592016
96.15 32.6296 5.71223248826586
96.2 26.6025 5.15776114220114
96.25 25.663 5.06586616483302
96.3 32.515 5.70219256076117
96.35 29.7612 5.45538266302191
96.4 23.1198 4.80830531476528
96.45 28.7171 5.35883382836229
96.5 29.3429 5.41690871254076
96.55 37.4551 6.12005718927528
96.6 30.5773 5.52967449313249
96.65 23.3588 4.83309424696022
96.7 23.6464 4.86275641997417
96.75 22.1826 4.7098407616394
96.8 37.0544 6.08723254032569
96.85 17.2752 4.15634454779678
96.9 34.6712 5.88822553915864
96.95 23.9084 4.88962166225568
97 31.8038 5.63948579216226
97.05 36.9129 6.07559873592718
97.1 34.7624 5.89596472173978
97.15 30.0266 5.47965327370263
97.2 23.2935 4.82633401247779
97.25 35.8004 5.98334354688079
97.3 34.6959 5.89032257181218
97.35 25.1129 5.01127728229041
97.4 34.7971 5.89890667835998
97.45 25.3042 5.03032802111353
97.5 31.5845 5.62000889679011
97.55 31.759 5.63551239906364
97.6 31.0632 5.57343700063076
97.65 27.5842 5.25206626005423
97.7 29.4484 5.42663800156229
97.75 32.3644 5.68897178759044
97.8 31.3061 5.59518543034992
97.85 30.7992 5.5497026947396
97.9 34.3891 5.86422202853882
97.95 35.5614 5.96333799142728
98 34.8409 5.90261806319874
98.05 33.5251 5.79008635514186
98.1 25.1117 5.01115755090578
98.15 31.9201 5.64978760662735
98.2 40.1169 6.33379033438904
98.25 40.5001 6.36396888741609
98.3 52.5817 7.25132401703303
98.35 55.6758 7.46162180762333
98.4 66.8974 8.17908307819403
98.45 105.0702 10.2503756028743
98.5 140.0578 11.834601809947
98.55 175.9273 13.2637588940692
98.6 124.9815 11.1795125117332
98.65 78.9094 8.88309630703169
98.7 67.3591 8.20725898214501
98.75 60.397 7.77155068181376
98.8 44.582 6.67697536314161
98.85 50.7703 7.1253280626228
98.9 30.3798 5.51178736890312
98.95 31.6021 5.6215745125365
99 34.9539 5.91218233818951
99.05 39.018 6.24643898553408
99.1 34.8669 5.90482006499775
99.15 41.057 6.40757364374378
99.2 28.0278 5.29412882351761
99.25 31.3766 5.60148194677087
99.3 26.3333 5.13159819159684
99.35 26.3873 5.13685701572469
99.4 21.0773 4.59100206926549
99.45 33.1438 5.75706522457406
99.5 27.754 5.2682065259441
99.55 29.6985 5.44963301516717
99.6 22.0912 4.7001276578408
99.65 27.2464 5.21980842560338
99.7 25.2434 5.02428104309462
99.75 30.7856 5.5484772685846
99.8 22.4339 4.73644381366443
99.85 29.7073 5.45044034918281
99.9 37.9878 6.16342437286287
99.95 21.5245 4.63945039848472
100 32.5901 5.70877394893159
100.05 26.4881 5.14665911052986
100.1 39.8879 6.31568681934119
100.15 18.799 4.33578135980125
100.2 38.7486 6.22483734727262
100.25 31.1408 5.58039425130519
100.3 30.4901 5.52178413196315
100.35 34.3874 5.86407707998454
100.4 37.1859 6.09802427020424
100.45 30.8524 5.5544936762949
100.5 19.4891 4.41464607867947
100.55 29.7992 5.45886435076015
100.6 29.5376 5.43485050392373
100.65 38.5564 6.20938000125616
100.7 26.0956 5.10838526346633
100.75 30.077 5.4842501766422
100.8 33.9837 5.82955401381615
100.85 28.92 5.3777318638995
100.9 30.2278 5.4979814477679
100.95 20.721 4.55203251306491
101 44.2365 6.65105254828136
101.05 31.1806 5.58395916890516
101.1 25.4367 5.0434809407789
101.15 35.9524 5.99603202126206
101.2 24.3647 4.93606118276506
101.25 37.0395 6.08600854419381
101.3 21.6718 4.65529805705285
101.35 24.2423 4.92364702227932
101.4 25.386 5.03845214326781
101.45 21.7505 4.66374313186307
101.5 27.2492 5.22007662779006
101.55 38.5018 6.20498186943362
101.6 36.5708 6.04737959780929
101.65 37.2841 6.106070749672
101.7 25.2846 5.02837946062148
101.75 24.9797 4.99796958774261
101.8 25.1967 5.01963146057557
101.85 34.3481 5.86072521109803
101.9 33.5737 5.79428166384756
101.95 32.4348 5.69515583632266
102 34.7724 5.89681269839903
102.05 30.7786 5.5478464290209
102.1 32.737 5.72162564311927
102.15 32.5963 5.70931694688603
102.2 32.7667 5.72422047094624
102.25 30.983 5.56623750840727
102.3 31.636 5.62458887386447
102.35 33.2615 5.76727838759323
102.4 32.4789 5.69902623261202
102.45 28.5972 5.34763499128353
102.5 23.7894 4.87743785198746
102.55 28.892 5.3751279054549
102.6 35.679 5.97319010244944
102.65 26.7693 5.17390568139776
102.7 33.8185 5.8153675722176
102.75 38.3506 6.192786125808
102.8 27.3771 5.23231306402818
102.85 30.0602 5.48271830390729
102.9 31.7875 5.63804043972726
102.95 33.0824 5.75173017447794
103 31.8736 5.64567090787269
103.05 21.8845 4.67808721594628
103.1 27.4534 5.23959922131455
103.15 31.5434 5.61635112862435
103.2 32.2463 5.6785825696207
103.25 32.3499 5.68769724932683
103.3 18.6494 4.31849510825241
103.35 20.5561 4.53388354504171
103.4 32.3493 5.68764450365879
103.45 26.0413 5.10306770482227
103.5 23.9911 4.89807104889262
103.55 34.7135 5.89181635830582
103.6 29.2608 5.40932528140063
103.65 34.1333 5.84237109399942
103.7 38.7488 6.22485341192867
103.75 35.9899 5.99915827429149
103.8 30.1687 5.49260411826667
103.85 32.7026 5.71861871434003
103.9 39.3515 6.27307739470828
103.95 48.0144 6.92924238282945
104 37.6419 6.13529950369173
104.05 15.9377 3.99220490456089
104.1 25.586 5.05826057059144
104.15 33.564 5.79344457123739
104.2 32.0031 5.65712824673438
104.25 20.575 4.53596737201669
104.3 20.9624 4.57847136061808
104.35 34.4827 5.87219720377305
104.4 22.4969 4.74308971030488
104.45 19.6457 4.43234700807597
104.5 20.6385 4.54296158909582
104.55 22.1473 4.70609179680975
104.6 29.5891 5.43958638133452
104.65 26.4528 5.14322855801684
104.7 31.227 5.58811238254923
104.75 25.4134 5.0411704990012
104.8 29.553 5.43626710160566
104.85 33.5917 5.79583471123875
104.9 35.6404 5.96995812380623
104.95 38.1513 6.17667386220124
105 17.4229 4.17407474777345
105.05 26.3802 5.13616588517155
105.1 30.2428 5.49934541559266
105.15 22.5184 4.74535562418666
105.2 34.3408 5.86010238818402
105.25 33.9516 5.82680015102629
105.3 32.682 5.71681729636342
105.35 25.4462 5.04442266270383
105.4 22.1952 4.71117819658735
105.45 32.4641 5.69772761721724
105.5 27.3729 5.23191169650253
105.55 19.501 4.41599365941574
105.6 30.3324 5.50748581477974
105.65 29.5065 5.43198858614412
105.7 24.1368 4.91292173762213
105.75 33.5259 5.79015543832806
105.8 32.6632 5.71517278828908
105.85 36.7617 6.06314274943284
105.9 37.1938 6.09867198658856
105.95 25.1088 5.01086818824842
106 35.4103 5.95065542608543
106.05 33.8242 5.81585763237031
106.1 24.1971 4.91905478725334
106.15 28.8274 5.36911538337555
106.2 38.1589 6.17728904941318
106.25 33.5459 5.7918822501843
106.3 27.7102 5.26404787212275
106.35 29.4368 5.42556909457432
106.4 23.6995 4.86821322458251
106.45 27.606 5.25414122383478
106.5 28.4322 5.33218529310451
106.55 32.9829 5.74307408971885
106.6 29.5384 5.43492410250594
106.65 35.5387 5.96143439115118
106.7 28.4787 5.33654382536113
106.75 32.4815 5.69925433719184
106.8 24.8706 4.9870432121649
106.85 19.2335 4.38560144107966
106.9 39.6625 6.29781708213251
106.95 29.3213 5.41491458843074
107 19.7891 4.44849412723002
107.05 28.7354 5.36054101747202
107.1 26.2722 5.12564142327573
107.15 27.1405 5.20965449910068
107.2 29.0902 5.39353316481877
107.25 26.0423 5.10316568416116
107.3 26.2778 5.12618766726307
107.35 29.0888 5.39340337820193
107.4 23.5974 4.85771551246056
107.45 38.2277 6.1828553274357
107.5 25.2132 5.02127473854996
107.55 32.4266 5.69443588075237
107.6 27.7157 5.26457025786531
107.65 25.45 5.04479930225177
107.7 39.1217 6.25473420698274
107.75 25.6466 5.06424722935206
107.8 31.588 5.62032027557149
107.85 18.2417 4.27103032066034
107.9 31.6963 5.6299467137798
107.95 24.7599 4.97593207349136
108 21.5108 4.63797369548384
108.05 28.2925 5.31906946749147
108.1 20.9918 4.5816809142497
108.15 26.6509 5.16245096829016
108.2 28.9761 5.38294529045206
108.25 36.9865 6.08165273589343
108.3 30.554 5.52756727684069
108.35 32.425 5.69429539100317
108.4 23.23 4.81975103091436
108.45 30.4698 5.51994565190637
108.5 27.7777 5.27045538829426
108.55 25.3884 5.03869030602199
108.6 29.2568 5.4089555368851
108.65 44.1959 6.64799969915763
108.7 28.1159 5.30244283326091
108.75 26.9375 5.19013487300667
108.8 26.3677 5.13494887997923
108.85 35.1585 5.92946034643963
108.9 34.549 5.87783973922393
108.95 32.5542 5.70562879970297
109 30.4306 5.51639374954326
109.05 29.6172 5.44216868536799
109.1 41.2361 6.42153408462495
109.15 26.785 5.17542268805167
109.2 28.785 5.36516542149448
109.25 27.7244 5.26539647130204
109.3 28.5075 5.33924151916731
109.35 26.3159 5.12990253318716
109.4 28.7932 5.36592955600425
109.45 31.5751 5.61917253694883
109.5 20.1884 4.49315034246574
109.55 34.6361 5.88524426001164
109.6 23.0819 4.80436260080357
109.65 36.4489 6.03729243949637
109.7 26.3469 5.13292314378464
109.75 29.9928 5.4765682685419
109.8 27.3955 5.23407107326601
109.85 27.3207 5.2269206996089
109.9 30.6427 5.53558488328018
109.95 25.844 5.08369944036821
110 32.7367 5.72159942673375
110.05 27.2068 5.21601380366272
110.1 34.2568 5.85293088973379
110.15 30.4998 5.52266240141474
110.2 40.1329 6.33505327522981
110.25 35.3972 5.94955460517844
110.3 29.5647 5.43734310118462
110.35 25.3247 5.03236524906529
110.4 33.8593 5.81887446161197
110.45 24.3176 4.93128786423993
110.5 32.6181 5.71122578786726
110.55 32.6052 5.71009632142926
110.6 29.3357 5.41624408608032
110.65 23.0304 4.79899989581163
110.7 26.5956 5.15709220394594
110.75 31.5991 5.62130767704455
110.8 37.2452 6.10288456387633
110.85 29.9987 5.47710690054521
110.9 31.9794 5.65503315640147
110.95 31.9909 5.65604985833753
111 30.5229 5.52475338816132
111.05 25.705 5.07000986192335
111.1 32.3494 5.68765329463743
111.15 36.5235 6.04346754769147
111.2 34.3702 5.86261034011301
111.25 38.8492 6.23291264177511
111.3 34.7199 5.89235945950347
111.35 25.0712 5.00711493776606
111.4 31.2118 5.58675218709404
111.45 21.3679 4.6225425903933
111.5 36.5971 6.04955370254699
111.55 21.9348 4.68346025925277
111.6 21.879 4.67749933190802
111.65 28.2208 5.31232529124488
111.7 38.1389 6.1756700041372
111.75 40.358 6.35279466061984
111.8 27.8999 5.28203559245865
111.85 25.6966 5.06918139347962
111.9 34.5748 5.88003401350707
111.95 25.4319 5.04300505651144
112 26.132 5.11194679158537
112.05 37.2597 6.10407241110392
112.1 38.269 6.18619430668
112.15 31.7621 5.63578743389067
112.2 32.4425 5.6958318093146
112.25 23.3376 4.83090053716696
112.3 30.2204 5.49730843231485
112.35 26.9403 5.19040460850597
112.4 51.0823 7.14718825832928
112.45 22.7681 4.77159302539519
112.5 23.1995 4.81658592781235
112.55 38.6487 6.21680786256098
112.6 38.9082 6.23764378591788
112.65 32.1542 5.67046735287313
112.7 38.3343 6.19146993855256
112.75 29.503 5.4316664109645
112.8 22.4385 4.73692938516081
112.85 33.1307 5.75592737966698
112.9 32.7779 5.72519868650862
112.95 26.2154 5.12009765531869
113 29.489 5.43037751910491
113.05 32.293 5.68269302355846
113.1 35.0495 5.92026181853472
113.15 28.5349 5.34180681043409
113.2 32.5121 5.70193826694046
113.25 30.0063 5.47780065354701
113.3 27.0924 5.2050360229301
113.35 20.9648 4.57873344932854
113.4 25.8692 5.08617734649511
113.45 42.423 6.51329409745944
113.5 24.18 4.9173163412577
113.55 26.1144 5.11022504396822
113.6 36.8168 6.06768489623514
113.65 26.8806 5.18465042215963
113.7 27.934 5.28526252895729
113.75 22.5404 4.74767311427398
113.8 23.8665 4.8853351983257
113.85 35.2897 5.94051344582268
113.9 34.3286 5.85906135827233
113.95 25.77 5.07641605859882
114 39.0861 6.25188771492259
114.05 22.6829 4.76265682156504
114.1 29.5767 5.43844646935133
114.15 31.5716 5.61886109456356
114.2 32.0833 5.66421221353861
114.25 31.8068 5.63975176758694
114.3 27.611 5.25461701744285
114.35 32.1388 5.66910927747914
114.4 34.7947 5.89870324732479
114.45 31.1168 5.5782434511233
114.5 25.6644 5.06600434267481
114.55 31.4533 5.60832417037389
114.6 30.7991 5.54969368524065
114.65 35.6384 5.96979061609367
114.7 38.6374 6.21589896957793
114.75 31.127 5.579157642512
114.8 37.0925 6.0903612372338
114.85 25.61 5.060632371552
114.9 32.1896 5.6735879300492
114.95 28.8473 5.3709682553521
115 29.9559 5.4731983336985
115.05 22.18 4.70956473572665
115.1 30.2283 5.49802691881369
115.15 29.1344 5.39762910915524
115.2 39.4083 6.27760304574923
115.25 31.0756 5.57454930913702
115.3 33.7175 5.8066771909587
115.35 38.8076 6.22957462432227
115.4 36.5851 6.04856181253031
115.45 43.736 6.61331989245946
115.5 26.36 5.13419906119737
115.55 42.5467 6.52278314831944
115.6 50.3045 7.09256653123536
115.65 48.7972 6.98549926633737
115.7 81.6289 9.0348713327861
115.75 59.6668 7.72442878146986
115.8 79.537 8.91835186567563
115.85 118.7734 10.8983209715992
115.9 117.8677 10.8566891822507
115.95 118.4533 10.8836253151236
116 97.9417 9.89654990388065
116.05 78.6555 8.86879360454397
116.1 75.7502 8.70345908245681
116.15 66.8134 8.17394641528803
116.2 54.7843 7.40164170978304
116.25 50.6683 7.11816689885816
116.3 40.1655 6.33762573839762
116.35 37.0197 6.08438164483458
116.4 36.8351 6.06919269755047
116.45 43.6271 6.60508137724283
116.5 27.0601 5.2019323332777
116.55 29.3246 5.41521929380519
116.6 31.6559 5.62635761394528
116.65 37.3441 6.1109819178263
116.7 40.0224 6.32632594797328
116.75 32.9829 5.74307408971885
116.8 47.599 6.89920285250405
116.85 30.645 5.53579262617378
116.9 24.4831 4.94804001600634
116.95 26.8137 5.17819466609744
117 30.7409 5.54444767312309
117.05 30.6035 5.53204302224775
117.1 30.5007 5.52274388325224
117.15 32.5554 5.70573395804606
117.2 31.9489 5.65233580035723
117.25 36.8209 6.06802274221183
117.3 31.8863 5.64679555146102
117.35 37.6551 6.13637515150435
117.4 26.8922 5.18576898829865
117.45 30.3955 5.51321140534262
117.5 30.0522 5.48198869024736
117.55 30.2407 5.49915448046334
117.6 32.76 5.72363520850167
117.65 34.2159 5.84943587023569
117.7 32.4775 5.69890340328734
117.75 27.6555 5.25884968410393
117.8 32.3531 5.68797855129571
117.85 28.4245 5.33146321379038
117.9 18.7661 4.33198568788033
117.95 30.9669 5.56479110120048
118 40.1264 6.33454023588137
118.05 21.9773 4.68799530716489
118.1 20.599 4.53861212266481
118.15 36.296 6.02461617034646
118.2 32.9171 5.73734259043331
118.25 24.7816 4.97811209194811
118.3 28.3492 5.32439667943702
118.35 29.3031 5.41323378397793
118.4 32.5036 5.70119285763953
118.45 25.8929 5.08850665716377
118.5 29.3929 5.42152192654424
118.55 27.1206 5.20774423335094
118.6 34.9137 5.90878160029629
118.65 22.7281 4.76739971053404
118.7 35.572 5.96422668918612
118.75 36.2941 6.02445848188864
118.8 33.0311 5.74726891662466
118.85 31.8484 5.64343866804628
118.9 31.3093 5.59547138318122
118.95 40.6078 6.372424970135
119 33.4851 5.78663114428421
119.05 29.0245 5.38743909478335
119.1 23.9239 4.89120639515447
119.15 29.9586 5.47344498465089
119.2 28.6507 5.35263486518556
119.25 29.4759 5.42917120746804
119.3 26.5076 5.14855319483056
119.35 27.932 5.28507332021042
119.4 27.7192 5.26490265816947
119.45 23.3509 4.8322768960398
119.5 33.0925 5.75260810415589
119.55 30.2559 5.50053633748565
119.6 28.5345 5.34176936978751
119.65 26.3521 5.13342965277601
119.7 22.4829 4.7416136493814
119.75 34.8537 5.90370222826321
119.8 32.9997 5.74453653483029
119.85 34.5723 5.8798214258598
119.9 34.6407 5.88563505494522
119.95 24.6449 4.96436300042614
120 39.1985 6.26087054649751
120.05 33.3772 5.77730040762985
120.1 37.9316 6.15886353152917
120.15 27.3005 5.22498803826382
120.2 27.4978 5.24383447488572
120.25 30.3002 5.50456174458966
120.3 33.4444 5.78311334836176
120.35 28.4562 5.3344353028226
120.4 38.0309 6.16691981462383
120.45 33.6388 5.79989655080157
120.5 29.0511 5.38990723482325
120.55 21.2014 4.60449780106365
120.6 26.6108 5.158565692128
120.65 24.9989 4.99988999878997
120.7 26.5246 5.15020387945953
120.75 22.7669 4.77146727956925
120.8 42.3334 6.50641222180089
120.85 37.6536 6.13625292829427
120.9 29.8654 5.46492451914937
120.95 26.4353 5.14152701052907
121 26.8155 5.17836846892919
121.05 44.9809 6.70678015145867
121.1 35.206 5.93346441802763
121.15 27.7988 5.27245673287131
121.2 36.7021 6.05822581289275
121.25 29.29 5.41202365109392
121.3 32.0285 5.65937275676377
121.35 33.889 5.82142594215541
121.4 31.2136 5.58691328015748
121.45 26.5511 5.15277595088317
121.5 25.1497 5.01494765675575
121.55 38.8632 6.23403561106287
121.6 44.4125 6.66427040267725
121.65 28.0878 5.29979244876627
121.7 32.2661 5.68032569488757
121.75 29.424 5.42438936655546
121.8 29.885 5.46671747943864
121.85 35.0721 5.92217021031986
121.9 30.2715 5.50195419828264
121.95 21.4592 4.6324075813771
122 30.7368 5.54407792153032
122.05 29.3197 5.41476684631942
122.1 37.0467 6.08660003614497
122.15 19.681 4.43632730983637
122.2 30.4989 5.52258091837503
122.25 32.8165 5.72856875667911
122.3 34.8788 5.90582763040033
122.35 29.5657 5.43743505708344
122.4 33.2383 5.76526668940822
122.45 42.5742 6.524890803684
122.5 27.1564 5.21118028857187
122.55 27.7533 5.26814008925351
122.6 30.9128 5.55992805708851
122.65 30.5675 5.52878829401163
122.7 31.2515 5.59030410621819
122.75 26.3238 5.13067247054419
122.8 28.0293 5.29427048798982
122.85 25.5636 5.05604588586773
122.9 46.1468 6.79314360219185
122.95 32.4829 5.69937715895342
123 30.2539 5.50035453402778
123.05 29.9116 5.4691498425258
123.1 38.3605 6.19358539135451
123.15 28.1795 5.30843668135921
123.2 28.3684 5.32619939544137
123.25 29.1823 5.40206442020085
123.3 42.0389 6.4837412039655
123.35 24.7085 4.97076452872192
123.4 38.0185 6.16591436852637
123.45 32.3702 5.68948152295093
123.5 23.0795 4.804112821323
123.55 39.3804 6.2753804665534
123.6 34.1784 5.84622955416566
123.65 32.3548 5.6881279873083
123.7 32.372 5.689639707398
123.75 30.006 5.47777327022578
123.8 34.8678 5.90489627343275
123.85 24.8403 4.98400441412325
123.9 28.0043 5.29190891833939
123.95 31.1734 5.58331442782869
124 34.5366 5.87678483526494
124.05 37.3425 6.11085100456557
124.1 36.8934 6.07399374382292
124.15 28.5125 5.33970972993851
124.2 26.7123 5.1683943348007
124.25 49.4963 7.03536068727112
124.3 26.2446 5.12294836983548
124.35 28.3712 5.32646224054954
124.4 24.7766 4.9776098681998
124.45 34.9616 5.91283350010805
124.5 26.1426 5.11298347347222
124.55 26.3881 5.13693488376094
124.6 35.5784 5.96476319731136
124.65 20.5573 4.53401587998984
124.7 26.5227 5.15001941743912
124.75 30.8597 5.55515076303065
124.8 33.9256 5.8245686535571
124.85 29.3943 5.42165104004306
124.9 29.4041 5.42255474845575
124.95 31.4155 5.60495316661968
125 21.2664 4.61155071532343
125.05 24.3132 4.9308417131358
125.1 21.0193 4.5846810139856
125.15 22.6168 4.75571235463206
125.2 32.4528 5.69673590751757
125.25 28.2 5.3103672189407
125.3 29.2764 5.41076704359003
125.35 36.2151 6.01789830422549
125.4 31.4621 5.60910866359353
125.45 31.9341 5.65102645543268
125.5 47.0042 6.85596091004025
125.55 31.2487 5.59005366700535
125.6 28.7831 5.36498835040674
125.65 32.6405 5.71318650141933
125.7 42.2271 6.49823822278008
125.75 27.4742 5.24158373013348
125.8 44.9212 6.70232795377845
125.85 30.3358 5.50779447692087
125.9 44.5841 6.67713261812284
125.95 31.9933 5.65626201656182
126 27.0746 5.20332585948641
126.05 32.9694 5.74189864069369
126.1 25.4394 5.04374860594776
126.15 26.7009 5.16729136008412
126.2 32.8819 5.7342741476145
126.25 35.6089 5.967319331157
126.3 24.312 4.93072002855567
126.35 24.9526 4.99525775110754
126.4 27.5941 5.25300866170997
126.45 29.5325 5.43438128953058
126.5 39.9807 6.32302933727181
126.55 30.2274 5.49794507066049
126.6 29.551 5.43608314873862
126.65 32.089 5.66471535030667
126.7 21.7262 4.6611372002978
126.75 23.6816 4.86637442044896
126.8 31.9586 5.65319378758592
126.85 32.8372 5.73037520586567
126.9 33.4053 5.77973182768889
126.95 26.2389 5.12239201935971
127 31.7487 5.63459847726526
127.05 24.59 4.95883050728697
127.1 25.4384 5.0436494723563
127.15 32.6896 5.71748196324221
127.2 29.3681 5.41923426325159
127.25 38.8861 6.23587203204171
127.3 32.1382 5.66905635886609
127.35 28.2513 5.31519519867333
127.4 31.2711 5.59205686666364
127.45 34.1163 5.84091602404965
127.5 38.7481 6.2247971854511
127.55 35.4632 5.95509865577389
127.6 30.6704 5.53808631207568
127.65 29.2236 5.40588568136619
127.7 22.8906 4.78441218960072
127.75 34.8772 5.90569216942434
127.8 29.6889 5.44875215072222
127.85 29.0443 5.38927638927528
127.9 40.5936 6.37131069717998
127.95 34.3862 5.8639747612008
128 34.3648 5.86214977631926
128.05 33.6678 5.80239605680274
128.1 32.4002 5.69211735648519
128.15 37.7174 6.14144934034304
128.2 35.8854 5.99044238767055
128.25 35.9539 5.99615710267835
128.3 37.2212 6.10091796371661
128.35 35.9703 5.99752448932057
128.4 19.4698 4.41245963154339
128.45 31.3226 5.59665971808185
128.5 26.3337 5.13163716566166
128.55 24.4643 4.9461399090604
128.6 26.8446 5.18117747235124
128.65 33.8231 5.81576306257399
128.7 28.4809 5.33674994729939
128.75 32.5702 5.70703075162558
128.8 35.9139 5.99282070481005
128.85 23.025 4.79843724560403
128.9 27.5975 5.25333227580362
128.95 25.8937 5.08858526508105
129 28.8063 5.3671500817473
129.05 34.7675 5.89639720507362
129.1 25.3985 5.03969245093389
129.15 41.8985 6.47290506650607
129.2 32.076 5.66356778011882
129.25 28.9487 5.38039961341163
129.3 20.2371 4.49856643832232
129.35 29.2615 5.40938998409248
129.4 26.7746 5.17441784165137
129.45 29.2315 5.4066163170693
129.5 30.6221 5.53372388179967
129.55 27.3163 5.22649978475078
129.6 35.591 5.9658193066837
129.65 26.1667 5.11533967591596
129.7 41.1347 6.41363391534004
129.75 22.7818 4.77302838876955
129.8 35.7748 5.98120389219428
129.85 29.1626 5.40024073537467
129.9 36.2798 6.02327153629985
129.95 26.1066 5.10946181118912
130 30.292 5.50381685741813
130 30.292 5.50381685741813
