
#Surface 0 of 1 surfaces

#IsoCurve 0, 1801 points
#x y z type
 40  32.8095  34.3578 i
 40.05  40.6882  34.3529 i
 40.1  41.7609  34.348 i
 40.15  26.3189  34.3431 i
 40.2  32.33  34.3382 i
 40.25  50.5719  34.3334 i
 40.3  33.7172  34.3285 i
 40.35  34.3699  34.3236 i
 40.4  46.0312  34.3187 i
 40.45  44.3343  34.3138 i
 40.5  43.3847  34.3089 i
 40.55  57.5706  34.3041 i
 40.6  47.5483  34.2992 i
 40.65  37.3836  34.2943 i
 40.7  41.309  34.2895 i
 40.75  39.391  34.2846 i
 40.8  46.2649  34.2797 i
 40.85  25.5095  34.2749 i
 40.9  39.0008  34.27 i
 40.95  53.503  34.2651 i
 41  32.6666  34.2603 i
 41.05  42.0479  34.2554 i
 41.1  32.3173  34.2506 i
 41.15  45.9824  34.2457 i
 41.2  43.9077  34.2409 i
 41.25  36.4939  34.236 i
 41.3  40.1126  34.2312 i
 41.35  27.5702  34.2264 i
 41.4  51.9872  34.2215 i
 41.45  42.2894  34.2167 i
 41.5  48.6126  34.2119 i
 41.55  50.3441  34.207 i
 41.6  40.2758  34.2022 i
 41.65  45.9989  34.1974 i
 41.7  34.8588  34.1925 i
 41.75  42.9304  34.1877 i
 41.8  35.3736  34.1829 i
 41.85  40.0042  34.1781 i
 41.9  41.1497  34.1732 i
 41.95  49.0183  34.1684 i
 42  47.6068  34.1636 i
 42.05  38.4398  34.1588 i
 42.1  33.3927  34.154 i
 42.15  42.5414  34.1492 i
 42.2  31.3685  34.1444 i
 42.25  38.2851  34.1396 i
 42.3  37.4214  34.1348 i
 42.35  32.2043  34.13 i
 42.4  35.5602  34.1252 i
 42.45  36.2267  34.1204 i
 42.5  47.758  34.1156 i
 42.55  44.71  34.1108 i
 42.6  41.5702  34.106 i
 42.65  34.2013  34.1012 i
 42.7  35.1044  34.0964 i
 42.75  37.6059  34.0916 i
 42.8  45.6207  34.0869 i
 42.85  43.3374  34.0821 i
 42.9  36.7306  34.0773 i
 42.95  35.0842  34.0725 i
 43  39.6317  34.0677 i
 43.05  42.1473  34.063 i
 43.1  37.1083  34.0582 i
 43.15  34.604  34.0534 i
 43.2  52.5529  34.0487 i
 43.25  42.1982  34.0439 i
 43.3  46.1459  34.0391 i
 43.35  44.3601  34.0344 i
 43.4  47.4114  34.0296 i
 43.45  43.5859  34.0248 i
 43.5  40.4399  34.0201 i
 43.55  35.7216  34.0153 i
 43.6  47.2207  34.0106 i
 43.65  40.7898  34.0058 i
 43.7  45.4777  34.0011 i
 43.75  38.7311  33.9963 i
 43.8  39.7284  33.9916 i
 43.85  52.8494  33.9868 i
 43.9  41.133  33.9821 i
 43.95  46.9411  33.9773 i
 44  53.2641  33.9726 i
 44.05  59.3574  33.9679 i
 44.1  80.8262  33.9631 i
 44.15  83.5984  33.9584 i
 44.2  138.312  33.9537 i
 44.25  392.567  33.9489 i
 44.3  1190.74  33.9442 i
 44.35  2145.92  33.9395 i
 44.4  2204.15  33.9347 i
 44.45  1394.93  33.93 i
 44.5  463.959  33.9253 i
 44.55  157.52  33.9206 i
 44.6  94.1035  33.9158 i
 44.65  61.0503  33.9111 i
 44.7  43.9344  33.9064 i
 44.75  47.2426  33.9017 i
 44.8  48.1024  33.897 i
 44.85  46.7701  33.8923 i
 44.9  46.5079  33.8875 i
 44.95  29.5209  33.8828 i
 45  37.0064  33.8781 i
 45.05  49.5887  33.8734 i
 45.1  45.0633  33.8687 i
 45.15  44.5612  33.864 i
 45.2  38.333  33.8593 i
 45.25  43.8622  33.8546 i
 45.3  36.7745  33.8499 i
 45.35  37.8658  33.8452 i
 45.4  39.7006  33.8405 i
 45.45  41.8151  33.8358 i
 45.5  33.5472  33.8311 i
 45.55  25.607  33.8264 i
 45.6  33.733  33.8217 i
 45.65  36.9708  33.817 i
 45.7  29.5818  33.8124 i
 45.75  39.005  33.8077 i
 45.8  37.3798  33.803 i
 45.85  28.0447  33.7983 i
 45.9  38.8193  33.7936 i
 45.95  38.9153  33.7889 i
 46  36.9279  33.7843 i
 46.05  36.5368  33.7796 i
 46.1  36.4881  33.7749 i
 46.15  31.3719  33.7702 i
 46.2  40.9421  33.7655 i
 46.25  39.1949  33.7609 i
 46.3  37.0945  33.7562 i
 46.35  41.6502  33.7515 i
 46.4  32.6853  33.7469 i
 46.45  42.6253  33.7422 i
 46.5  25.3648  33.7375 i
 46.55  45.401  33.7329 i
 46.6  37.5131  33.7282 i
 46.65  30.7922  33.7235 i
 46.7  38.6547  33.7189 i
 46.75  31.8535  33.7142 i
 46.8  41.9196  33.7096 i
 46.85  24.3745  33.7049 i
 46.9  25.0565  33.7002 i
 46.95  31.3316  33.6956 i
 47  45.1946  33.6909 i
 47.05  30.2516  33.6863 i
 47.1  35.6161  33.6816 i
 47.15  35.1168  33.677 i
 47.2  33.1966  33.6723 i
 47.25  48.7644  33.6677 i
 47.3  37.9666  33.663 i
 47.35  34.7067  33.6584 i
 47.4  41.7956  33.6537 i
 47.45  51.4594  33.6491 i
 47.5  46.5129  33.6444 i
 47.55  34.283  33.6398 i
 47.6  36.1432  33.6352 i
 47.65  25.9586  33.6305 i
 47.7  32.5646  33.6259 i
 47.75  22.4306  33.6212 i
 47.8  44.7657  33.6166 i
 47.85  34.0758  33.612 i
 47.9  35.7483  33.6073 i
 47.95  34.0369  33.6027 i
 48  31.6065  33.5981 i
 48.05  38.823  33.5934 i
 48.1  47.8501  33.5888 i
 48.15  35.7316  33.5842 i
 48.2  33.6557  33.5796 i
 48.25  33.0001  33.5749 i
 48.3  38.8091  33.5703 i
 48.35  27.2095  33.5657 i
 48.4  37.9883  33.5611 i
 48.45  35.979  33.5564 i
 48.5  35.5586  33.5518 i
 48.55  29.8559  33.5472 i
 48.6  45.3092  33.5426 i
 48.65  29.0571  33.538 i
 48.7  31.1843  33.5333 i
 48.75  43.2607  33.5287 i
 48.8  22.58  33.5241 i
 48.85  39.1604  33.5195 i
 48.9  43.1046  33.5149 i
 48.95  29.663  33.5103 i
 49  35.183  33.5056 i
 49.05  39.0215  33.501 i
 49.1  43.2118  33.4964 i
 49.15  33.3918  33.4918 i
 49.2  49.0793  33.4872 i
 49.25  31.6463  33.4826 i
 49.3  29.2862  33.478 i
 49.35  24.694  33.4734 i
 49.4  38.7589  33.4688 i
 49.45  29.2544  33.4642 i
 49.5  36.2015  33.4596 i
 49.55  37.0152  33.455 i
 49.6  39.7352  33.4504 i
 49.65  29.7691  33.4458 i
 49.7  37.481  33.4412 i
 49.75  34.5997  33.4366 i
 49.8  37.754  33.432 i
 49.85  38.4657  33.4274 i
 49.9  39.6662  33.4228 i
 49.95  35.5276  33.4182 i
 50  37.3379  33.4136 i
 50.05  30.345  33.409 i
 50.1  26.3471  33.4044 i
 50.15  23.3114  33.3998 i
 50.2  43.3025  33.3952 i
 50.25  39.2168  33.3906 i
 50.3  32.3981  33.386 i
 50.35  27.3571  33.3814 i
 50.4  48.0676  33.3768 i
 50.45  26.5145  33.3722 i
 50.5  35.1156  33.3676 i
 50.55  34.3133  33.363 i
 50.6  38.7004  33.3585 i
 50.65  36.3927  33.3539 i
 50.7  37.8988  33.3493 i
 50.75  34.1165  33.3447 i
 50.8  36.6776  33.3401 i
 50.85  20.9379  33.3355 i
 50.9  31.0603  33.3309 i
 50.95  30.6636  33.3263 i
 51  34.8075  33.3218 i
 51.05  35.2659  33.3172 i
 51.1  39.2092  33.3126 i
 51.15  29.6438  33.308 i
 51.2  46.4067  33.3034 i
 51.25  34.9846  33.2989 i
 51.3  28.5279  33.2943 i
 51.35  31.5353  33.2897 i
 51.4  36.8404  33.2851 i
 51.45  43.7637  33.2805 i
 51.5  47.0029  33.276 i
 51.55  27.7008  33.2714 i
 51.6  31.9783  33.2668 i
 51.65  36.6541  33.2622 i
 51.7  38.2949  33.2576 i
 51.75  26.6975  33.2531 i
 51.8  36.6174  33.2485 i
 51.85  39.9145  33.2439 i
 51.9  32.4187  33.2393 i
 51.95  31.3784  33.2348 i
 52  39.8243  33.2302 i
 52.05  26.6894  33.2256 i
 52.1  29.6065  33.221 i
 52.15  37.836  33.2165 i
 52.2  27.6758  33.2119 i
 52.25  27.6075  33.2073 i
 52.3  31.0522  33.2028 i
 52.35  40.1136  33.1982 i
 52.4  34.8713  33.1936 i
 52.45  26.5819  33.189 i
 52.5  30.5678  33.1845 i
 52.55  30.6045  33.1799 i
 52.6  25.0134  33.1753 i
 52.65  34.6604  33.1708 i
 52.7  36.1657  33.1662 i
 52.75  32.0806  33.1616 i
 52.8  34.6946  33.1571 i
 52.85  35.4098  33.1525 i
 52.9  29.5094  33.1479 i
 52.95  25.0831  33.1433 i
 53  21.2101  33.1388 i
 53.05  32.87  33.1342 i
 53.1  33.3932  33.1296 i
 53.15  32.1565  33.1251 i
 53.2  36.9451  33.1205 i
 53.25  29.0111  33.1159 i
 53.3  33.6221  33.1114 i
 53.35  28.3306  33.1068 i
 53.4  26.2754  33.1022 i
 53.45  30.2799  33.0977 i
 53.5  28.5839  33.0931 i
 53.55  26.7327  33.0886 i
 53.6  25.6763  33.084 i
 53.65  24.6621  33.0794 i
 53.7  22.5367  33.0749 i
 53.75  36.6427  33.0703 i
 53.8  32.288  33.0657 i
 53.85  34.0382  33.0612 i
 53.9  28.2444  33.0566 i
 53.95  45.5052  33.052 i
 54  26.5973  33.0475 i
 54.05  35.1395  33.0429 i
 54.1  36.4222  33.0383 i
 54.15  33.84  33.0338 i
 54.2  39.2608  33.0292 i
 54.25  25.6917  33.0246 i
 54.3  38.4453  33.0201 i
 54.35  41.3684  33.0155 i
 54.4  32.8489  33.011 i
 54.45  30.9127  33.0064 i
 54.5  17.7951  33.0018 i
 54.55  30.5149  32.9973 i
 54.6  30.8413  32.9927 i
 54.65  36.2659  32.9881 i
 54.7  37.4733  32.9836 i
 54.75  27.2901  32.979 i
 54.8  25.4278  32.9744 i
 54.85  31.0922  32.9699 i
 54.9  33.1259  32.9653 i
 54.95  25.5753  32.9607 i
 55  33.8071  32.9562 i
 55.05  31.0447  32.9516 i
 55.1  28.6293  32.9471 i
 55.15  34.2096  32.9425 i
 55.2  28.7767  32.9379 i
 55.25  30.3111  32.9334 i
 55.3  34.1279  32.9288 i
 55.35  22.0723  32.9242 i
 55.4  32.3227  32.9197 i
 55.45  27.3187  32.9151 i
 55.5  26.6508  32.9105 i
 55.55  30.7094  32.906 i
 55.6  33.9447  32.9014 i
 55.65  38.0892  32.8968 i
 55.7  31.0691  32.8923 i
 55.75  30.7844  32.8877 i
 55.8  20.095  32.8831 i
 55.85  39.0051  32.8786 i
 55.9  38.8235  32.874 i
 55.95  36.3211  32.8694 i
 56  31.0978  32.8649 i
 56.05  32.1917  32.8603 i
 56.1  33.5586  32.8557 i
 56.15  37.7483  32.8512 i
 56.2  35.4374  32.8466 i
 56.25  30.5939  32.842 i
 56.3  30.444  32.8375 i
 56.35  34.1279  32.8329 i
 56.4  28.1789  32.8283 i
 56.45  29.8384  32.8238 i
 56.5  33.8738  32.8192 i
 56.55  33.6288  32.8146 i
 56.6  28.1772  32.81 i
 56.65  26.8478  32.8055 i
 56.7  41.6741  32.8009 i
 56.75  34.8706  32.7963 i
 56.8  34.7819  32.7918 i
 56.85  20.6756  32.7872 i
 56.9  33.4084  32.7826 i
 56.95  37.83  32.778 i
 57  40.1081  32.7735 i
 57.05  28.9264  32.7689 i
 57.1  24.2763  32.7643 i
 57.15  27.3354  32.7597 i
 57.2  33.405  32.7552 i
 57.25  31.2197  32.7506 i
 57.3  30.0479  32.746 i
 57.35  32.9353  32.7414 i
 57.4  29.9539  32.7369 i
 57.45  37.6449  32.7323 i
 57.5  40.4288  32.7277 i
 57.55  38.097  32.7231 i
 57.6  32.721  32.7186 i
 57.65  41.4696  32.714 i
 57.7  24.3259  32.7094 i
 57.75  33.9219  32.7048 i
 57.8  28.2423  32.7002 i
 57.85  26.0667  32.6956 i
 57.9  33.4522  32.6911 i
 57.95  29.7894  32.6865 i
 58  35.2334  32.6819 i
 58.05  32.6186  32.6773 i
 58.1  27.469  32.6727 i
 58.15  31.5788  32.6682 i
 58.2  33.1775  32.6636 i
 58.25  36.5115  32.659 i
 58.3  29.0276  32.6544 i
 58.35  32.3164  32.6498 i
 58.4  22.7806  32.6452 i
 58.45  22.8232  32.6406 i
 58.5  43.3491  32.636 i
 58.55  21.7028  32.6315 i
 58.6  26.6112  32.6269 i
 58.65  34.6359  32.6223 i
 58.7  27.8155  32.6177 i
 58.75  35.4755  32.6131 i
 58.8  29.4073  32.6085 i
 58.85  30.7699  32.6039 i
 58.9  30.3599  32.5993 i
 58.95  34.2424  32.5947 i
 59  29.7757  32.5901 i
 59.05  28.4216  32.5855 i
 59.1  33.8073  32.5809 i
 59.15  29.1029  32.5763 i
 59.2  41.9869  32.5717 i
 59.25  36.6039  32.5671 i
 59.3  40.5562  32.5625 i
 59.35  35.8112  32.5579 i
 59.4  37.7548  32.5533 i
 59.45  34.0503  32.5487 i
 59.5  27.0223  32.5441 i
 59.55  22.6693  32.5395 i
 59.6  28.5806  32.5349 i
 59.65  30.7391  32.5303 i
 59.7  36.9574  32.5257 i
 59.75  37.5086  32.5211 i
 59.8  29.5289  32.5165 i
 59.85  30.8732  32.5119 i
 59.9  29.5648  32.5073 i
 59.95  30.3999  32.5027 i
 60  34.24  32.498 i
 60.05  30.1642  32.4934 i
 60.1  35.7533  32.4888 i
 60.15  33.9229  32.4842 i
 60.2  22.1549  32.4796 i
 60.25  29.1428  32.475 i
 60.3  24.2963  32.4704 i
 60.35  35.0478  32.4657 i
 60.4  31.1855  32.4611 i
 60.45  24.8213  32.4565 i
 60.5  24.0012  32.4519 i
 60.55  21.722  32.4473 i
 60.6  36.4496  32.4426 i
 60.65  31.0684  32.438 i
 60.7  27.1536  32.4334 i
 60.75  35.7438  32.4288 i
 60.8  31.4977  32.4241 i
 60.85  35.4255  32.4195 i
 60.9  37.1516  32.4149 i
 60.95  37.5106  32.4103 i
 61  22.5203  32.4056 i
 61.05  30.0659  32.401 i
 61.1  33.8898  32.3964 i
 61.15  27.9715  32.3917 i
 61.2  26.2376  32.3871 i
 61.25  29.5348  32.3825 i
 61.3  27.5226  32.3778 i
 61.35  34.3228  32.3732 i
 61.4  36.0162  32.3685 i
 61.45  41.8521  32.3639 i
 61.5  27.6923  32.3593 i
 61.55  44.7228  32.3546 i
 61.6  34.704  32.35 i
 61.65  24.3879  32.3453 i
 61.7  28.8028  32.3407 i
 61.75  34.8319  32.336 i
 61.8  31.9677  32.3314 i
 61.85  40.7269  32.3267 i
 61.9  30.7378  32.3221 i
 61.95  29.9762  32.3174 i
 62  34.1608  32.3128 i
 62.05  32.7391  32.3081 i
 62.1  28.8445  32.3035 i
 62.15  34.6749  32.2988 i
 62.2  24.3593  32.2942 i
 62.25  32.2712  32.2895 i
 62.3  35.6898  32.2849 i
 62.35  34.3387  32.2802 i
 62.4  31.275  32.2755 i
 62.45  26.2131  32.2709 i
 62.5  31.1881  32.2662 i
 62.55  27.3456  32.2615 i
 62.6  33.729  32.2569 i
 62.65  15.1703  32.2522 i
 62.7  33.1497  32.2475 i
 62.75  36.4138  32.2429 i
 62.8  39.9282  32.2382 i
 62.85  33.0167  32.2335 i
 62.9  34.7475  32.2288 i
 62.95  34.756  32.2242 i
 63  38.6224  32.2195 i
 63.05  30.073  32.2148 i
 63.1  31.109  32.2101 i
 63.15  32.2361  32.2054 i
 63.2  30.2574  32.2008 i
 63.25  25.1663  32.1961 i
 63.3  20.0534  32.1914 i
 63.35  31.507  32.1867 i
 63.4  32.4217  32.182 i
 63.45  33.311  32.1773 i
 63.5  38.7023  32.1726 i
 63.55  25.3026  32.1679 i
 63.6  31.3165  32.1633 i
 63.65  42.537  32.1586 i
 63.7  28.599  32.1539 i
 63.75  34.5703  32.1492 i
 63.8  32.0585  32.1445 i
 63.85  40.7887  32.1398 i
 63.9  30.3573  32.1351 i
 63.95  21.267  32.1303 i
 64  39.6988  32.1256 i
 64.05  29.4747  32.1209 i
 64.1  41.7243  32.1162 i
 64.15  29.348  32.1115 i
 64.2  29.032  32.1068 i
 64.25  32.4251  32.1021 i
 64.3  31.3294  32.0974 i
 64.35  37.3869  32.0927 i
 64.4  52.6063  32.0879 i
 64.45  43.5261  32.0832 i
 64.5  54.5873  32.0785 i
 64.55  71.8198  32.0738 i
 64.6  95.7471  32.069 i
 64.65  147.172  32.0643 i
 64.7  143.17  32.0596 i
 64.75  146.525  32.0549 i
 64.8  110.841  32.0501 i
 64.85  61.2702  32.0454 i
 64.9  48.4399  32.0407 i
 64.95  44.6754  32.0359 i
 65  28.8759  32.0312 i
 65.05  43.3262  32.0265 i
 65.1  40.8427  32.0217 i
 65.15  31.0228  32.017 i
 65.2  38.8475  32.0122 i
 65.25  28.8715  32.0075 i
 65.3  23.9282  32.0027 i
 65.35  31.8711  31.998 i
 65.4  29.0861  31.9932 i
 65.45  30.0581  31.9885 i
 65.5  34.0982  31.9837 i
 65.55  33.9777  31.979 i
 65.6  33.1103  31.9742 i
 65.65  33.6556  31.9694 i
 65.7  31.269  31.9647 i
 65.75  25.3012  31.9599 i
 65.8  33.5548  31.9552 i
 65.85  27.8991  31.9504 i
 65.9  28.574  31.9456 i
 65.95  35.8912  31.9409 i
 66  40.2616  31.9361 i
 66.05  30.2492  31.9313 i
 66.1  34.0659  31.9265 i
 66.15  24.1911  31.9217 i
 66.2  29.5415  31.917 i
 66.25  32.3935  31.9122 i
 66.3  30.1299  31.9074 i
 66.35  31.6793  31.9026 i
 66.4  30.3959  31.8978 i
 66.45  31.5952  31.893 i
 66.5  30.3447  31.8882 i
 66.55  33.2434  31.8835 i
 66.6  38.8516  31.8787 i
 66.65  30.2676  31.8739 i
 66.7  28.5017  31.8691 i
 66.75  19.0604  31.8643 i
 66.8  35.2528  31.8595 i
 66.85  26.0749  31.8547 i
 66.9  26.5897  31.8499 i
 66.95  18.4592  31.845 i
 67  20.7575  31.8402 i
 67.05  22.3358  31.8354 i
 67.1  29.9516  31.8306 i
 67.15  22.3857  31.8258 i
 67.2  27.9839  31.821 i
 67.25  30.2497  31.8161 i
 67.3  38.2852  31.8113 i
 67.35  34.2007  31.8065 i
 67.4  37.2847  31.8017 i
 67.45  36.0969  31.7968 i
 67.5  20.5105  31.792 i
 67.55  27.8202  31.7872 i
 67.6  30.3019  31.7823 i
 67.65  29.7986  31.7775 i
 67.7  31.4794  31.7727 i
 67.75  26.0345  31.7678 i
 67.8  30.0404  31.763 i
 67.85  32.4864  31.7581 i
 67.9  33.2225  31.7533 i
 67.95  39.5497  31.7484 i
 68  29.7614  31.7436 i
 68.05  32.1448  31.7387 i
 68.1  34.205  31.7339 i
 68.15  31.8531  31.729 i
 68.2  34.843  31.7242 i
 68.25  33.0112  31.7193 i
 68.3  39.3336  31.7144 i
 68.35  32.306  31.7096 i
 68.4  35.6245  31.7047 i
 68.45  33.0939  31.6998 i
 68.5  37.0905  31.695 i
 68.55  34.9457  31.6901 i
 68.6  35.3693  31.6852 i
 68.65  30.0402  31.6803 i
 68.7  31.009  31.6754 i
 68.75  37.9271  31.6706 i
 68.8  45.2408  31.6657 i
 68.85  25.2565  31.6608 i
 68.9  29.8637  31.6559 i
 68.95  33.5099  31.651 i
 69  23.4381  31.6461 i
 69.05  24.7011  31.6412 i
 69.1  33.0489  31.6363 i
 69.15  41.8592  31.6314 i
 69.2  31.302  31.6265 i
 69.25  24.955  31.6216 i
 69.3  36.8526  31.6167 i
 69.35  41.4621  31.6118 i
 69.4  24.7531  31.6068 i
 69.45  24.0327  31.6019 i
 69.5  24.1144  31.597 i
 69.55  34.1912  31.5921 i
 69.6  31.6096  31.5872 i
 69.65  33.6265  31.5822 i
 69.7  36.2511  31.5773 i
 69.75  25.0342  31.5724 i
 69.8  28.2581  31.5674 i
 69.85  27.0396  31.5625 i
 69.9  29.5746  31.5576 i
 69.95  28.9202  31.5526 i
 70  32.1023  31.5477 i
 70.05  37.6829  31.5427 i
 70.1  38.5431  31.5378 i
 70.15  35.2325  31.5328 i
 70.2  29.2141  31.5279 i
 70.25  33.049  31.5229 i
 70.3  26.9976  31.518 i
 70.35  34.7301  31.513 i
 70.4  32.7333  31.508 i
 70.45  27.3366  31.5031 i
 70.5  37.0838  31.4981 i
 70.55  42.2821  31.4931 i
 70.6  32.4815  31.4882 i
 70.65  38.7101  31.4832 i
 70.7  25.3116  31.4782 i
 70.75  21.9016  31.4732 i
 70.8  29.577  31.4682 i
 70.85  29.4128  31.4632 i
 70.9  32.0864  31.4583 i
 70.95  26.6492  31.4533 i
 71  25.4033  31.4483 i
 71.05  36.5147  31.4433 i
 71.1  38.0788  31.4383 i
 71.15  37.3702  31.4333 i
 71.2  35.3704  31.4283 i
 71.25  27.0172  31.4233 i
 71.3  30.1131  31.4182 i
 71.35  27.5509  31.4132 i
 71.4  30.2825  31.4082 i
 71.45  38.3375  31.4032 i
 71.5  35.5068  31.3982 i
 71.55  26.1223  31.3932 i
 71.6  26.8028  31.3881 i
 71.65  29.7564  31.3831 i
 71.7  26.0009  31.3781 i
 71.75  39.2484  31.373 i
 71.8  33.1188  31.368 i
 71.85  31.6005  31.363 i
 71.9  31.688  31.3579 i
 71.95  21.3137  31.3529 i
 72  27.0891  31.3478 i
 72.05  26.7844  31.3428 i
 72.1  24.1061  31.3377 i
 72.15  42.7356  31.3327 i
 72.2  38.9412  31.3276 i
 72.25  31.6194  31.3225 i
 72.3  28.5195  31.3175 i
 72.35  35.9262  31.3124 i
 72.4  37.1682  31.3073 i
 72.45  29.138  31.3023 i
 72.5  30.462  31.2972 i
 72.55  33.721  31.2921 i
 72.6  36.2425  31.287 i
 72.65  42.0683  31.2819 i
 72.7  40.3335  31.2768 i
 72.75  28.4626  31.2718 i
 72.8  34.1511  31.2667 i
 72.85  25.2855  31.2616 i
 72.9  36.7955  31.2565 i
 72.95  26.8767  31.2514 i
 73  31.0377  31.2463 i
 73.05  33.8779  31.2411 i
 73.1  42.7294  31.236 i
 73.15  39.1383  31.2309 i
 73.2  26.0051  31.2258 i
 73.25  29.264  31.2207 i
 73.3  33.9172  31.2156 i
 73.35  26.1984  31.2104 i
 73.4  36.5357  31.2053 i
 73.45  31.7784  31.2002 i
 73.5  25.5004  31.195 i
 73.55  28.5828  31.1899 i
 73.6  34.0311  31.1848 i
 73.65  26.5168  31.1796 i
 73.7  28.6854  31.1745 i
 73.75  28.9308  31.1693 i
 73.8  24.7864  31.1642 i
 73.85  28.2544  31.159 i
 73.9  30.7223  31.1538 i
 73.95  35.0867  31.1487 i
 74  33.3259  31.1435 i
 74.05  36.1568  31.1383 i
 74.1  25.9354  31.1332 i
 74.15  31.6347  31.128 i
 74.2  44.2284  31.1228 i
 74.25  38.3471  31.1176 i
 74.3  28.5777  31.1125 i
 74.35  29.0792  31.1073 i
 74.4  34.6723  31.1021 i
 74.45  22.0468  31.0969 i
 74.5  32.9033  31.0917 i
 74.55  26.4591  31.0864 i
 74.6  28.8698  31.0811 i
 74.65  33.2409  31.0758 i
 74.7  26.8615  31.0705 i
 74.75  23.2069  31.0652 i
 74.8  33.8808  31.0598 i
 74.85  32.4833  31.0544 i
 74.9  25.8164  31.049 i
 74.95  29.7948  31.0435 i
 75  29.8402  31.0381 i
 75.05  37.1528  31.0326 i
 75.1  42.6646  31.0271 i
 75.15  24.5313  31.0215 i
 75.2  36.9823  31.016 i
 75.25  38.567  31.0104 i
 75.3  34.8385  31.0048 i
 75.35  27.7497  30.9992 i
 75.4  29.4477  30.9935 i
 75.45  28.7616  30.9879 i
 75.5  28.8569  30.9822 i
 75.55  36.416  30.9765 i
 75.6  32.216  30.9707 i
 75.65  29.3742  30.965 i
 75.7  31.6498  30.9592 i
 75.75  38.3506  30.9534 i
 75.8  27.9466  30.9476 i
 75.85  35.2522  30.9418 i
 75.9  31.7027  30.9359 i
 75.95  30.6807  30.93 i
 76  36.9304  30.9241 i
 76.05  30.5761  30.9182 i
 76.1  40.0557  30.9123 i
 76.15  25.7037  30.9064 i
 76.2  27.9233  30.9004 i
 76.25  22.5955  30.8944 i
 76.3  24.2763  30.8884 i
 76.35  23.7351  30.8824 i
 76.4  28.6926  30.8764 i
 76.45  31.0425  30.8703 i
 76.5  36.7097  30.8642 i
 76.55  21.498  30.8581 i
 76.6  24.6282  30.852 i
 76.65  38.8337  30.8459 i
 76.7  29.7593  30.8398 i
 76.75  34.5999  30.8336 i
 76.8  25.5487  30.8275 i
 76.85  38.3758  30.8213 i
 76.9  27.4042  30.8151 i
 76.95  25.4069  30.8089 i
 77  28.0915  30.8026 i
 77.05  25.7078  30.7964 i
 77.1  22.9585  30.7901 i
 77.15  29.2498  30.7838 i
 77.2  33.7749  30.7776 i
 77.25  28.5813  30.7713 i
 77.3  34.3145  30.7649 i
 77.35  33.5933  30.7586 i
 77.4  29.742  30.7523 i
 77.45  30.2486  30.7459 i
 77.5  37.5245  30.7395 i
 77.55  46.6075  30.7332 i
 77.6  34.7187  30.7268 i
 77.65  22.2203  30.7204 i
 77.7  35.2264  30.7139 i
 77.75  35.725  30.7075 i
 77.8  31.9111  30.7011 i
 77.85  33.9423  30.6946 i
 77.9  30.72  30.6882 i
 77.95  32.1548  30.6817 i
 78  14.7  30.6752 i
 78.05  17.0275  30.6687 i
 78.1  23.7139  30.6622 i
 78.15  32.0725  30.6557 i
 78.2  30.5846  30.6492 i
 78.25  30.6304  30.6426 i
 78.3  37.6771  30.6361 i
 78.35  37.2759  30.6295 i
 78.4  21.4301  30.623 i
 78.45  39.611  30.6164 i
 78.5  30.5158  30.6098 i
 78.55  35.0383  30.6032 i
 78.6  28.5973  30.5966 i
 78.65  25.8054  30.59 i
 78.7  26.6825  30.5834 i
 78.75  37.9297  30.5768 i
 78.8  30.0217  30.5702 i
 78.85  35.2462  30.5635 i
 78.9  26.3993  30.5569 i
 78.95  23.5532  30.5502 i
 79  35.4603  30.5436 i
 79.05  25.733  30.5369 i
 79.1  29.5214  30.5303 i
 79.15  32.4563  30.5236 i
 79.2  33.106  30.5169 i
 79.25  31.5452  30.5102 i
 79.3  37.0217  30.5035 i
 79.35  38.5571  30.4969 i
 79.4  31.9384  30.4902 i
 79.45  33.6301  30.4835 i
 79.5  34.0742  30.4768 i
 79.55  30.9355  30.47 i
 79.6  25.9518  30.4633 i
 79.65  35.2429  30.4566 i
 79.7  29.6179  30.4499 i
 79.75  27.9188  30.4432 i
 79.8  25.7615  30.4364 i
 79.85  26.5696  30.4297 i
 79.9  36.9713  30.423 i
 79.95  24.8874  30.4162 i
 80  29.8629  30.4095 i
 80.05  25.7065  30.4028 i
 80.1  29.4916  30.396 i
 80.15  33.0995  30.3893 i
 80.2  31.2647  30.3825 i
 80.25  32.6057  30.3758 i
 80.3  34.1919  30.3691 i
 80.35  27.3403  30.3623 i
 80.4  29.4114  30.3556 i
 80.45  22.2075  30.3488 i
 80.5  40.1449  30.3421 i
 80.55  32.7588  30.3353 i
 80.6  27.5808  30.3286 i
 80.65  43.4474  30.3218 i
 80.7  36.0074  30.3151 i
 80.75  29.2687  30.3083 i
 80.8  34.636  30.3016 i
 80.85  35.2918  30.2949 i
 80.9  26.2795  30.2881 i
 80.95  26.4856  30.2814 i
 81  26.9395  30.2746 i
 81.05  40.8687  30.2679 i
 81.1  33.6419  30.2612 i
 81.15  22.2113  30.2545 i
 81.2  28.7859  30.2477 i
 81.25  29.9064  30.241 i
 81.3  34.6497  30.2343 i
 81.35  30.325  30.2276 i
 81.4  21.5729  30.2209 i
 81.45  34.5984  30.2142 i
 81.5  27.707  30.2075 i
 81.55  30.8191  30.2008 i
 81.6  44.5116  30.1941 i
 81.65  31.6855  30.1874 i
 81.7  42.1954  30.1807 i
 81.75  60.6146  30.174 i
 81.8  89.7925  30.1674 i
 81.85  137.69  30.1607 i
 81.9  194.638  30.154 i
 81.95  260.161  30.1474 i
 82  254.034  30.1407 i
 82.05  204.107  30.1341 i
 82.1  118.862  30.1274 i
 82.15  77.7442  30.1208 i
 82.2  70.9091  30.1142 i
 82.25  53.2715  30.1076 i
 82.3  48.6772  30.101 i
 82.35  45.9897  30.0944 i
 82.4  29.5694  30.0878 i
 82.45  34.1888  30.0812 i
 82.5  44.4062  30.0746 i
 82.55  30.0597  30.0681 i
 82.6  27.5031  30.0615 i
 82.65  25.4779  30.055 i
 82.7  32.6956  30.0484 i
 82.75  33.2279  30.0419 i
 82.8  38.9131  30.0354 i
 82.85  31.9996  30.0289 i
 82.9  35.6172  30.0224 i
 82.95  22.0346  30.0159 i
 83  32.3969  30.0094 i
 83.05  33.8844  30.003 i
 83.1  33.3036  29.9965 i
 83.15  26.2334  29.9901 i
 83.2  30.1081  29.9837 i
 83.25  32.4281  29.9772 i
 83.3  24.1327  29.9708 i
 83.35  31.766  29.9644 i
 83.4  28.7669  29.9581 i
 83.45  34.473  29.9517 i
 83.5  40.326  29.9453 i
 83.55  26.8521  29.939 i
 83.6  40.6522  29.9327 i
 83.65  29.4825  29.9263 i
 83.7  44.4967  29.92 i
 83.75  25.3902  29.9137 i
 83.8  22.03  29.9075 i
 83.85  27.5828  29.9012 i
 83.9  26.5596  29.895 i
 83.95  25.2766  29.8887 i
 84  34.0983  29.8825 i
 84.05  26.9567  29.8763 i
 84.1  20.3862  29.8701 i
 84.15  37.6622  29.8639 i
 84.2  37.0831  29.8578 i
 84.25  27.5837  29.8517 i
 84.3  32.5364  29.8455 i
 84.35  30.0902  29.8394 i
 84.4  30.5687  29.8333 i
 84.45  32.9979  29.8273 i
 84.5  32.7026  29.8212 i
 84.55  42.7132  29.8152 i
 84.6  33.7599  29.8091 i
 84.65  30.1768  29.8031 i
 84.7  20.3154  29.7972 i
 84.75  28.6281  29.7912 i
 84.8  26.0399  29.7852 i
 84.85  33.3453  29.7793 i
 84.9  32.7773  29.7734 i
 84.95  33.1086  29.7675 i
 85  20.5379  29.7616 i
 85.05  28.5753  29.7558 i
 85.1  27.8534  29.7499 i
 85.15  28.2325  29.7441 i
 85.2  26.573  29.7383 i
 85.25  25.9598  29.7326 i
 85.3  33.2355  29.7268 i
 85.35  32.4848  29.7211 i
 85.4  18.2391  29.7154 i
 85.45  31.7226  29.7097 i
 85.5  33.3978  29.704 i
 85.55  40.9085  29.6984 i
 85.6  29.5176  29.6927 i
 85.65  24.173  29.6871 i
 85.7  29.7253  29.6815 i
 85.75  35.3358  29.676 i
 85.8  33.8175  29.6704 i
 85.85  26.8919  29.6649 i
 85.9  18.4857  29.6594 i
 85.95  26.4386  29.654 i
 86  40.3429  29.6485 i
 86.05  28.8887  29.6431 i
 86.1  37.9128  29.6377 i
 86.15  27.7644  29.6323 i
 86.2  26.2653  29.627 i
 86.25  23.7301  29.6217 i
 86.3  30.9844  29.6164 i
 86.35  33.5106  29.6111 i
 86.4  38.3874  29.6058 i
 86.45  25.5161  29.6006 i
 86.5  31.684  29.5954 i
 86.55  31.9667  29.5902 i
 86.6  33.8411  29.5851 i
 86.65  35.2442  29.58 i
 86.7  27.1768  29.5749 i
 86.75  23.1391  29.5698 i
 86.8  31.8265  29.5648 i
 86.85  32.4849  29.5598 i
 86.9  20.1206  29.5548 i
 86.95  21.9158  29.5498 i
 87  27.2503  29.5449 i
 87.05  29.6437  29.54 i
 87.1  27.9675  29.5351 i
 87.15  33.5611  29.5303 i
 87.2  36.5537  29.5254 i
 87.25  43.6533  29.5206 i
 87.3  37.1998  29.5159 i
 87.35  31.0698  29.5112 i
 87.4  24.9694  29.5065 i
 87.45  26.1157  29.5018 i
 87.5  33.8027  29.4971 i
 87.55  33.9555  29.4925 i
 87.6  39.3619  29.4879 i
 87.65  43.4963  29.4834 i
 87.7  32.0786  29.4789 i
 87.75  32.7088  29.4744 i
 87.8  19.1188  29.4699 i
 87.85  27.0428  29.4655 i
 87.9  22.5853  29.4611 i
 87.95  37.2368  29.4567 i
 88  31.3493  29.4524 i
 88.05  26.5622  29.4481 i
 88.1  28.1449  29.4438 i
 88.15  34.8607  29.4396 i
 88.2  18.2041  29.4354 i
 88.25  22.1264  29.4312 i
 88.3  22.4529  29.4271 i
 88.35  28.4671  29.423 i
 88.4  30.8991  29.4189 i
 88.45  35.3744  29.4149 i
 88.5  32.1532  29.4109 i
 88.55  34.7205  29.4069 i
 88.6  28.3794  29.403 i
 88.65  43.218  29.3991 i
 88.7  35.0098  29.3952 i
 88.75  29.7989  29.3914 i
 88.8  28.5269  29.3876 i
 88.85  29.15  29.3839 i
 88.9  32.7601  29.3802 i
 88.95  29.8263  29.3765 i
 89  32.3781  29.3728 i
 89.05  23.4663  29.3692 i
 89.1  26.1254  29.3656 i
 89.15  28.7908  29.3621 i
 89.2  32.7226  29.3586 i
 89.25  37.838  29.3551 i
 89.3  36.0746  29.3517 i
 89.35  32.5603  29.3483 i
 89.4  35.6182  29.345 i
 89.45  24.947  29.3417 i
 89.5  27.7455  29.3384 i
 89.55  33.1479  29.3352 i
 89.6  25.5686  29.332 i
 89.65  32.5261  29.3288 i
 89.7  23.5601  29.3257 i
 89.75  32.9739  29.3226 i
 89.8  28.6079  29.3196 i
 89.85  27.0227  29.3166 i
 89.9  28.2734  29.3136 i
 89.95  30.0552  29.3107 i
 90  31.0868  29.3078 i
 90.05  34.7105  29.305 i
 90.1  27.7266  29.3022 i
 90.15  27.2002  29.2995 i
 90.2  32.0719  29.2967 i
 90.25  32.6457  29.294 i
 90.3  24.5172  29.2914 i
 90.35  26.4209  29.2888 i
 90.4  32.9744  29.2862 i
 90.45  32.9103  29.2836 i
 90.5  32.1484  29.2811 i
 90.55  36.5445  29.2786 i
 90.6  29.1974  29.2761 i
 90.65  34.3247  29.2737 i
 90.7  25.3025  29.2713 i
 90.75  35.0903  29.2689 i
 90.8  21.2491  29.2666 i
 90.85  34.6258  29.2642 i
 90.9  33.3813  29.262 i
 90.95  29.0649  29.2597 i
 91  23.8316  29.2575 i
 91.05  33.0797  29.2553 i
 91.1  21.7368  29.2531 i
 91.15  33.3115  29.251 i
 91.2  34.8539  29.2489 i
 91.25  34.3252  29.2468 i
 91.3  31.5315  29.2447 i
 91.35  28.2996  29.2427 i
 91.4  22.5308  29.2407 i
 91.45  28.3899  29.2388 i
 91.5  26.12  29.2368 i
 91.55  31.8768  29.2349 i
 91.6  35.757  29.233 i
 91.65  30.9978  29.2312 i
 91.7  31.5693  29.2294 i
 91.75  36.4004  29.2276 i
 91.8  25.299  29.2258 i
 91.85  29.5212  29.224 i
 91.9  27.9936  29.2223 i
 91.95  19.9982  29.2206 i
 92  39.5915  29.219 i
 92.05  37.6918  29.2174 i
 92.1  46.804  29.2157 i
 92.15  31.5593  29.2142 i
 92.2  29.0668  29.2126 i
 92.25  25.9438  29.2111 i
 92.3  22.9548  29.2096 i
 92.35  28.1215  29.2081 i
 92.4  24.8385  29.2067 i
 92.45  30.5696  29.2052 i
 92.5  29.5751  29.2038 i
 92.55  26.0049  29.2025 i
 92.6  34.779  29.2011 i
 92.65  30.6093  29.1998 i
 92.7  28.4161  29.1985 i
 92.75  23.6228  29.1972 i
 92.8  32.8559  29.196 i
 92.85  18.7353  29.1948 i
 92.9  24.2247  29.1936 i
 92.95  24.2396  29.1924 i
 93  33.7933  29.1912 i
 93.05  28.4672  29.1901 i
 93.1  25.7424  29.189 i
 93.15  39.8344  29.1879 i
 93.2  41.7251  29.1869 i
 93.25  33.8838  29.1858 i
 93.3  20.3238  29.1848 i
 93.35  39.0933  29.1838 i
 93.4  39.6545  29.1829 i
 93.45  31.4443  29.1819 i
 93.5  22.1367  29.181 i
 93.55  35.4016  29.1801 i
 93.6  32.367  29.1793 i
 93.65  31.6115  29.1784 i
 93.7  23.2938  29.1776 i
 93.75  36.6327  29.1768 i
 93.8  26.9603  29.176 i
 93.85  33.4111  29.1752 i
 93.9  32.1916  29.1745 i
 93.95  23.6816  29.1738 i
 94  22.3576  29.1731 i
 94.05  14.2573  29.1724 i
 94.1  36.2526  29.1718 i
 94.15  23.5148  29.1711 i
 94.2  27.3396  29.1705 i
 94.25  21.6574  29.1699 i
 94.3  11.1114  29.1693 i
 94.35  28.2  29.1688 i
 94.4  21.7662  29.1683 i
 94.45  22.9934  29.1677 i
 94.5  35.3522  29.1673 i
 94.55  34.1056  29.1668 i
 94.6  27.5891  29.1663 i
 94.65  30.4366  29.1659 i
 94.7  26.55  29.1655 i
 94.75  24.0293  29.1651 i
 94.8  34.61  29.1647 i
 94.85  34.6214  29.1644 i
 94.9  39.0814  29.164 i
 94.95  25.1538  29.1637 i
 95  25.0339  29.1634 i
 95.05  28.9421  29.1631 i
 95.1  35.1291  29.1629 i
 95.15  47.416  29.1626 i
 95.2  37.6808  29.1624 i
 95.25  36.8447  29.1622 i
 95.3  32.1807  29.162 i
 95.35  23.962  29.1618 i
 95.4  29.0775  29.1617 i
 95.45  33.0651  29.1615 i
 95.5  29.8733  29.1614 i
 95.55  26.3085  29.1613 i
 95.6  32.9095  29.1612 i
 95.65  28.0736  29.1611 i
 95.7  28.6124  29.1611 i
 95.75  25.2239  29.161 i
 95.8  25.3985  29.161 i
 95.85  26.5845  29.161 i
 95.9  27.8283  29.161 i
 95.95  27.9558  29.1611 i
 96  27.1601  29.1611 i
 96.05  38.2449  29.1612 i
 96.1  30.4586  29.1612 i
 96.15  32.6296  29.1613 i
 96.2  26.6025  29.1614 i
 96.25  25.663  29.1615 i
 96.3  32.515  29.1617 i
 96.35  29.7612  29.1618 i
 96.4  23.1198  29.162 i
 96.45  28.7171  29.1622 i
 96.5  29.3429  29.1624 i
 96.55  37.4551  29.1626 i
 96.6  30.5773  29.1628 i
 96.65  23.3588  29.163 i
 96.7  23.6464  29.1633 i
 96.75  22.1826  29.1635 i
 96.8  37.0544  29.1638 i
 96.85  17.2752  29.1641 i
 96.9  34.6712  29.1644 i
 96.95  23.9084  29.1647 i
 97  31.8038  29.165 i
 97.05  36.9129  29.1654 i
 97.1  34.7624  29.1657 i
 97.15  30.0266  29.1661 i
 97.2  23.2935  29.1665 i
 97.25  35.8004  29.1668 i
 97.3  34.6959  29.1672 i
 97.35  25.1129  29.1677 i
 97.4  34.7971  29.1681 i
 97.45  25.3042  29.1685 i
 97.5  31.5845  29.169 i
 97.55  31.759  29.1694 i
 97.6  31.0632  29.1699 i
 97.65  27.5842  29.1704 i
 97.7  29.4484  29.1709 i
 97.75  32.3644  29.1714 i
 97.8  31.3061  29.1719 i
 97.85  30.7992  29.1724 i
 97.9  34.3891  29.1729 i
 97.95  35.5614  29.1735 i
 98  34.8409  29.174 i
 98.05  33.5251  29.1746 i
 98.1  25.1117  29.1752 i
 98.15  31.9201  29.1758 i
 98.2  40.1169  29.1764 i
 98.25  40.5001  29.177 i
 98.3  52.5817  29.1776 i
 98.35  55.6758  29.1782 i
 98.4  66.8974  29.1788 i
 98.45  105.07  29.1795 i
 98.5  140.058  29.1801 i
 98.55  175.927  29.1808 i
 98.6  124.981  29.1814 i
 98.65  78.9094  29.1821 i
 98.7  67.3591  29.1828 i
 98.75  60.397  29.1835 i
 98.8  44.582  29.1842 i
 98.85  50.7703  29.1849 i
 98.9  30.3798  29.1856 i
 98.95  31.6021  29.1863 i
 99  34.9539  29.1871 i
 99.05  39.018  29.1878 i
 99.1  34.8669  29.1885 i
 99.15  41.057  29.1893 i
 99.2  28.0278  29.19 i
 99.25  31.3766  29.1908 i
 99.3  26.3333  29.1916 i
 99.35  26.3873  29.1923 i
 99.4  21.0773  29.1931 i
 99.45  33.1438  29.1939 i
 99.5  27.754  29.1947 i
 99.55  29.6985  29.1955 i
 99.6  22.0912  29.1963 i
 99.65  27.2464  29.1971 i
 99.7  25.2434  29.1979 i
 99.75  30.7856  29.1988 i
 99.8  22.4339  29.1996 i
 99.85  29.7073  29.2004 i
 99.9  37.9878  29.2013 i
 99.95  21.5245  29.2021 i
 100  32.5901  29.2029 i
 100.05  26.4881  29.2038 i
 100.1  39.8879  29.2046 i
 100.15  18.799  29.2055 i
 100.2  38.7486  29.2064 i
 100.25  31.1408  29.2072 i
 100.3  30.4901  29.2081 i
 100.35  34.3874  29.209 i
 100.4  37.1859  29.2098 i
 100.45  30.8524  29.2107 i
 100.5  19.4891  29.2116 i
 100.55  29.7992  29.2125 i
 100.6  29.5376  29.2134 i
 100.65  38.5564  29.2143 i
 100.7  26.0956  29.2152 i
 100.75  30.077  29.216 i
 100.8  33.9837  29.2169 i
 100.85  28.92  29.2178 i
 100.9  30.2278  29.2187 i
 100.95  20.721  29.2196 i
 101  44.2365  29.2206 i
 101.05  31.1806  29.2215 i
 101.1  25.4367  29.2224 i
 101.15  35.9524  29.2233 i
 101.2  24.3647  29.2242 i
 101.25  37.0395  29.2251 i
 101.3  21.6718  29.226 i
 101.35  24.2423  29.2269 i
 101.4  25.386  29.2278 i
 101.45  21.7505  29.2287 i
 101.5  27.2492  29.2297 i
 101.55  38.5018  29.2306 i
 101.6  36.5708  29.2315 i
 101.65  37.2841  29.2324 i
 101.7  25.2846  29.2333 i
 101.75  24.9797  29.2342 i
 101.8  25.1967  29.2351 i
 101.85  34.3481  29.236 i
 101.9  33.5737  29.237 i
 101.95  32.4348  29.2379 i
 102  34.7724  29.2388 i
 102.05  30.7786  29.2397 i
 102.1  32.737  29.2406 i
 102.15  32.5963  29.2415 i
 102.2  32.7667  29.2424 i
 102.25  30.983  29.2433 i
 102.3  31.636  29.2442 i
 102.35  33.2615  29.2451 i
 102.4  32.4789  29.246 i
 102.45  28.5972  29.2469 i
 102.5  23.7894  29.2478 i
 102.55  28.892  29.2487 i
 102.6  35.679  29.2495 i
 102.65  26.7693  29.2504 i
 102.7  33.8185  29.2513 i
 102.75  38.3506  29.2522 i
 102.8  27.3771  29.253 i
 102.85  30.0602  29.2539 i
 102.9  31.7875  29.2548 i
 102.95  33.0824  29.2556 i
 103  31.8736  29.2565 i
 103.05  21.8845  29.2573 i
 103.1  27.4534  29.2582 i
 103.15  31.5434  29.259 i
 103.2  32.2463  29.2599 i
 103.25  32.3499  29.2607 i
 103.3  18.6494  29.2615 i
 103.35  20.5561  29.2624 i
 103.4  32.3493  29.2632 i
 103.45  26.0413  29.264 i
 103.5  23.9911  29.2648 i
 103.55  34.7135  29.2656 i
 103.6  29.2608  29.2664 i
 103.65  34.1333  29.2672 i
 103.7  38.7488  29.268 i
 103.75  35.9899  29.2688 i
 103.8  30.1687  29.2695 i
 103.85  32.7026  29.2703 i
 103.9  39.3515  29.2711 i
 103.95  48.0144  29.2718 i
 104  37.6419  29.2726 i
 104.05  15.9377  29.2733 i
 104.1  25.586  29.2741 i
 104.15  33.564  29.2748 i
 104.2  32.0031  29.2755 i
 104.25  20.575  29.2762 i
 104.3  20.9624  29.2769 i
 104.35  34.4827  29.2776 i
 104.4  22.4969  29.2783 i
 104.45  19.6457  29.279 i
 104.5  20.6385  29.2797 i
 104.55  22.1473  29.2803 i
 104.6  29.5891  29.281 i
 104.65  26.4528  29.2816 i
 104.7  31.227  29.2823 i
 104.75  25.4134  29.2829 i
 104.8  29.553  29.2835 i
 104.85  33.5917  29.2841 i
 104.9  35.6404  29.2847 i
 104.95  38.1513  29.2853 i
 105  17.4229  29.2859 i
 105.05  26.3802  29.2865 i
 105.1  30.2428  29.287 i
 105.15  22.5184  29.2876 i
 105.2  34.3408  29.2881 i
 105.25  33.9516  29.2887 i
 105.3  32.682  29.2892 i
 105.35  25.4462  29.2897 i
 105.4  22.1952  29.2902 i
 105.45  32.4641  29.2907 i
 105.5  27.3729  29.2912 i
 105.55  19.501  29.2917 i
 105.6  30.3324  29.2921 i
 105.65  29.5065  29.2926 i
 105.7  24.1368  29.293 i
 105.75  33.5259  29.2934 i
 105.8  32.6632  29.2938 i
 105.85  36.7617  29.2942 i
 105.9  37.1938  29.2946 i
 105.95  25.1088  29.295 i
 106  35.4103  29.2954 i
 106.05  33.8242  29.2957 i
 106.1  24.1971  29.296 i
 106.15  28.8274  29.2964 i
 106.2  38.1589  29.2967 i
 106.25  33.5459  29.297 i
 106.3  27.7102  29.2973 i
 106.35  29.4368  29.2975 i
 106.4  23.6995  29.2978 i
 106.45  27.606  29.298 i
 106.5  28.4322  29.2983 i
 106.55  32.9829  29.2985 i
 106.6  29.5384  29.2987 i
 106.65  35.5387  29.2989 i
 106.7  28.4787  29.2991 i
 106.75  32.4815  29.2992 i
 106.8  24.8706  29.2994 i
 106.85  19.2335  29.2995 i
 106.9  39.6625  29.2996 i
 106.95  29.3213  29.2997 i
 107  19.7891  29.2998 i
 107.05  28.7354  29.2999 i
 107.1  26.2722  29.2999 i
 107.15  27.1405  29.3 i
 107.2  29.0902  29.3 i
 107.25  26.0423  29.3 i
 107.3  26.2778  29.3 i
 107.35  29.0888  29.3 i
 107.4  23.5974  29.3 i
 107.45  38.2277  29.3 i
 107.5  25.2132  29.3 i
 107.55  32.4266  29.3 i
 107.6  27.7157  29.3 i
 107.65  25.45  29.3 i
 107.7  39.1217  29.3 i
 107.75  25.6466  29.3 i
 107.8  31.588  29.3 i
 107.85  18.2417  29.3 i
 107.9  31.6963  29.3 i
 107.95  24.7599  29.3 i
 108  21.5108  29.3 i
 108.05  28.2925  29.3 i
 108.1  20.9918  29.3 i
 108.15  26.6509  29.3 i
 108.2  28.9761  29.3 i
 108.25  36.9865  29.3 i
 108.3  30.554  29.3 i
 108.35  32.425  29.3 i
 108.4  23.23  29.3 i
 108.45  30.4698  29.3 i
 108.5  27.7777  29.3 i
 108.55  25.3884  29.3 i
 108.6  29.2568  29.3 i
 108.65  44.1959  29.3 i
 108.7  28.1159  29.3 i
 108.75  26.9375  29.3 i
 108.8  26.3677  29.3 i
 108.85  35.1585  29.3 i
 108.9  34.549  29.3 i
 108.95  32.5542  29.3 i
 109  30.4306  29.3 i
 109.05  29.6172  29.3 i
 109.1  41.2361  29.3 i
 109.15  26.785  29.3 i
 109.2  28.785  29.3 i
 109.25  27.7244  29.3 i
 109.3  28.5075  29.3 i
 109.35  26.3159  29.3 i
 109.4  28.7932  29.3 i
 109.45  31.5751  29.3 i
 109.5  20.1884  29.3 i
 109.55  34.6361  29.3 i
 109.6  23.0819  29.3 i
 109.65  36.4489  29.3 i
 109.7  26.3469  29.3 i
 109.75  29.9928  29.3 i
 109.8  27.3955  29.3 i
 109.85  27.3207  29.3 i
 109.9  30.6427  29.3 i
 109.95  25.844  29.3 i
 110  32.7367  29.3 i
 110.05  27.2068  29.3 i
 110.1  34.2568  29.3 i
 110.15  30.4998  29.3 i
 110.2  40.1329  29.3 i
 110.25  35.3972  29.3 i
 110.3  29.5647  29.3 i
 110.35  25.3247  29.3 i
 110.4  33.8593  29.3 i
 110.45  24.3176  29.3 i
 110.5  32.6181  29.3 i
 110.55  32.6052  29.3 i
 110.6  29.3357  29.3 i
 110.65  23.0304  29.3 i
 110.7  26.5956  29.3 i
 110.75  31.5991  29.3 i
 110.8  37.2452  29.3 i
 110.85  29.9987  29.3 i
 110.9  31.9794  29.3 i
 110.95  31.9909  29.3 i
 111  30.5229  29.3 i
 111.05  25.705  29.3 i
 111.1  32.3494  29.3 i
 111.15  36.5235  29.3 i
 111.2  34.3702  29.3 i
 111.25  38.8492  29.3 i
 111.3  34.7199  29.3 i
 111.35  25.0712  29.3 i
 111.4  31.2118  29.3 i
 111.45  21.3679  29.3 i
 111.5  36.5971  29.3 i
 111.55  21.9348  29.3 i
 111.6  21.879  29.3 i
 111.65  28.2208  29.3 i
 111.7  38.1389  29.3 i
 111.75  40.358  29.3 i
 111.8  27.8999  29.3 i
 111.85  25.6966  29.3 i
 111.9  34.5748  29.3 i
 111.95  25.4319  29.3 i
 112  26.132  29.3 i
 112.05  37.2597  29.3 i
 112.1  38.269  29.3 i
 112.15  31.7621  29.3 i
 112.2  32.4425  29.3 i
 112.25  23.3376  29.3 i
 112.3  30.2204  29.3 i
 112.35  26.9403  29.3 i
 112.4  51.0823  29.3 i
 112.45  22.7681  29.3 i
 112.5  23.1995  29.3 i
 112.55  38.6487  29.3 i
 112.6  38.9082  29.3 i
 112.65  32.1542  29.3 i
 112.7  38.3343  29.3 i
 112.75  29.503  29.3 i
 112.8  22.4385  29.3 i
 112.85  33.1307  29.3 i
 112.9  32.7779  29.3 i
 112.95  26.2154  29.3 i
 113  29.489  29.3 i
 113.05  32.293  29.3 i
 113.1  35.0495  29.3 i
 113.15  28.5349  29.3 i
 113.2  32.5121  29.3 i
 113.25  30.0063  29.3 i
 113.3  27.0924  29.3 i
 113.35  20.9648  29.3 i
 113.4  25.8692  29.3 i
 113.45  42.423  29.3 i
 113.5  24.18  29.3 i
 113.55  26.1144  29.3 i
 113.6  36.8168  29.3 i
 113.65  26.8806  29.3 i
 113.7  27.934  29.3 i
 113.75  22.5404  29.3 i
 113.8  23.8665  29.3 i
 113.85  35.2897  29.3 i
 113.9  34.3286  29.3 i
 113.95  25.77  29.3 i
 114  39.0861  29.3 i
 114.05  22.6829  29.3 i
 114.1  29.5767  29.3 i
 114.15  31.5716  29.3 i
 114.2  32.0833  29.3 i
 114.25  31.8068  29.3 i
 114.3  27.611  29.3 i
 114.35  32.1388  29.3 i
 114.4  34.7947  29.3 i
 114.45  31.1168  29.3 i
 114.5  25.6644  29.3 i
 114.55  31.4533  29.3 i
 114.6  30.7991  29.3 i
 114.65  35.6384  29.3 i
 114.7  38.6374  29.3 i
 114.75  31.127  29.3 i
 114.8  37.0925  29.3 i
 114.85  25.61  29.3 i
 114.9  32.1896  29.3 i
 114.95  28.8473  29.3 i
 115  29.9559  29.3 i
 115.05  22.18  29.3 i
 115.1  30.2283  29.3 i
 115.15  29.1344  29.3 i
 115.2  39.4083  29.3 i
 115.25  31.0756  29.3 i
 115.3  33.7175  29.3 i
 115.35  38.8076  29.3 i
 115.4  36.5851  29.3 i
 115.45  43.736  29.3 i
 115.5  26.36  29.3 i
 115.55  42.5467  29.3 i
 115.6  50.3045  29.3 i
 115.65  48.7972  29.3 i
 115.7  81.6289  29.3 i
 115.75  59.6668  29.3 i
 115.8  79.537  29.3 i
 115.85  118.773  29.3 i
 115.9  117.868  29.3 i
 115.95  118.453  29.3 i
 116  97.9417  29.3 i
 116.05  78.6555  29.3 i
 116.1  75.7502  29.3 i
 116.15  66.8134  29.3 i
 116.2  54.7843  29.3 i
 116.25  50.6683  29.3 i
 116.3  40.1655  29.3 i
 116.35  37.0197  29.3 i
 116.4  36.8351  29.3 i
 116.45  43.6271  29.3 i
 116.5  27.0601  29.3 i
 116.55  29.3246  29.3 i
 116.6  31.6559  29.3 i
 116.65  37.3441  29.3 i
 116.7  40.0224  29.3 i
 116.75  32.9829  29.3 i
 116.8  47.599  29.3 i
 116.85  30.645  29.3 i
 116.9  24.4831  29.3 i
 116.95  26.8137  29.3 i
 117  30.7409  29.3 i
 117.05  30.6035  29.3 i
 117.1  30.5007  29.3 i
 117.15  32.5554  29.3 i
 117.2  31.9489  29.3 i
 117.25  36.8209  29.3 i
 117.3  31.8863  29.3 i
 117.35  37.6551  29.3 i
 117.4  26.8922  29.3 i
 117.45  30.3955  29.3 i
 117.5  30.0522  29.3 i
 117.55  30.2407  29.3 i
 117.6  32.76  29.3 i
 117.65  34.2159  29.3 i
 117.7  32.4775  29.3 i
 117.75  27.6555  29.3 i
 117.8  32.3531  29.3 i
 117.85  28.4245  29.3 i
 117.9  18.7661  29.3 i
 117.95  30.9669  29.3 i
 118  40.1264  29.3 i
 118.05  21.9773  29.3 i
 118.1  20.599  29.3 i
 118.15  36.296  29.3 i
 118.2  32.9171  29.3 i
 118.25  24.7816  29.3 i
 118.3  28.3492  29.3 i
 118.35  29.3031  29.3 i
 118.4  32.5036  29.3 i
 118.45  25.8929  29.3 i
 118.5  29.3929  29.3 i
 118.55  27.1206  29.3 i
 118.6  34.9137  29.3 i
 118.65  22.7281  29.3 i
 118.7  35.572  29.3 i
 118.75  36.2941  29.3 i
 118.8  33.0311  29.3 i
 118.85  31.8484  29.3 i
 118.9  31.3093  29.3 i
 118.95  40.6078  29.3 i
 119  33.4851  29.3 i
 119.05  29.0245  29.3 i
 119.1  23.9239  29.3 i
 119.15  29.9586  29.3 i
 119.2  28.6507  29.3 i
 119.25  29.4759  29.3 i
 119.3  26.5076  29.3 i
 119.35  27.932  29.3 i
 119.4  27.7192  29.3 i
 119.45  23.3509  29.3 i
 119.5  33.0925  29.3 i
 119.55  30.2559  29.3 i
 119.6  28.5345  29.3 i
 119.65  26.3521  29.3 i
 119.7  22.4829  29.3 i
 119.75  34.8537  29.3 i
 119.8  32.9997  29.3 i
 119.85  34.5723  29.3 i
 119.9  34.6407  29.3 i
 119.95  24.6449  29.3 i
 120  39.1985  29.3 i
 120.05  33.3772  29.3 i
 120.1  37.9316  29.3 i
 120.15  27.3005  29.3 i
 120.2  27.4978  29.3 i
 120.25  30.3002  29.3 i
 120.3  33.4444  29.3 i
 120.35  28.4562  29.3 i
 120.4  38.0309  29.3 i
 120.45  33.6388  29.3 i
 120.5  29.0511  29.3 i
 120.55  21.2014  29.3 i
 120.6  26.6108  29.3 i
 120.65  24.9989  29.3 i
 120.7  26.5246  29.3 i
 120.75  22.7669  29.3 i
 120.8  42.3334  29.3 i
 120.85  37.6536  29.3 i
 120.9  29.8654  29.3 i
 120.95  26.4353  29.3 i
 121  26.8155  29.3 i
 121.05  44.9809  29.3 i
 121.1  35.206  29.3 i
 121.15  27.7988  29.3 i
 121.2  36.7021  29.3 i
 121.25  29.29  29.3 i
 121.3  32.0285  29.3 i
 121.35  33.889  29.3 i
 121.4  31.2136  29.3 i
 121.45  26.5511  29.3 i
 121.5  25.1497  29.3 i
 121.55  38.8632  29.3 i
 121.6  44.4125  29.3 i
 121.65  28.0878  29.3 i
 121.7  32.2661  29.3 i
 121.75  29.424  29.3 i
 121.8  29.885  29.3 i
 121.85  35.0721  29.3 i
 121.9  30.2715  29.3 i
 121.95  21.4592  29.3 i
 122  30.7368  29.3 i
 122.05  29.3197  29.3 i
 122.1  37.0467  29.3 i
 122.15  19.681  29.3 i
 122.2  30.4989  29.3 i
 122.25  32.8165  29.3 i
 122.3  34.8788  29.3 i
 122.35  29.5657  29.3 i
 122.4  33.2383  29.3 i
 122.45  42.5742  29.3 i
 122.5  27.1564  29.3 i
 122.55  27.7533  29.3 i
 122.6  30.9128  29.3 i
 122.65  30.5675  29.3 i
 122.7  31.2515  29.3 i
 122.75  26.3238  29.3 i
 122.8  28.0293  29.3 i
 122.85  25.5636  29.3 i
 122.9  46.1468  29.3 i
 122.95  32.4829  29.3 i
 123  30.2539  29.3 i
 123.05  29.9116  29.3 i
 123.1  38.3605  29.3 i
 123.15  28.1795  29.3 i
 123.2  28.3684  29.3 i
 123.25  29.1823  29.3 i
 123.3  42.0389  29.3 i
 123.35  24.7085  29.3 i
 123.4  38.0185  29.3 i
 123.45  32.3702  29.3 i
 123.5  23.0795  29.3 i
 123.55  39.3804  29.3 i
 123.6  34.1784  29.3 i
 123.65  32.3548  29.3 i
 123.7  32.372  29.3 i
 123.75  30.006  29.3 i
 123.8  34.8678  29.3 i
 123.85  24.8403  29.3 i
 123.9  28.0043  29.3 i
 123.95  31.1734  29.3 i
 124  34.5366  29.3 i
 124.05  37.3425  29.3 i
 124.1  36.8934  29.3 i
 124.15  28.5125  29.3 i
 124.2  26.7123  29.3 i
 124.25  49.4963  29.3 i
 124.3  26.2446  29.3 i
 124.35  28.3712  29.3 i
 124.4  24.7766  29.3 i
 124.45  34.9616  29.3 i
 124.5  26.1426  29.3 i
 124.55  26.3881  29.3 i
 124.6  35.5784  29.3 i
 124.65  20.5573  29.3 i
 124.7  26.5227  29.3 i
 124.75  30.8597  29.3 i
 124.8  33.9256  29.3 i
 124.85  29.3943  29.3 i
 124.9  29.4041  29.3 i
 124.95  31.4155  29.3 i
 125  21.2664  29.3 i
 125.05  24.3132  29.3 i
 125.1  21.0193  29.3 i
 125.15  22.6168  29.3 i
 125.2  32.4528  29.3 i
 125.25  28.2  29.3 i
 125.3  29.2764  29.3 i
 125.35  36.2151  29.3 i
 125.4  31.4621  29.3 i
 125.45  31.9341  29.3 i
 125.5  47.0042  29.3 i
 125.55  31.2487  29.3 i
 125.6  28.7831  29.3 i
 125.65  32.6405  29.3 i
 125.7  42.2271  29.3 i
 125.75  27.4742  29.3 i
 125.8  44.9212  29.3 i
 125.85  30.3358  29.3 i
 125.9  44.5841  29.3 i
 125.95  31.9933  29.3 i
 126  27.0746  29.3 i
 126.05  32.9694  29.3 i
 126.1  25.4394  29.3 i
 126.15  26.7009  29.3 i
 126.2  32.8819  29.3 i
 126.25  35.6089  29.3 i
 126.3  24.312  29.3 i
 126.35  24.9526  29.3 i
 126.4  27.5941  29.3 i
 126.45  29.5325  29.3 i
 126.5  39.9807  29.3 i
 126.55  30.2274  29.3 i
 126.6  29.551  29.3 i
 126.65  32.089  29.3 i
 126.7  21.7262  29.3 i
 126.75  23.6816  29.3 i
 126.8  31.9586  29.3 i
 126.85  32.8372  29.3 i
 126.9  33.4053  29.3 i
 126.95  26.2389  29.3 i
 127  31.7487  29.3 i
 127.05  24.59  29.3 i
 127.1  25.4384  29.3 i
 127.15  32.6896  29.3 i
 127.2  29.3681  29.3 i
 127.25  38.8861  29.3 i
 127.3  32.1382  29.3 i
 127.35  28.2513  29.3 i
 127.4  31.2711  29.3 i
 127.45  34.1163  29.3 i
 127.5  38.7481  29.3 i
 127.55  35.4632  29.3 i
 127.6  30.6704  29.3 i
 127.65  29.2236  29.3 i
 127.7  22.8906  29.3 i
 127.75  34.8772  29.3 i
 127.8  29.6889  29.3 i
 127.85  29.0443  29.3 i
 127.9  40.5936  29.3 i
 127.95  34.3862  29.3 i
 128  34.3648  29.3 i
 128.05  33.6678  29.3 i
 128.1  32.4002  29.3 i
 128.15  37.7174  29.3 i
 128.2  35.8854  29.3 i
 128.25  35.9539  29.3 i
 128.3  37.2212  29.3 i
 128.35  35.9703  29.3 i
 128.4  19.4698  29.3 i
 128.45  31.3226  29.3 i
 128.5  26.3337  29.3 i
 128.55  24.4643  29.3 i
 128.6  26.8446  29.3 i
 128.65  33.8231  29.3 i
 128.7  28.4809  29.3 i
 128.75  32.5702  29.3 i
 128.8  35.9139  29.3 i
 128.85  23.025  29.3 i
 128.9  27.5975  29.3 i
 128.95  25.8937  29.3 i
 129  28.8063  29.3 i
 129.05  34.7675  29.3 i
 129.1  25.3985  29.3 i
 129.15  41.8985  29.3 i
 129.2  32.076  29.3 i
 129.25  28.9487  29.3 i
 129.3  20.2371  29.3 i
 129.35  29.2615  29.3 i
 129.4  26.7746  29.3 i
 129.45  29.2315  29.3 i
 129.5  30.6221  29.3 i
 129.55  27.3163  29.3 i
 129.6  35.591  29.3 i
 129.65  26.1667  29.3 i
 129.7  41.1347  29.3 i
 129.75  22.7818  29.3 i
 129.8  35.7748  29.3 i
 129.85  29.1626  29.3 i
 129.9  36.2798  29.3 i
 129.95  26.1066  29.3 i
 130  30.292  29.3 i

