
#Surface 0 of 1 surfaces

#IsoCurve 0, 1801 points
#x y z type
 40  32.8095  34.4264 i
 40.05  40.6882  34.4188 i
 40.1  41.7609  34.4113 i
 40.15  26.3189  34.4119 i
 40.2  32.33  34.4125 i
 40.25  50.5719  34.4061 i
 40.3  33.7172  34.3997 i
 40.35  34.3699  34.3986 i
 40.4  46.0312  34.3974 i
 40.45  44.3343  34.3942 i
 40.5  43.3847  34.3909 i
 40.55  57.5706  34.3832 i
 40.6  47.5483  34.3826 i
 40.65  37.3836  34.383 i
 40.7  41.309  34.3834 i
 40.75  39.391  34.3768 i
 40.8  46.2649  34.3702 i
 40.85  25.5095  34.3729 i
 40.9  39.0008  34.3757 i
 40.95  53.503  34.3702 i
 41  32.6666  34.3623 i
 41.05  42.0479  34.3647 i
 41.1  32.3173  34.367 i
 41.15  45.9824  34.3633 i
 41.2  43.9077  34.3595 i
 41.25  36.4939  34.3591 i
 41.3  40.1126  34.3587 i
 41.35  27.5702  34.3599 i
 41.4  51.9872  34.361 i
 41.45  42.2894  34.3536 i
 41.5  48.6126  34.3536 i
 41.55  50.3441  34.3614 i
 41.6  40.2758  34.3652 i
 41.65  45.9989  34.3603 i
 41.7  34.8588  34.3554 i
 41.75  42.9304  34.3632 i
 41.8  35.3736  34.3711 i
 41.85  40.0042  34.369 i
 41.9  41.1497  34.3669 i
 41.95  49.0183  34.3682 i
 42  47.6068  34.3801 i
 42.05  38.4398  34.3849 i
 42.1  33.3927  34.3897 i
 42.15  42.5414  34.3935 i
 42.2  31.3685  34.3972 i
 42.25  38.2851  34.4107 i
 42.3  37.4214  34.4242 i
 42.35  32.2043  34.4272 i
 42.4  35.5602  34.4301 i
 42.45  36.2267  34.4511 i
 42.5  47.758  34.4721 i
 42.55  44.71  34.4806 i
 42.6  41.5702  34.4891 i
 42.65  34.2013  34.515 i
 42.7  35.1044  34.5409 i
 42.75  37.6059  34.5638 i
 42.8  45.6207  34.5868 i
 42.85  43.3374  34.6178 i
 42.9  36.7306  34.6489 i
 42.95  35.0842  34.6968 i
 43  39.6317  34.7448 i
 43.05  42.1473  34.7948 i
 43.1  37.1083  34.8448 i
 43.15  34.604  35.0165 i
 43.2  52.5529  35.1882 i
 43.25  42.1982  35.5945 i
 43.3  46.1459  35.7901 i
 43.35  44.3601  35.9818 i
 43.4  47.4114  36.209 i
 43.45  43.5859  36.4699 i
 43.5  40.4399  36.7308 i
 43.55  35.7216  37.1092 i
 43.6  47.2207  37.4876 i
 43.65  40.7898  38.0683 i
 43.7  45.4777  38.6489 i
 43.75  38.7311  39.5568 i
 43.8  39.7284  40.4647 i
 43.85  52.8494  41.8643 i
 43.9  41.133  43.7756 i
 43.95  46.9411  46.4694 i
 44  53.2641  50.5332 i
 44.05  59.3574  57.59 i
 44.1  80.8262  70.2258 i
 44.15  83.5984  101.79 i
 44.2  138.312  196.274 i
 44.25  392.567  470.771 i
 44.3  1190.74  1080.77 i
 44.35  2145.92  1942.37 i
 44.4  2204.15  2410.2 i
 44.45  1394.93  1468.33 i
 44.5  463.959  402.717 i
 44.55  157.52  144.521 i
 44.6  94.1035  84.8889 i
 44.65  61.0503  63.6049 i
 44.7  43.9344  52.6728 i
 44.75  47.2426  47.0041 i
 44.8  48.1024  43.5935 i
 44.85  46.7701  41.3838 i
 44.9  46.5079  39.8436 i
 44.95  29.5209  38.8637 i
 45  37.0064  37.8838 i
 45.05  49.5887  37.2734 i
 45.1  45.0633  36.8003 i
 45.15  44.5612  36.4329 i
 45.2  38.333  36.0654 i
 45.25  43.8622  35.8346 i
 45.3  36.7745  35.6037 i
 45.35  37.8658  35.4337 i
 45.4  39.7006  35.2637 i
 45.45  41.8151  35.1328 i
 45.5  33.5472  35.002 i
 45.55  25.607  34.893 i
 45.6  33.733  34.784 i
 45.65  36.9708  34.6572 i
 45.7  29.5818  34.5304 i
 45.75  39.005  34.483 i
 45.8  37.3798  34.4355 i
 45.85  28.0447  34.3815 i
 45.9  38.8193  34.3274 i
 45.95  38.9153  34.2934 i
 46  36.9279  34.2595 i
 46.05  36.5368  34.2277 i
 46.1  36.4881  34.1959 i
 46.15  31.3719  34.1641 i
 46.2  40.9421  34.1324 i
 46.25  39.1949  34.1154 i
 46.3  37.0945  34.0985 i
 46.35  41.6502  34.0693 i
 46.4  32.6853  34.0401 i
 46.45  42.6253  34.0291 i
 46.5  25.3648  34.018 i
 46.55  45.401  33.9955 i
 46.6  37.5131  33.973 i
 46.65  30.7922  33.9606 i
 46.7  38.6547  33.9482 i
 46.75  31.8535  33.9347 i
 46.8  41.9196  33.9212 i
 46.85  24.3745  33.9051 i
 46.9  25.0565  33.8889 i
 46.95  31.3316  33.8825 i
 47  45.1946  33.876 i
 47.05  30.2516  33.8587 i
 47.1  35.6161  33.8413 i
 47.15  35.1168  33.8368 i
 47.2  33.1966  33.8324 i
 47.25  48.7644  33.8182 i
 47.3  37.9666  33.8041 i
 47.35  34.7067  33.7969 i
 47.4  41.7956  33.7896 i
 47.45  51.4594  33.7857 i
 47.5  46.5129  33.7731 i
 47.55  34.283  33.7618 i
 47.6  36.1432  33.7505 i
 47.65  25.9586  33.7469 i
 47.7  32.5646  33.7433 i
 47.75  22.4306  33.7304 i
 47.8  44.7657  33.7174 i
 47.85  34.0758  33.7147 i
 47.9  35.7483  33.7119 i
 47.95  34.0369  33.7013 i
 48  31.6065  33.6906 i
 48.05  38.823  33.685 i
 48.1  47.8501  33.6793 i
 48.15  35.7316  33.6732 i
 48.2  33.6557  33.6671 i
 48.25  33.0001  33.6577 i
 48.3  38.8091  33.6484 i
 48.35  27.2095  33.6458 i
 48.4  37.9883  33.6433 i
 48.45  35.979  33.6325 i
 48.5  35.5586  33.6217 i
 48.55  29.8559  33.6193 i
 48.6  45.3092  33.617 i
 48.65  29.0571  33.6082 i
 48.7  31.1843  33.5995 i
 48.75  43.2607  33.5942 i
 48.8  22.58  33.589 i
 48.85  39.1604  33.5842 i
 48.9  43.1046  33.5793 i
 48.95  29.663  33.5708 i
 49  35.183  33.5622 i
 49.05  39.0215  33.5607 i
 49.1  43.2118  33.5592 i
 49.15  33.3918  33.5494 i
 49.2  49.0793  33.5396 i
 49.25  31.6463  33.5374 i
 49.3  29.2862  33.5352 i
 49.35  24.694  33.5276 i
 49.4  38.7589  33.52 i
 49.45  29.2544  33.5147 i
 49.5  36.2015  33.5095 i
 49.55  37.0152  33.5055 i
 49.6  39.7352  33.5016 i
 49.65  29.7691  33.4933 i
 49.7  37.481  33.485 i
 49.75  34.5997  33.4832 i
 49.8  37.754  33.4815 i
 49.85  38.4657  33.4727 i
 49.9  39.6662  33.4638 i
 49.95  35.5276  33.4612 i
 50  37.3379  33.4586 i
 50.05  30.345  33.4521 i
 50.1  26.3471  33.4456 i
 50.15  23.3114  33.44 i
 50.2  43.3025  33.4344 i
 50.25  39.2168  33.4312 i
 50.3  32.3981  33.428 i
 50.35  27.3571  33.4198 i
 50.4  48.0676  33.4116 i
 50.45  26.5145  33.4099 i
 50.5  35.1156  33.4082 i
 50.55  34.3133  33.4001 i
 50.6  38.7004  33.3921 i
 50.65  36.3927  33.3889 i
 50.7  37.8988  33.3858 i
 50.75  34.1165  33.3803 i
 50.8  36.6776  33.3748 i
 50.85  20.9379  33.3687 i
 50.9  31.0603  33.3626 i
 50.95  30.6636  33.36 i
 51  34.8075  33.3574 i
 51.05  35.2659  33.3493 i
 51.1  39.2092  33.3413 i
 51.15  29.6438  33.3394 i
 51.2  46.4067  33.3375 i
 51.25  34.9846  33.3302 i
 51.3  28.5279  33.323 i
 51.35  31.5353  33.3191 i
 51.4  36.8404  33.3152 i
 51.45  43.7637  33.3108 i
 51.5  47.0029  33.3063 i
 51.55  27.7008  33.2996 i
 51.6  31.9783  33.2929 i
 51.65  36.6541  33.2908 i
 51.7  38.2949  33.2886 i
 51.75  26.6975  33.2808 i
 51.8  36.6174  33.273 i
 51.85  39.9145  33.2706 i
 51.9  32.4187  33.2683 i
 51.95  31.3784  33.262 i
 52  39.8243  33.2557 i
 52.05  26.6894  33.251 i
 52.1  29.6065  33.2462 i
 52.15  37.836  33.2427 i
 52.2  27.6758  33.2392 i
 52.25  27.6075  33.2321 i
 52.3  31.0522  33.2249 i
 52.35  40.1136  33.2229 i
 52.4  34.8713  33.2209 i
 52.45  26.5819  33.2136 i
 52.5  30.5678  33.2063 i
 52.55  30.6045  33.2032 i
 52.6  25.0134  33.2001 i
 52.65  34.6604  33.1949 i
 52.7  36.1657  33.1897 i
 52.75  32.0806  33.184 i
 52.8  34.6946  33.1783 i
 52.85  35.4098  33.1756 i
 52.9  29.5094  33.1729 i
 52.95  25.0831  33.1656 i
 53  21.2101  33.1582 i
 53.05  32.87  33.156 i
 53.1  33.3932  33.1538 i
 53.15  32.1565  33.1473 i
 53.2  36.9451  33.1407 i
 53.25  29.0111  33.1367 i
 53.3  33.6221  33.1326 i
 53.35  28.3306  33.1285 i
 53.4  26.2754  33.1245 i
 53.45  30.2799  33.118 i
 53.5  28.5839  33.1115 i
 53.55  26.7327  33.1092 i
 53.6  25.6763  33.107 i
 53.65  24.6621  33.0998 i
 53.7  22.5367  33.0927 i
 53.75  36.6427  33.0898 i
 53.8  32.288  33.087 i
 53.85  34.0382  33.0816 i
 53.9  28.2444  33.0762 i
 53.95  45.5052  33.0709 i
 54  26.5973  33.0656 i
 54.05  35.1395  33.0627 i
 54.1  36.4222  33.0597 i
 54.15  33.84  33.0527 i
 54.2  39.2608  33.0456 i
 54.25  25.6917  33.0434 i
 54.3  38.4453  33.0411 i
 54.35  41.3684  33.0346 i
 54.4  32.8489  33.0282 i
 54.45  30.9127  33.0242 i
 54.5  17.7951  33.0203 i
 54.55  30.5149  33.0162 i
 54.6  30.8413  33.0121 i
 54.65  36.2659  33.0058 i
 54.7  37.4733  32.9995 i
 54.75  27.2901  32.9971 i
 54.8  25.4278  32.9948 i
 54.85  31.0922  32.9878 i
 54.9  33.1259  32.9808 i
 54.95  25.5753  32.9779 i
 55  33.8071  32.975 i
 55.05  31.0447  32.9697 i
 55.1  28.6293  32.9645 i
 55.15  34.2096  32.9592 i
 55.2  28.7767  32.9539 i
 55.25  30.3111  32.951 i
 55.3  34.1279  32.9481 i
 55.35  22.0723  32.9412 i
 55.4  32.3227  32.9342 i
 55.45  27.3187  32.9319 i
 55.5  26.6508  32.9295 i
 55.55  30.7094  32.9233 i
 55.6  33.9447  32.9171 i
 55.65  38.0892  32.9129 i
 55.7  31.0691  32.9088 i
 55.75  30.7844  32.905 i
 55.8  20.095  32.9012 i
 55.85  39.0051  32.8947 i
 55.9  38.8235  32.8883 i
 55.95  36.3211  32.886 i
 56  31.0978  32.8837 i
 56.05  32.1917  32.8769 i
 56.1  33.5586  32.8702 i
 56.15  37.7483  32.8669 i
 56.2  35.4374  32.8637 i
 56.25  30.5939  32.8589 i
 56.3  30.444  32.8542 i
 56.35  34.1279  32.8485 i
 56.4  28.1789  32.8428 i
 56.45  29.8384  32.8402 i
 56.5  33.8738  32.8376 i
 56.55  33.6288  32.8307 i
 56.6  28.1772  32.8237 i
 56.65  26.8478  32.8211 i
 56.7  41.6741  32.8185 i
 56.75  34.8706  32.8128 i
 56.8  34.7819  32.8072 i
 56.85  20.6756  32.8024 i
 56.9  33.4084  32.7976 i
 56.95  37.83  32.7944 i
 57  40.1081  32.7912 i
 57.05  28.9264  32.7845 i
 57.1  24.2763  32.7777 i
 57.15  27.3354  32.7754 i
 57.2  33.405  32.7731 i
 57.25  31.2197  32.7668 i
 57.3  30.0479  32.7606 i
 57.35  32.9353  32.7566 i
 57.4  29.9539  32.7525 i
 57.45  37.6449  32.7487 i
 57.5  40.4288  32.7448 i
 57.55  38.097  32.7384 i
 57.6  32.721  32.7321 i
 57.65  41.4696  32.7298 i
 57.7  24.3259  32.7275 i
 57.75  33.9219  32.7208 i
 57.8  28.2423  32.7142 i
 57.85  26.0667  32.7109 i
 57.9  33.4522  32.7075 i
 57.95  29.7894  32.7029 i
 58  35.2334  32.6984 i
 58.05  32.6186  32.6926 i
 58.1  27.469  32.6868 i
 58.15  31.5788  32.6843 i
 58.2  33.1775  32.6818 i
 58.25  36.5115  32.6749 i
 58.3  29.0276  32.6681 i
 58.35  32.3164  32.6653 i
 58.4  22.7806  32.6625 i
 58.45  22.8232  32.6573 i
 58.5  43.3491  32.652 i
 58.55  21.7028  32.6468 i
 58.6  26.6112  32.6416 i
 58.65  34.6359  32.6388 i
 58.7  27.8155  32.636 i
 58.75  35.4755  32.6292 i
 58.8  29.4073  32.6223 i
 58.85  30.7699  32.6199 i
 58.9  30.3599  32.6174 i
 58.95  34.2424  32.6117 i
 59  29.7757  32.6059 i
 59.05  28.4216  32.6013 i
 59.1  33.8073  32.5967 i
 59.15  29.1029  32.5935 i
 59.2  41.9869  32.5903 i
 59.25  36.6039  32.5836 i
 59.3  40.5562  32.5768 i
 59.35  35.8112  32.5746 i
 59.4  37.7548  32.5724 i
 59.45  34.0503  32.5662 i
 59.5  27.0223  32.56 i
 59.55  22.6693  32.5559 i
 59.6  28.5806  32.5518 i
 59.65  30.7391  32.5412 i
 59.7  36.9574  32.5305 i
 59.75  37.5086  32.5256 i
 59.8  29.5289  32.5207 i
 59.85  30.8732  32.5167 i
 59.9  29.5648  32.5127 i
 59.95  30.3999  32.5077 i
 60  34.24  32.5027 i
 60.05  30.1642  32.4985 i
 60.1  35.7533  32.4942 i
 60.15  33.9229  32.4898 i
 60.2  22.1549  32.4854 i
 60.25  29.1428  32.4805 i
 60.3  24.2963  32.4756 i
 60.35  35.0478  32.4718 i
 60.4  31.1855  32.4679 i
 60.45  24.8213  32.4628 i
 60.5  24.0012  32.4578 i
 60.55  21.722  32.4537 i
 60.6  36.4496  32.4496 i
 60.65  31.0684  32.4451 i
 60.7  27.1536  32.4407 i
 60.75  35.7438  32.4358 i
 60.8  31.4977  32.431 i
 60.85  35.4255  32.4272 i
 60.9  37.1516  32.4234 i
 60.95  37.5106  32.4184 i
 61  22.5203  32.4133 i
 61.05  30.0659  32.4094 i
 61.1  33.8898  32.4054 i
 61.15  27.9715  32.401 i
 61.2  26.2376  32.3966 i
 61.25  29.5348  32.3918 i
 61.3  27.5226  32.3871 i
 61.35  34.3228  32.3835 i
 61.4  36.0162  32.3799 i
 61.45  41.8521  32.3748 i
 61.5  27.6923  32.3698 i
 61.55  44.7228  32.3661 i
 61.6  34.704  32.3624 i
 61.65  24.3879  32.358 i
 61.7  28.8028  32.3537 i
 61.75  34.8319  32.3492 i
 61.8  31.9677  32.3446 i
 61.85  40.7269  32.3413 i
 61.9  30.7378  32.3379 i
 61.95  29.9762  32.333 i
 62  34.1608  32.3281 i
 62.05  32.7391  32.3248 i
 62.1  28.8445  32.3214 i
 62.15  34.6749  32.3174 i
 62.2  24.3593  32.3134 i
 62.25  32.2712  32.3092 i
 62.3  35.6898  32.3049 i
 62.35  34.3387  32.3022 i
 62.4  31.275  32.2995 i
 62.45  26.2131  32.295 i
 62.5  31.1881  32.2904 i
 62.55  27.3456  32.2879 i
 62.6  33.729  32.2854 i
 62.65  15.1703  32.2822 i
 62.7  33.1497  32.279 i
 62.75  36.4138  32.2756 i
 62.8  39.9282  32.2723 i
 62.85  33.0167  32.2711 i
 62.9  34.7475  32.2699 i
 62.95  34.756  32.2667 i
 63  38.6224  32.2636 i
 63.05  30.073  32.2633 i
 63.1  31.109  32.2629 i
 63.15  32.2361  32.2627 i
 63.2  30.2574  32.2625 i
 63.25  25.1663  32.2632 i
 63.3  20.0534  32.2638 i
 63.35  31.507  32.2715 i
 63.4  32.4217  32.2793 i
 63.45  33.311  32.3021 i
 63.5  38.7023  32.3249 i
 63.55  25.3026  32.3551 i
 63.6  31.3165  32.3853 i
 63.65  42.537  32.4102 i
 63.7  28.599  32.4351 i
 63.75  34.5703  32.4664 i
 63.8  32.0585  32.4978 i
 63.85  40.7887  32.5495 i
 63.9  30.3573  32.6012 i
 63.95  21.267  32.6781 i
 64  39.6988  32.7551 i
 64.05  29.4747  32.8894 i
 64.1  41.7243  33.0237 i
 64.15  29.348  33.2763 i
 64.2  29.032  33.5289 i
 64.25  32.4251  34.0741 i
 64.3  31.3294  34.6194 i
 64.35  37.3869  36.1445 i
 64.4  52.6063  37.6697 i
 64.45  43.5261  41.497 i
 64.5  54.5873  49.6588 i
 64.55  71.8198  67.2056 i
 64.6  95.7471  99.7934 i
 64.65  147.172  142.209 i
 64.7  143.17  166.425 i
 64.75  146.525  144.567 i
 64.8  110.841  97.0474 i
 64.85  61.2702  62.7092 i
 64.9  48.4399  46.6267 i
 64.95  44.6754  39.7335 i
 65  28.8759  36.5498 i
 65.05  43.3262  35.2774 i
 65.1  40.8427  34.0051 i
 65.15  31.0228  33.5528 i
 65.2  38.8475  33.1006 i
 65.25  28.8715  32.8924 i
 65.3  23.9282  32.6842 i
 65.35  31.8711  32.572 i
 65.4  29.0861  32.4597 i
 65.45  30.0581  32.3938 i
 65.5  34.0982  32.3279 i
 65.55  33.9777  32.2817 i
 65.6  33.1103  32.2355 i
 65.65  33.6556  32.2046 i
 65.7  31.269  32.1736 i
 65.75  25.3012  32.1489 i
 65.8  33.5548  32.1242 i
 65.85  27.8991  32.0971 i
 65.9  28.574  32.07 i
 65.95  35.8912  32.0486 i
 66  40.2616  32.0271 i
 66.05  30.2492  32.0131 i
 66.1  34.0659  31.9991 i
 66.15  24.1911  31.9888 i
 66.2  29.5415  31.9785 i
 66.25  32.3935  31.9701 i
 66.3  30.1299  31.9618 i
 66.35  31.6793  31.9527 i
 66.4  30.3959  31.9437 i
 66.45  31.5952  31.9369 i
 66.5  30.3447  31.9301 i
 66.55  33.2434  31.9229 i
 66.6  38.8516  31.9156 i
 66.65  30.2676  31.9086 i
 66.7  28.5017  31.9015 i
 66.75  19.0604  31.8959 i
 66.8  35.2528  31.8902 i
 66.85  26.0749  31.8833 i
 66.9  26.5897  31.8765 i
 66.95  18.4592  31.8704 i
 67  20.7575  31.8652 i
 67.05  22.3358  31.8595 i
 67.1  29.9516  31.8539 i
 67.15  22.3857  31.8476 i
 67.2  27.9839  31.8414 i
 67.25  30.2497  31.8364 i
 67.3  38.2852  31.8314 i
 67.35  34.2007  31.8256 i
 67.4  37.2847  31.8197 i
 67.45  36.0969  31.8142 i
 67.5  20.5105  31.8088 i
 67.55  27.8202  31.8038 i
 67.6  30.3019  31.7988 i
 67.65  29.7986  31.793 i
 67.7  31.4794  31.7871 i
 67.75  26.0345  31.7822 i
 67.8  30.0404  31.7773 i
 67.85  32.4864  31.772 i
 67.9  33.2225  31.7668 i
 67.95  39.5497  31.7613 i
 68  29.7614  31.7558 i
 68.05  32.1448  31.7511 i
 68.1  34.205  31.7464 i
 68.15  31.8531  31.7408 i
 68.2  34.843  31.7353 i
 68.25  33.0112  31.7303 i
 68.3  39.3336  31.7253 i
 68.35  32.306  31.7204 i
 68.4  35.6245  31.7155 i
 68.45  33.0939  31.71 i
 68.5  37.0905  31.7045 i
 68.55  34.9457  31.6998 i
 68.6  35.3693  31.6951 i
 68.65  30.0402  31.6899 i
 68.7  31.009  31.6846 i
 68.75  37.9271  31.6794 i
 68.8  45.2408  31.6743 i
 68.85  25.2565  31.6696 i
 68.9  29.8637  31.6649 i
 68.95  33.5099  31.6595 i
 69  23.4381  31.654 i
 69.05  24.7011  31.6492 i
 69.1  33.0489  31.6444 i
 69.15  41.8592  31.6394 i
 69.2  31.302  31.6345 i
 69.25  24.955  31.6291 i
 69.3  36.8526  31.6238 i
 69.35  41.4621  31.6192 i
 69.4  24.7531  31.6146 i
 69.45  24.0327  31.6093 i
 69.5  24.1144  31.604 i
 69.55  34.1912  31.599 i
 69.6  31.6096  31.5939 i
 69.65  33.6265  31.5892 i
 69.7  36.2511  31.5845 i
 69.75  25.0342  31.5791 i
 69.8  28.2581  31.5737 i
 69.85  27.0396  31.5689 i
 69.9  29.5746  31.5642 i
 69.95  28.9202  31.5592 i
 70  32.1023  31.5542 i
 70.05  37.6829  31.5489 i
 70.1  38.5431  31.5436 i
 70.15  35.2325  31.539 i
 70.2  29.2141  31.5344 i
 70.25  33.049  31.5291 i
 70.3  26.9976  31.5237 i
 70.35  34.7301  31.5188 i
 70.4  32.7333  31.5139 i
 70.45  27.3366  31.5091 i
 70.5  37.0838  31.5043 i
 70.55  42.2821  31.4989 i
 70.6  32.4815  31.4934 i
 70.65  38.7101  31.4888 i
 70.7  25.3116  31.4841 i
 70.75  21.9016  31.479 i
 70.8  29.577  31.4739 i
 70.85  29.4128  31.4686 i
 70.9  32.0864  31.4634 i
 70.95  26.6492  31.4588 i
 71  25.4033  31.4542 i
 71.05  36.5147  31.4488 i
 71.1  38.0788  31.4433 i
 71.15  37.3702  31.4385 i
 71.2  35.3704  31.4336 i
 71.25  27.0172  31.4287 i
 71.3  30.1131  31.4239 i
 71.35  27.5509  31.4184 i
 71.4  30.2825  31.413 i
 71.45  38.3375  31.4084 i
 71.5  35.5068  31.4038 i
 71.55  26.1223  31.3985 i
 71.6  26.8028  31.3933 i
 71.65  29.7564  31.3881 i
 71.7  26.0009  31.3829 i
 71.75  39.2484  31.3783 i
 71.8  33.1188  31.3736 i
 71.85  31.6005  31.3681 i
 71.9  31.688  31.3626 i
 71.95  21.3137  31.3578 i
 72  27.0891  31.353 i
 72.05  26.7844  31.3481 i
 72.1  24.1061  31.3431 i
 72.15  42.7356  31.3377 i
 72.2  38.9412  31.3322 i
 72.25  31.6194  31.3276 i
 72.3  28.5195  31.323 i
 72.35  35.9262  31.3177 i
 72.4  37.1682  31.3124 i
 72.45  29.138  31.3071 i
 72.5  30.462  31.3019 i
 72.55  33.721  31.2973 i
 72.6  36.2425  31.2927 i
 72.65  42.0683  31.2871 i
 72.7  40.3335  31.2815 i
 72.75  28.4626  31.2767 i
 72.8  34.1511  31.2718 i
 72.85  25.2855  31.2669 i
 72.9  36.7955  31.2619 i
 72.95  26.8767  31.2564 i
 73  31.0377  31.2508 i
 73.05  33.8779  31.2463 i
 73.1  42.7294  31.2417 i
 73.15  39.1383  31.2363 i
 73.2  26.0051  31.2309 i
 73.25  29.264  31.2257 i
 73.3  33.9172  31.2204 i
 73.35  26.1984  31.2158 i
 73.4  36.5357  31.2112 i
 73.45  31.7784  31.2055 i
 73.5  25.5004  31.1999 i
 73.55  28.5828  31.195 i
 73.6  34.0311  31.1902 i
 73.65  26.5168  31.1852 i
 73.7  28.6854  31.1803 i
 73.75  28.9308  31.1746 i
 73.8  24.7864  31.169 i
 73.85  28.2544  31.1644 i
 73.9  30.7223  31.1598 i
 73.95  35.0867  31.1544 i
 74  33.3259  31.1491 i
 74.05  36.1568  31.1437 i
 74.1  25.9354  31.1383 i
 74.15  31.6347  31.1338 i
 74.2  44.2284  31.1292 i
 74.25  38.3471  31.1235 i
 74.3  28.5777  31.1178 i
 74.35  29.0792  31.1128 i
 74.4  34.6723  31.1079 i
 74.45  22.0468  31.103 i
 74.5  32.9033  31.0981 i
 74.55  26.4591  31.0923 i
 74.6  28.8698  31.0864 i
 74.65  33.2409  31.0818 i
 74.7  26.8615  31.0771 i
 74.75  23.2069  31.0716 i
 74.8  33.8808  31.0661 i
 74.85  32.4833  31.0604 i
 74.9  25.8164  31.0547 i
 74.95  29.7948  31.05 i
 75  29.8402  31.0453 i
 75.05  37.1528  31.0392 i
 75.1  42.6646  31.0332 i
 75.15  24.5313  31.0278 i
 75.2  36.9823  31.0225 i
 75.25  38.567  31.0174 i
 75.3  34.8385  31.0123 i
 75.35  27.7497  31.006 i
 75.4  29.4477  30.9997 i
 75.45  28.7616  30.9947 i
 75.5  28.8569  30.9896 i
 75.55  36.416  30.984 i
 75.6  32.216  30.9783 i
 75.65  29.3742  30.9721 i
 75.7  31.6498  30.9658 i
 75.75  38.3506  30.9609 i
 75.8  27.9466  30.956 i
 75.85  35.2522  30.9497 i
 75.9  31.7027  30.9435 i
 75.95  30.6807  30.9376 i
 76  36.9304  30.9316 i
 76.05  30.5761  30.9265 i
 76.1  40.0557  30.9214 i
 76.15  25.7037  30.9148 i
 76.2  27.9233  30.9081 i
 76.25  22.5955  30.9026 i
 76.3  24.2763  30.8971 i
 76.35  23.7351  30.8915 i
 76.4  28.6926  30.8859 i
 76.45  31.0425  30.8792 i
 76.5  36.7097  30.8724 i
 76.55  21.498  30.8673 i
 76.6  24.6282  30.8621 i
 76.65  38.8337  30.8559 i
 76.7  29.7593  30.8497 i
 76.75  34.5999  30.8432 i
 76.8  25.5487  30.8367 i
 76.85  38.3758  30.8316 i
 76.9  27.4042  30.8265 i
 76.95  25.4069  30.8197 i
 77  28.0915  30.8129 i
 77.05  25.7078  30.8069 i
 77.1  22.9585  30.8009 i
 77.15  29.2498  30.7956 i
 77.2  33.7749  30.7902 i
 77.25  28.5813  30.7831 i
 77.3  34.3145  30.776 i
 77.35  33.5933  30.7705 i
 77.4  29.742  30.765 i
 77.45  30.2486  30.7592 i
 77.5  37.5245  30.7533 i
 77.55  46.6075  30.7462 i
 77.6  34.7187  30.7391 i
 77.65  22.2203  30.7341 i
 77.7  35.2264  30.729 i
 77.75  35.725  30.7225 i
 77.8  31.9111  30.716 i
 77.85  33.9423  30.7093 i
 77.9  30.72  30.7026 i
 77.95  32.1548  30.6977 i
 78  14.7  30.6928 i
 78.05  17.0275  30.6863 i
 78.1  23.7139  30.6787 i
 78.15  32.0725  30.6726 i
 78.2  30.5846  30.6666 i
 78.25  30.6304  30.6615 i
 78.3  37.6771  30.6565 i
 78.35  37.2759  30.6491 i
 78.4  21.4301  30.6417 i
 78.45  39.611  30.6365 i
 78.5  30.5158  30.6312 i
 78.55  35.0383  30.6257 i
 78.6  28.5973  30.6202 i
 78.65  25.8054  30.6129 i
 78.7  26.6825  30.6056 i
 78.75  37.9297  30.6011 i
 78.8  30.0217  30.5966 i
 78.85  35.2462  30.5905 i
 78.9  26.3993  30.5844 i
 78.95  23.5532  30.5777 i
 79  35.4603  30.5709 i
 79.05  25.733  30.567 i
 79.1  29.5214  30.5631 i
 79.15  32.4563  30.5565 i
 79.2  33.106  30.5499 i
 79.25  31.5452  30.5442 i
 79.3  37.0217  30.5385 i
 79.35  38.5571  30.5352 i
 79.4  31.9384  30.532 i
 79.45  33.6301  30.5253 i
 79.5  34.0742  30.5187 i
 79.55  30.9355  30.5146 i
 79.6  25.9518  30.5105 i
 79.65  35.2429  30.507 i
 79.7  29.6179  30.5034 i
 79.75  27.9188  30.4974 i
 79.8  25.7615  30.4913 i
 79.85  26.5696  30.489 i
 79.9  36.9713  30.4868 i
 79.95  24.8874  30.4839 i
 80  29.8629  30.4809 i
 80.05  25.7065  30.4765 i
 80.1  29.4916  30.4721 i
 80.15  33.0995  30.4726 i
 80.2  31.2647  30.4731 i
 80.25  32.6057  30.4719 i
 80.3  34.1919  30.4707 i
 80.35  27.3403  30.47 i
 80.4  29.4114  30.4694 i
 80.45  22.2075  30.4752 i
 80.5  40.1449  30.481 i
 80.55  32.7588  30.486 i
 80.6  27.5808  30.4911 i
 80.65  43.4474  30.5055 i
 80.7  36.0074  30.5199 i
 80.75  29.2687  30.5734 i
 80.8  34.636  30.6268 i
 80.85  35.2918  30.6922 i
 80.9  26.2795  30.7576 i
 80.95  26.4856  30.8134 i
 81  26.9395  30.8692 i
 81.05  40.8687  30.9464 i
 81.1  33.6419  31.0237 i
 81.15  22.2113  31.1311 i
 81.2  28.7859  31.2385 i
 81.25  29.9064  31.417 i
 81.3  34.6497  31.5955 i
 81.35  30.325  31.9043 i
 81.4  21.5729  32.213 i
 81.45  34.5984  32.7934 i
 81.5  27.707  33.3738 i
 81.55  30.8191  34.6928 i
 81.6  44.5116  36.0118 i
 81.65  31.6855  39.8441 i
 81.7  42.1954  43.6764 i
 81.75  60.6146  53.701 i
 81.8  89.7925  75.7919 i
 81.85  137.69  123.357 i
 81.9  194.638  203.734 i
 81.95  260.161  283.574 i
 82  254.034  287.969 i
 82.05  204.107  205.55 i
 82.1  118.862  118.554 i
 82.15  77.7442  71.1348 i
 82.2  70.9091  50.7347 i
 82.25  53.2715  41.9931 i
 82.3  48.6772  37.3505 i
 82.35  45.9897  34.9557 i
 82.4  29.5694  33.5421 i
 82.45  34.1888  32.8044 i
 82.5  44.4062  32.0668 i
 82.55  30.0597  31.712 i
 82.6  27.5031  31.3572 i
 82.65  25.4779  31.1536 i
 82.7  32.6956  30.95 i
 82.75  33.2279  30.83 i
 82.8  38.9131  30.71 i
 82.85  31.9996  30.6292 i
 82.9  35.6172  30.5485 i
 82.95  22.0346  30.4855 i
 83  32.3969  30.4224 i
 83.05  33.8844  30.3755 i
 83.1  33.3036  30.3286 i
 83.15  26.2334  30.2731 i
 83.2  30.1081  30.2177 i
 83.25  32.4281  30.1807 i
 83.3  24.1327  30.1438 i
 83.35  31.766  30.1252 i
 83.4  28.7669  30.1067 i
 83.45  34.473  30.0893 i
 83.5  40.326  30.072 i
 83.55  26.8521  30.0549 i
 83.6  40.6522  30.0377 i
 83.65  29.4825  30.0274 i
 83.7  44.4967  30.0171 i
 83.75  25.3902  30.0046 i
 83.8  22.03  29.992 i
 83.85  27.5828  29.9795 i
 83.9  26.5596  29.9669 i
 83.95  25.2766  29.9593 i
 84  34.0983  29.9518 i
 84.05  26.9567  29.9412 i
 84.1  20.3862  29.9306 i
 84.15  37.6622  29.9205 i
 84.2  37.0831  29.9104 i
 84.25  27.5837  29.9041 i
 84.3  32.5364  29.8979 i
 84.35  30.0902  29.8883 i
 84.4  30.5687  29.8787 i
 84.45  32.9979  29.8702 i
 84.5  32.7026  29.8616 i
 84.55  42.7132  29.856 i
 84.6  33.7599  29.8503 i
 84.65  30.1768  29.8413 i
 84.7  20.3154  29.8324 i
 84.75  28.6281  29.825 i
 84.8  26.0399  29.8175 i
 84.85  33.3453  29.8122 i
 84.9  32.7773  29.8068 i
 84.95  33.1086  29.7983 i
 85  20.5379  29.7897 i
 85.05  28.5753  29.7831 i
 85.1  27.8534  29.7766 i
 85.15  28.2325  29.7713 i
 85.2  26.573  29.7661 i
 85.25  25.9598  29.7579 i
 85.3  33.2355  29.7498 i
 85.35  32.4848  29.7438 i
 85.4  18.2391  29.7379 i
 85.45  31.7226  29.7327 i
 85.5  33.3978  29.7274 i
 85.55  40.9085  29.7197 i
 85.6  29.5176  29.7119 i
 85.65  24.173  29.7064 i
 85.7  29.7253  29.701 i
 85.75  35.3358  29.6958 i
 85.8  33.8175  29.6906 i
 85.85  26.8919  29.6831 i
 85.9  18.4857  29.6757 i
 85.95  26.4386  29.6706 i
 86  40.3429  29.6656 i
 86.05  28.8887  29.6604 i
 86.1  37.9128  29.6552 i
 86.15  27.7644  29.6481 i
 86.2  26.2653  29.641 i
 86.25  23.7301  29.6363 i
 86.3  30.9844  29.6316 i
 86.35  33.5106  29.6264 i
 86.4  38.3874  29.6212 i
 86.45  25.5161  29.6145 i
 86.5  31.684  29.6077 i
 86.55  31.9667  29.6033 i
 86.6  33.8411  29.5988 i
 86.65  35.2442  29.5937 i
 86.7  27.1768  29.5886 i
 86.75  23.1391  29.5821 i
 86.8  31.8265  29.5757 i
 86.85  32.4849  29.5715 i
 86.9  20.1206  29.5673 i
 86.95  21.9158  29.5623 i
 87  27.2503  29.5572 i
 87.05  29.6437  29.5511 i
 87.1  27.9675  29.5449 i
 87.15  33.5611  29.5409 i
 87.2  36.5537  29.537 i
 87.25  43.6533  29.532 i
 87.3  37.1998  29.5271 i
 87.35  31.0698  29.5212 i
 87.4  24.9694  29.5154 i
 87.45  26.1157  29.5116 i
 87.5  33.8027  29.5079 i
 87.55  33.9555  29.503 i
 87.6  39.3619  29.4982 i
 87.65  43.4963  29.4926 i
 87.7  32.0786  29.4871 i
 87.75  32.7088  29.4835 i
 87.8  19.1188  29.4799 i
 87.85  27.0428  29.4753 i
 87.9  22.5853  29.4706 i
 87.95  37.2368  29.4653 i
 88  31.3493  29.46 i
 88.05  26.5622  29.4566 i
 88.1  28.1449  29.4533 i
 88.15  34.8607  29.4488 i
 88.2  18.2041  29.4442 i
 88.25  22.1264  29.4392 i
 88.3  22.4529  29.4342 i
 88.35  28.4671  29.431 i
 88.4  30.8991  29.4279 i
 88.45  35.3744  29.4235 i
 88.5  32.1532  29.4192 i
 88.55  34.7205  29.4145 i
 88.6  28.3794  29.4097 i
 88.65  43.218  29.4067 i
 88.7  35.0098  29.4037 i
 88.75  29.7989  29.3996 i
 88.8  28.5269  29.3955 i
 88.85  29.15  29.391 i
 88.9  32.7601  29.3865 i
 88.95  29.8263  29.3837 i
 89  32.3781  29.381 i
 89.05  23.4663  29.3771 i
 89.1  26.1254  29.3732 i
 89.15  28.7908  29.369 i
 89.2  32.7226  29.3647 i
 89.25  37.838  29.3621 i
 89.3  36.0746  29.3595 i
 89.35  32.5603  29.3559 i
 89.4  35.6182  29.3523 i
 89.45  24.947  29.3483 i
 89.5  27.7455  29.3442 i
 89.55  33.1479  29.3419 i
 89.6  25.5686  29.3395 i
 89.65  32.5261  29.3362 i
 89.7  23.5601  29.3329 i
 89.75  32.9739  29.3291 i
 89.8  28.6079  29.3253 i
 89.85  27.0227  29.3231 i
 89.9  28.2734  29.321 i
 89.95  30.0552  29.3179 i
 90  31.0868  29.3149 i
 90.05  34.7105  29.3113 i
 90.1  27.7266  29.3078 i
 90.15  27.2002  29.3058 i
 90.2  32.0719  29.3039 i
 90.25  32.6457  29.3012 i
 90.3  24.5172  29.2984 i
 90.35  26.4209  29.2951 i
 90.4  32.9744  29.2917 i
 90.45  32.9103  29.2899 i
 90.5  32.1484  29.2881 i
 90.55  36.5445  29.2856 i
 90.6  29.1974  29.2832 i
 90.65  34.3247  29.28 i
 90.7  25.3025  29.2767 i
 90.75  35.0903  29.2751 i
 90.8  21.2491  29.2734 i
 90.85  34.6258  29.2713 i
 90.9  33.3813  29.2691 i
 90.95  29.0649  29.266 i
 91  23.8316  29.263 i
 91.05  33.0797  29.2614 i
 91.1  21.7368  29.2599 i
 91.15  33.3115  29.258 i
 91.2  34.8539  29.2561 i
 91.25  34.3252  29.2532 i
 91.3  31.5315  29.2503 i
 91.35  28.2996  29.2489 i
 91.4  22.5308  29.2474 i
 91.45  28.3899  29.2458 i
 91.5  26.12  29.2443 i
 91.55  31.8768  29.2415 i
 91.6  35.757  29.2388 i
 91.65  30.9978  29.2374 i
 91.7  31.5693  29.236 i
 91.75  36.4004  29.2347 i
 91.8  25.299  29.2335 i
 91.85  29.5212  29.2309 i
 91.9  27.9936  29.2284 i
 91.95  19.9982  29.227 i
 92  39.5915  29.2257 i
 92.05  37.6918  29.225 i
 92.1  46.804  29.2237 i
 92.15  31.5593  29.2214 i
 92.2  29.0668  29.219 i
 92.25  25.9438  29.2177 i
 92.3  22.9548  29.2163 i
 92.35  28.1215  29.2156 i
 92.4  24.8385  29.2149 i
 92.45  30.5696  29.2128 i
 92.5  29.5751  29.2107 i
 92.55  26.0049  29.2093 i
 92.6  34.779  29.208 i
 92.65  30.6093  29.2075 i
 92.7  28.4161  29.2071 i
 92.75  23.6228  29.2053 i
 92.8  32.8559  29.2034 i
 92.85  18.7353  29.202 i
 92.9  24.2247  29.2007 i
 92.95  24.2396  29.2004 i
 93  33.7933  29.2002 i
 93.05  28.4672  29.1987 i
 93.1  25.7424  29.1972 i
 93.15  39.8344  29.1958 i
 93.2  41.7251  29.1943 i
 93.25  33.8838  29.1943 i
 93.3  20.3238  29.1943 i
 93.35  39.0933  29.1931 i
 93.4  39.6545  29.1919 i
 93.45  31.4443  29.1909 i
 93.5  22.1367  29.1899 i
 93.55  35.4016  29.1898 i
 93.6  32.367  29.1898 i
 93.65  31.6115  29.1891 i
 93.7  23.2938  29.1885 i
 93.75  36.6327  29.1871 i
 93.8  26.9603  29.1856 i
 93.85  33.4111  29.1856 i
 93.9  32.1916  29.1856 i
 93.95  23.6816  29.1854 i
 94  22.3576  29.1852 i
 94.05  14.2573  29.1838 i
 94.1  36.2526  29.1825 i
 94.15  23.5148  29.1825 i
 94.2  27.3396  29.1824 i
 94.25  21.6574  29.1826 i
 94.3  11.1114  29.1828 i
 94.35  28.2  29.1817 i
 94.4  21.7662  29.1805 i
 94.45  22.9934  29.1804 i
 94.5  35.3522  29.1802 i
 94.55  34.1056  29.1808 i
 94.6  27.5891  29.1814 i
 94.65  30.4366  29.1806 i
 94.7  26.55  29.1797 i
 94.75  24.0293  29.1794 i
 94.8  34.61  29.1792 i
 94.85  34.6214  29.1801 i
 94.9  39.0814  29.1811 i
 94.95  25.1538  29.1806 i
 95  25.0339  29.1802 i
 95.05  28.9421  29.1798 i
 95.1  35.1291  29.1794 i
 95.15  47.416  29.1805 i
 95.2  37.6808  29.1819 i
 95.25  36.8447  29.182 i
 95.3  32.1807  29.1821 i
 95.35  23.962  29.1817 i
 95.4  29.0775  29.1812 i
 95.45  33.0651  29.1826 i
 95.5  29.8733  29.184 i
 95.55  26.3085  29.1849 i
 95.6  32.9095  29.1858 i
 95.65  28.0736  29.1854 i
 95.7  28.6124  29.1851 i
 95.75  25.2239  29.1866 i
 95.8  25.3985  29.1881 i
 95.85  26.5845  29.1898 i
 95.9  27.8283  29.1915 i
 95.95  27.9558  29.1916 i
 96  27.1601  29.1917 i
 96.05  38.2449  29.1932 i
 96.1  30.4586  29.1948 i
 96.15  32.6296  29.1976 i
 96.2  26.6025  29.2003 i
 96.25  25.663  29.2013 i
 96.3  32.515  29.2022 i
 96.35  29.7612  29.204 i
 96.4  23.1198  29.2058 i
 96.45  28.7171  29.2098 i
 96.5  29.3429  29.2139 i
 96.55  37.4551  29.2165 i
 96.6  30.5773  29.2191 i
 96.65  23.3588  29.2218 i
 96.7  23.6464  29.2244 i
 96.75  22.1826  29.2303 i
 96.8  37.0544  29.2361 i
 96.85  17.2752  29.2419 i
 96.9  34.6712  29.2476 i
 96.95  23.9084  29.2529 i
 97  31.8038  29.2583 i
 97.05  36.9129  29.2682 i
 97.1  34.7624  29.278 i
 97.15  30.0266  29.2917 i
 97.2  23.2935  29.3054 i
 97.25  35.8004  29.3246 i
 97.3  34.6959  29.3438 i
 97.35  25.1129  29.38 i
 97.4  34.7971  29.4163 i
 97.45  25.3042  29.4582 i
 97.5  31.5845  29.5 i
 97.55  31.759  29.5461 i
 97.6  31.0632  29.5923 i
 97.65  27.5842  29.6579 i
 97.7  29.4484  29.7235 i
 97.75  32.3644  29.8284 i
 97.8  31.3061  29.9333 i
 97.85  30.7992  30.1038 i
 97.9  34.3891  30.2743 i
 97.95  35.5614  30.5828 i
 98  34.8409  30.8914 i
 98.05  33.5251  31.5395 i
 98.1  25.1117  32.1875 i
 98.15  31.9201  33.7927 i
 98.2  40.1169  35.398 i
 98.25  40.5001  38.8745 i
 98.3  52.5817  45.2737 i
 98.35  55.6758  57.9083 i
 98.4  66.8974  79.0597 i
 98.45  105.07  111.343 i
 98.5  140.058  143.73 i
 98.55  175.927  155.045 i
 98.6  124.981  135.557 i
 98.65  78.9094  101.2 i
 98.7  67.3591  72.1368 i
 98.75  60.397  54.6324 i
 98.8  44.582  44.3056 i
 98.85  50.7703  38.8706 i
 98.9  30.3798  35.7427 i
 98.95  31.6021  34.1861 i
 99  34.9539  32.6295 i
 99.05  39.018  31.9459 i
 99.1  34.8669  31.2624 i
 99.15  41.057  30.916 i
 99.2  28.0278  30.5697 i
 99.25  31.3766  30.3699 i
 99.3  26.3333  30.1701 i
 99.35  26.3873  30.0447 i
 99.4  21.0773  29.9193 i
 99.45  33.1438  29.8382 i
 99.5  27.754  29.757 i
 99.55  29.6985  29.6963 i
 99.6  22.0912  29.6355 i
 99.65  27.2464  29.5741 i
 99.7  25.2434  29.5126 i
 99.75  30.7856  29.4573 i
 99.8  22.4339  29.402 i
 99.85  29.7073  29.3767 i
 99.9  37.9878  29.3513 i
 99.95  21.5245  29.3367 i
 100  32.5901  29.3221 i
 100.05  26.4881  29.3125 i
 100.1  39.8879  29.3029 i
 100.15  18.799  29.298 i
 100.2  38.7486  29.2931 i
 100.25  31.1408  29.2885 i
 100.3  30.4901  29.2839 i
 100.35  34.3874  29.279 i
 100.4  37.1859  29.2742 i
 100.45  30.8524  29.2721 i
 100.5  19.4891  29.2699 i
 100.55  29.7992  29.2686 i
 100.6  29.5376  29.2673 i
 100.65  38.5564  29.2646 i
 100.7  26.0956  29.2619 i
 100.75  30.077  29.2604 i
 100.8  33.9837  29.2589 i
 100.85  28.92  29.259 i
 100.9  30.2278  29.2591 i
 100.95  20.721  29.258 i
 101  44.2365  29.2569 i
 101.05  31.1806  29.2556 i
 101.1  25.4367  29.2544 i
 101.15  35.9524  29.2548 i
 101.2  24.3647  29.2553 i
 101.25  37.0395  29.2554 i
 101.3  21.6718  29.2556 i
 101.35  24.2423  29.2546 i
 101.4  25.386  29.2537 i
 101.45  21.7505  29.2539 i
 101.5  27.2492  29.2541 i
 101.55  38.5018  29.255 i
 101.6  36.5708  29.256 i
 101.65  37.2841  29.2556 i
 101.7  25.2846  29.2553 i
 101.75  24.9797  29.2544 i
 101.8  25.1967  29.2534 i
 101.85  34.3481  29.2548 i
 101.9  33.5737  29.2562 i
 101.95  32.4348  29.2562 i
 102  34.7724  29.2562 i
 102.05  30.7786  29.2559 i
 102.1  32.737  29.2556 i
 102.15  32.5963  29.2568 i
 102.2  32.7667  29.2581 i
 102.25  30.983  29.2589 i
 102.3  31.636  29.2598 i
 102.35  33.2615  29.2594 i
 102.4  32.4789  29.259 i
 102.45  28.5972  29.2598 i
 102.5  23.7894  29.2606 i
 102.55  28.892  29.2619 i
 102.6  35.679  29.2633 i
 102.65  26.7693  29.2633 i
 102.7  33.8185  29.2633 i
 102.75  38.3506  29.2635 i
 102.8  27.3771  29.2637 i
 102.85  30.0602  29.2651 i
 102.9  31.7875  29.2666 i
 102.95  33.0824  29.2672 i
 103  31.8736  29.2679 i
 103.05  21.8845  29.2678 i
 103.1  27.4534  29.2676 i
 103.15  31.5434  29.2687 i
 103.2  32.2463  29.2697 i
 103.25  32.3499  29.271 i
 103.3  18.6494  29.2722 i
 103.35  20.5561  29.2722 i
 103.4  32.3493  29.2722 i
 103.45  26.0413  29.2726 i
 103.5  23.9911  29.2731 i
 103.55  34.7135  29.2745 i
 103.6  29.2608  29.2759 i
 103.65  34.1333  29.2764 i
 103.7  38.7488  29.2769 i
 103.75  35.9899  29.2769 i
 103.8  30.1687  29.2769 i
 103.85  32.7026  29.2781 i
 103.9  39.3515  29.2792 i
 103.95  48.0144  29.2805 i
 104  37.6419  29.2813 i
 104.05  15.9377  29.2813 i
 104.1  25.586  29.2813 i
 104.15  33.564  29.2818 i
 104.2  32.0031  29.2823 i
 104.25  20.575  29.2837 i
 104.3  20.9624  29.285 i
 104.35  34.4827  29.2853 i
 104.4  22.4969  29.2857 i
 104.45  19.6457  29.2858 i
 104.5  20.6385  29.2858 i
 104.55  22.1473  29.2869 i
 104.6  29.5891  29.288 i
 104.65  26.4528  29.2889 i
 104.7  31.227  29.2898 i
 104.75  25.4134  29.2897 i
 104.8  29.553  29.2897 i
 104.85  33.5917  29.2902 i
 104.9  35.6404  29.2907 i
 104.95  38.1513  29.2918 i
 105  17.4229  29.293 i
 105.05  26.3802  29.2933 i
 105.1  30.2428  29.2936 i
 105.15  22.5184  29.2936 i
 105.2  34.3408  29.2936 i
 105.25  33.9516  29.2945 i
 105.3  32.682  29.2954 i
 105.35  25.4462  29.2962 i
 105.4  22.1952  29.297 i
 105.45  32.4641  29.2969 i
 105.5  27.3729  29.2968 i
 105.55  19.501  29.2971 i
 105.6  30.3324  29.2975 i
 105.65  29.5065  29.2985 i
 105.7  24.1368  29.2995 i
 105.75  33.5259  29.2997 i
 105.8  32.6632  29.2999 i
 105.85  36.7617  29.2998 i
 105.9  37.1938  29.2996 i
 105.95  25.1088  29.3004 i
 106  35.4103  29.3011 i
 106.05  33.8242  29.3018 i
 106.1  24.1971  29.3025 i
 106.15  28.8274  29.3022 i
 106.2  38.1589  29.302 i
 106.25  33.5459  29.3022 i
 106.3  27.7102  29.3023 i
 106.35  29.4368  29.3031 i
 106.4  23.6995  29.304 i
 106.45  27.606  29.3041 i
 106.5  28.4322  29.3042 i
 106.55  32.9829  29.3039 i
 106.6  29.5384  29.3036 i
 106.65  35.5387  29.3041 i
 106.7  28.4787  29.3045 i
 106.75  32.4815  29.3051 i
 106.8  24.8706  29.3057 i
 106.85  19.2335  29.3053 i
 106.9  39.6625  29.305 i
 106.95  29.3213  29.3049 i
 107  19.7891  29.3047 i
 107.05  28.7354  29.3053 i
 107.1  26.2722  29.3059 i
 107.15  27.1405  29.306 i
 107.2  29.0902  29.3061 i
 107.25  26.0423  29.3056 i
 107.3  26.2778  29.305 i
 107.35  29.0888  29.3052 i
 107.4  23.5974  29.3053 i
 107.45  38.2277  29.3059 i
 107.5  25.2132  29.3064 i
 107.55  32.4266  29.3061 i
 107.6  27.7157  29.3058 i
 107.65  25.45  29.3054 i
 107.7  39.1217  29.305 i
 107.75  25.6466  29.3055 i
 107.8  31.588  29.306 i
 107.85  18.2417  29.3062 i
 107.9  31.6963  29.3065 i
 107.95  24.7599  29.306 i
 108  21.5108  29.3055 i
 108.05  28.2925  29.3055 i
 108.1  20.9918  29.3054 i
 108.15  26.6509  29.306 i
 108.2  28.9761  29.3066 i
 108.25  36.9865  29.3065 i
 108.3  30.554  29.3064 i
 108.35  32.425  29.306 i
 108.4  23.23  29.3055 i
 108.45  30.4698  29.3058 i
 108.5  27.7777  29.3061 i
 108.55  25.3884  29.3066 i
 108.6  29.2568  29.307 i
 108.65  44.1959  29.3067 i
 108.7  28.1159  29.3063 i
 108.75  26.9375  29.3061 i
 108.8  26.3677  29.3058 i
 108.85  35.1585  29.3064 i
 108.9  34.549  29.3069 i
 108.95  32.5542  29.3071 i
 109  30.4306  29.3074 i
 109.05  29.6172  29.3069 i
 109.1  41.2361  29.3064 i
 109.15  26.785  29.3065 i
 109.2  28.785  29.3065 i
 109.25  27.7244  29.3071 i
 109.3  28.5075  29.3078 i
 109.35  26.3159  29.3077 i
 109.4  28.7932  29.3076 i
 109.45  31.5751  29.3072 i
 109.5  20.1884  29.3068 i
 109.55  34.6361  29.3071 i
 109.6  23.0819  29.3075 i
 109.65  36.4489  29.308 i
 109.7  26.3469  29.3086 i
 109.75  29.9928  29.3083 i
 109.8  27.3955  29.308 i
 109.85  27.3207  29.3077 i
 109.9  30.6427  29.3075 i
 109.95  25.844  29.3081 i
 110  32.7367  29.3087 i
 110.05  27.2068  29.3091 i
 110.1  34.2568  29.3094 i
 110.15  30.4998  29.309 i
 110.2  40.1329  29.3085 i
 110.25  35.3972  29.3086 i
 110.3  29.5647  29.3086 i
 110.35  25.3247  29.3094 i
 110.4  33.8593  29.3101 i
 110.45  24.3176  29.3102 i
 110.5  32.6181  29.3103 i
 110.55  32.6052  29.3099 i
 110.6  29.3357  29.3095 i
 110.65  23.0304  29.3098 i
 110.7  26.5956  29.3102 i
 110.75  31.5991  29.3109 i
 110.8  37.2452  29.3117 i
 110.85  29.9987  29.3116 i
 110.9  31.9794  29.3115 i
 110.95  31.9909  29.3112 i
 111  30.5229  29.3109 i
 111.05  25.705  29.3116 i
 111.1  32.3494  29.3122 i
 111.15  36.5235  29.3129 i
 111.2  34.3702  29.3136 i
 111.25  38.8492  29.3134 i
 111.3  34.7199  29.3132 i
 111.35  25.0712  29.3131 i
 111.4  31.2118  29.3131 i
 111.45  21.3679  29.314 i
 111.5  36.5971  29.3149 i
 111.55  21.9348  29.3155 i
 111.6  21.879  29.3161 i
 111.65  28.2208  29.3158 i
 111.7  38.1389  29.3156 i
 111.75  40.358  29.3158 i
 111.8  27.8999  29.3161 i
 111.85  25.6966  29.3172 i
 111.9  34.5748  29.3184 i
 111.95  25.4319  29.3189 i
 112  26.132  29.3194 i
 112.05  37.2597  29.3193 i
 112.1  38.269  29.3191 i
 112.15  31.7621  29.3197 i
 112.2  32.4425  29.3204 i
 112.25  23.3376  29.3218 i
 112.3  30.2204  29.3231 i
 112.35  26.9403  29.3237 i
 112.4  51.0823  29.3243 i
 112.45  22.7681  29.3243 i
 112.5  23.1995  29.3244 i
 112.55  38.6487  29.3255 i
 112.6  38.9082  29.3267 i
 112.65  32.1542  29.3284 i
 112.7  38.3343  29.3301 i
 112.75  29.503  29.3308 i
 112.8  22.4385  29.3315 i
 112.85  33.1307  29.332 i
 112.9  32.7779  29.3326 i
 112.95  26.2154  29.3344 i
 113  29.489  29.3363 i
 113.05  32.293  29.3385 i
 113.1  35.0495  29.3408 i
 113.15  28.5349  29.342 i
 113.2  32.5121  29.3432 i
 113.25  30.0063  29.3446 i
 113.3  27.0924  29.3459 i
 113.35  20.9648  29.3489 i
 113.4  25.8692  29.3519 i
 113.45  42.423  29.3553 i
 113.5  24.18  29.3586 i
 113.55  26.1144  29.3611 i
 113.6  36.8168  29.3635 i
 113.65  26.8806  29.3665 i
 113.7  27.934  29.3696 i
 113.75  22.5404  29.3748 i
 113.8  23.8665  29.38 i
 113.85  35.2897  29.3859 i
 113.9  34.3286  29.3918 i
 113.95  25.77  29.3973 i
 114  39.0861  29.4028 i
 114.05  22.6829  29.41 i
 114.1  29.5767  29.4172 i
 114.15  31.5716  29.4279 i
 114.2  32.0833  29.4387 i
 114.25  31.8068  29.4519 i
 114.3  27.611  29.4651 i
 114.35  32.1388  29.4805 i
 114.4  34.7947  29.496 i
 114.45  31.1168  29.5181 i
 114.5  25.6644  29.5401 i
 114.55  31.4533  29.5742 i
 114.6  30.7991  29.6083 i
 114.65  35.6384  29.6572 i
 114.7  38.6374  29.7062 i
 114.75  31.127  29.7714 i
 114.8  37.0925  29.8365 i
 114.85  25.61  29.9235 i
 114.9  32.1896  30.0105 i
 114.95  28.8473  30.1351 i
 115  29.9559  30.2596 i
 115.05  22.18  30.448 i
 115.1  30.2283  30.6364 i
 115.15  29.1344  30.9412 i
 115.2  39.4083  31.2459 i
 115.25  31.0756  31.7809 i
 115.3  33.7175  32.3159 i
 115.35  38.8076  33.3264 i
 115.4  36.5851  34.337 i
 115.45  43.736  36.3702 i
 115.5  26.36  38.4035 i
 115.55  42.5467  41.8793 i
 115.6  50.3045  46.9204 i
 115.65  48.7972  54.2789 i
 115.7  81.6289  64.0425 i
 115.75  59.6668  76.7238 i
 115.8  79.537  91.0481 i
 115.85  118.773  104.23 i
 115.9  117.868  112.41 i
 115.95  118.453  112.623 i
 116  97.9417  104.796 i
 116.05  78.6555  91.7794 i
 116.1  75.7502  77.5148 i
 116.15  66.8134  64.7771 i
 116.2  54.7843  54.7663 i
 116.25  50.6683  47.458 i
 116.3  40.1655  42.3223 i
 116.35  37.0197  39.3115 i
 116.4  36.8351  36.3007 i
 116.45  43.6271  34.8291 i
 116.5  27.0601  33.3576 i
 116.55  29.3246  32.5979 i
 116.6  31.6559  31.8383 i
 116.65  37.3441  31.4191 i
 116.7  40.0224  31 i
 116.75  32.9829  30.7502 i
 116.8  47.599  30.5005 i
 116.85  30.645  30.3393 i
 116.9  24.4831  30.1782 i
 116.95  26.8137  30.0675 i
 117  30.7409  29.9567 i
 117.05  30.6035  29.8762 i
 117.1  30.5007  29.7956 i
 117.15  32.5554  29.7356 i
 117.2  31.9489  29.6756 i
 117.25  36.8209  29.6324 i
 117.3  31.8863  29.5892 i
 117.35  37.6551  29.5596 i
 117.4  26.8922  29.53 i
 117.45  30.3955  29.5104 i
 117.5  30.0522  29.4909 i
 117.55  30.2407  29.4766 i
 117.6  32.76  29.4623 i
 117.65  34.2159  29.4499 i
 117.7  32.4775  29.4375 i
 117.75  27.6555  29.4273 i
 117.8  32.3531  29.4172 i
 117.85  28.4245  29.4102 i
 117.9  18.7661  29.4033 i
 117.95  30.9669  29.3981 i
 118  40.1264  29.3929 i
 118.05  21.9773  29.3874 i
 118.1  20.599  29.3819 i
 118.15  36.296  29.3767 i
 118.2  32.9171  29.3715 i
 118.25  24.7816  29.3681 i
 118.3  28.3492  29.3647 i
 118.35  29.3031  29.3625 i
 118.4  32.5036  29.3602 i
 118.45  25.8929  29.3574 i
 118.5  29.3929  29.3546 i
 118.55  27.1206  29.3515 i
 118.6  34.9137  29.3483 i
 118.65  22.7281  29.3462 i
 118.7  35.572  29.3442 i
 118.75  36.2941  29.3432 i
 118.8  33.0311  29.3422 i
 118.85  31.8484  29.3408 i
 118.9  31.3093  29.3393 i
 118.95  40.6078  29.3372 i
 119  33.4851  29.335 i
 119.05  29.0245  29.3335 i
 119.1  23.9239  29.332 i
 119.15  29.9586  29.3316 i
 119.2  28.6507  29.3311 i
 119.25  29.4759  29.3305 i
 119.3  26.5076  29.3298 i
 119.35  27.932  29.3283 i
 119.4  27.7192  29.3268 i
 119.45  23.3509  29.3256 i
 119.5  33.0925  29.3243 i
 119.55  30.2559  29.3241 i
 119.6  28.5345  29.3238 i
 119.65  26.3521  29.3236 i
 119.7  22.4829  29.3234 i
 119.75  34.8537  29.3224 i
 119.8  32.9997  29.3214 i
 119.85  34.5723  29.3203 i
 119.9  34.6407  29.3192 i
 119.95  24.6449  29.319 i
 120  39.1985  29.3187 i
 120.05  33.3772  29.3188 i
 120.1  37.9316  29.3189 i
 120.15  27.3005  29.3183 i
 120.2  27.4978  29.3177 i
 120.25  30.3002  29.3167 i
 120.3  33.4444  29.3158 i
 120.35  28.4562  29.3154 i
 120.4  38.0309  29.315 i
 120.45  33.6388  29.3152 i
 120.5  29.0511  29.3155 i
 120.55  21.2014  29.3152 i
 120.6  26.6108  29.315 i
 120.65  24.9989  29.3142 i
 120.7  26.5246  29.3134 i
 120.75  22.7669  29.3129 i
 120.8  42.3334  29.3124 i
 120.85  37.6536  29.3126 i
 120.9  29.8654  29.3128 i
 120.95  26.4353  29.3128 i
 121  26.8155  29.3129 i
 121.05  44.9809  29.3123 i
 121.1  35.206  29.3117 i
 121.15  27.7988  29.3111 i
 121.2  36.7021  29.3105 i
 121.25  29.29  29.3105 i
 121.3  32.0285  29.3106 i
 121.35  33.889  29.3109 i
 121.4  31.2136  29.3111 i
 121.45  26.5511  29.3108 i
 121.5  25.1497  29.3105 i
 121.55  38.8632  29.3098 i
 121.6  44.4125  29.3092 i
 121.65  28.0878  29.309 i
 121.7  32.2661  29.3089 i
 121.75  29.424  29.3092 i
 121.8  29.885  29.3095 i
 121.85  35.0721  29.3095 i
 121.9  30.2715  29.3094 i
 121.95  21.4592  29.3089 i
 122  30.7368  29.3083 i
 122.05  29.3197  29.308 i
 122.1  37.0467  29.3076 i
 122.15  19.681  29.3079 i
 122.2  30.4989  29.3081 i
 122.25  32.8165  29.3083 i
 122.3  34.8788  29.3085 i
 122.35  29.5657  29.3081 i
 122.4  33.2383  29.3078 i
 122.45  42.5742  29.3073 i
 122.5  27.1564  29.3068 i
 122.55  27.7533  29.3068 i
 122.6  30.9128  29.3069 i
 122.65  30.5675  29.3072 i
 122.7  31.2515  29.3075 i
 122.75  26.3238  29.307 i
 122.8  28.0293  29.3065 i
 122.85  25.5636  29.3061 i
 122.9  46.1468  29.3058 i
 122.95  32.4829  29.3055 i
 123  30.2539  29.3052 i
 123.05  29.9116  29.3053 i
 123.1  38.3605  29.3054 i
 123.15  28.1795  29.3056 i
 123.2  28.3684  29.3058 i
 123.25  29.1823  29.3056 i
 123.3  42.0389  29.3055 i
 123.35  24.7085  29.3051 i
 123.4  38.0185  29.3048 i
 123.45  32.3702  29.3047 i
 123.5  23.0795  29.3046 i
 123.55  39.3804  29.3048 i
 123.6  34.1784  29.305 i
 123.65  32.3548  29.3051 i
 123.7  32.372  29.3051 i
 123.75  30.006  29.3049 i
 123.8  34.8678  29.3046 i
 123.85  24.8403  29.3043 i
 123.9  28.0043  29.304 i
 123.95  31.1734  29.3041 i
 124  34.5366  29.3042 i
 124.05  37.3425  29.3044 i
 124.1  36.8934  29.3046 i
 124.15  28.5125  29.3045 i
 124.2  26.7123  29.3045 i
 124.25  49.4963  29.3041 i
 124.3  26.2446  29.3038 i
 124.35  28.3712  29.3037 i
 124.4  24.7766  29.3036 i
 124.45  34.9616  29.3038 i
 124.5  26.1426  29.304 i
 124.55  26.3881  29.3041 i
 124.6  35.5784  29.3042 i
 124.65  20.5573  29.304 i
 124.7  26.5227  29.3038 i
 124.75  30.8597  29.3035 i
 124.8  33.9256  29.3033 i
 124.85  29.3943  29.3033 i
 124.9  29.4041  29.3034 i
 124.95  31.4155  29.3036 i
 125  21.2664  29.3038 i
 125.05  24.3132  29.3038 i
 125.1  21.0193  29.3038 i
 125.15  22.6168  29.3035 i
 125.2  32.4528  29.3032 i
 125.25  28.2  29.3031 i
 125.3  29.2764  29.3029 i
 125.35  36.2151  29.3031 i
 125.4  31.4621  29.3032 i
 125.45  31.9341  29.3034 i
 125.5  47.0042  29.3035 i
 125.55  31.2487  29.3034 i
 125.6  28.7831  29.3033 i
 125.65  32.6405  29.3031 i
 125.7  42.2271  29.3028 i
 125.75  27.4742  29.3027 i
 125.8  44.9212  29.3027 i
 125.85  30.3358  29.3029 i
 125.9  44.5841  29.3031 i
 125.95  31.9933  29.3032 i
 126  27.0746  29.3033 i
 126.05  32.9694  29.3031 i
 126.1  25.4394  29.3029 i
 126.15  26.7009  29.3027 i
 126.2  32.8819  29.3025 i
 126.25  35.6089  29.3025 i
 126.3  24.312  29.3025 i
 126.35  24.9526  29.3027 i
 126.4  27.5941  29.3029 i
 126.45  29.5325  29.3029 i
 126.5  39.9807  29.303 i
 126.55  30.2274  29.3028 i
 126.6  29.551  29.3025 i
 126.65  32.089  29.3024 i
 126.7  21.7262  29.3022 i
 126.75  23.6816  29.3023 i
 126.8  31.9586  29.3024 i
 126.85  32.8372  29.3026 i
 126.9  33.4053  29.3028 i
 126.95  26.2389  29.3027 i
 127  31.7487  29.3027 i
 127.05  24.59  29.3025 i
 127.1  25.4384  29.3023 i
 127.15  32.6896  29.3022 i
 127.2  29.3681  29.3021 i
 127.25  38.8861  29.3022 i
 127.3  32.1382  29.3023 i
 127.35  28.2513  29.3025 i
 127.4  31.2711  29.3026 i
 127.45  34.1163  29.3025 i
 127.5  38.7481  29.3024 i
 127.55  35.4632  29.3022 i
 127.6  30.6704  29.302 i
 127.65  29.2236  29.302 i
 127.7  22.8906  29.3019 i
 127.75  34.8772  29.3021 i
 127.8  29.6889  29.3022 i
 127.85  29.0443  29.3023 i
 127.9  40.5936  29.3025 i
 127.95  34.3862  29.3023 i
 128  34.3648  29.3022 i
 128.05  33.6678  29.302 i
 128.1  32.4002  29.3018 i
 128.15  37.7174  29.3018 i
 128.2  35.8854  29.3018 i
 128.25  35.9539  29.302 i
 128.3  37.2212  29.3021 i
 128.35  35.9703  29.3022 i
 128.4  19.4698  29.3023 i
 128.45  31.3226  29.3022 i
 128.5  26.3337  29.3021 i
 128.55  24.4643  29.3019 i
 128.6  26.8446  29.3017 i
 128.65  33.8231  29.3017 i
 128.7  28.4809  29.3017 i
 128.75  32.5702  29.3019 i
 128.8  35.9139  29.302 i
 128.85  23.025  29.3021 i
 128.9  27.5975  29.3022 i
 128.95  25.8937  29.302 i
 129  28.8063  29.3019 i
 129.05  34.7675  29.3017 i
 129.1  25.3985  29.3016 i
 129.15  41.8985  29.3016 i
 129.2  32.076  29.3016 i
 129.25  28.9487  29.3018 i
 129.3  20.2371  29.3019 i
 129.35  29.2615  29.302 i
 129.4  26.7746  29.3021 i
 129.45  29.2315  29.3019 i
 129.5  30.6221  29.3018 i
 129.55  27.3163  29.3016 i
 129.6  35.591  29.3015 i
 129.65  26.1667  29.3015 i
 129.7  41.1347  29.3015 i
 129.75  22.7818  29.3017 i
 129.8  35.7748  29.3018 i
 129.85  29.1626  29.3019 i
 129.9  36.2798  29.302 i
 129.95  26.1066  29.3132 i
 130  30.292  29.3245 i

