40.0000 32.8095
40.0500 40.6882
40.1000 41.7609
40.1500 26.3189
40.2000 32.3300
40.2500 50.5719
40.3000 33.7172
40.3500 34.3699
40.4000 46.0312
40.4500 44.3343
40.5000 43.3847
40.5500 57.5706
40.6000 47.5483
40.6500 37.3836
40.7000 41.3090
40.7500 39.3910
40.8000 46.2649
40.8500 25.5095
40.9000 39.0008
40.9500 53.5030
41.0000 32.6666
41.0500 42.0479
41.1000 32.3173
41.1500 45.9824
41.2000 43.9077
41.2500 36.4939
41.3000 40.1126
41.3500 27.5702
41.4000 51.9872
41.4500 42.2894
41.5000 48.6126
41.5500 50.3441
41.6000 40.2758
41.6500 45.9989
41.7000 34.8588
41.7500 42.9304
41.8000 35.3736
41.8500 40.0042
41.9000 41.1497
41.9500 49.0183
42.0000 47.6068
42.0500 38.4398
42.1000 33.3927
42.1500 42.5414
42.2000 31.3685
42.2500 38.2851
42.3000 37.4214
42.3500 32.2043
42.4000 35.5602
42.4500 36.2267
42.5000 47.7580
42.5500 44.7100
42.6000 41.5702
42.6500 34.2013
42.7000 35.1044
42.7500 37.6059
42.8000 45.6207
42.8500 43.3374
42.9000 36.7306
42.9500 35.0842
43.0000 39.6317
43.0500 42.1473
43.1000 37.1083
43.1500 34.6040
43.2000 52.5529
43.2500 42.1982
43.3000 46.1459
43.3500 44.3601
43.4000 47.4114
43.4500 43.5859
43.5000 40.4399
43.5500 35.7216
43.6000 47.2207
43.6500 40.7898
43.7000 45.4777
43.7500 38.7311
43.8000 39.7284
43.8500 52.8494
43.9000 41.1330
43.9500 46.9411
44.0000 53.2641
44.0500 59.3574
44.1000 80.8262
44.1500 83.5984
44.2000 138.3121
44.2500 392.5670
44.3000 1190.7354
44.3500 2145.9216
44.4000 2204.1465
44.4500 1394.9275
44.5000 463.9585
44.5500 157.5198
44.6000 94.1035
44.6500 61.0503
44.7000 43.9344
44.7500 47.2426
44.8000 48.1024
44.8500 46.7701
44.9000 46.5079
44.9500 29.5209
45.0000 37.0064
45.0500 49.5887
45.1000 45.0633
45.1500 44.5612
45.2000 38.3330
45.2500 43.8622
45.3000 36.7745
45.3500 37.8658
45.4000 39.7006
45.4500 41.8151
45.5000 33.5472
45.5500 25.6070
45.6000 33.7330
45.6500 36.9708
45.7000 29.5818
45.7500 39.0050
45.8000 37.3798
45.8500 28.0447
45.9000 38.8193
45.9500 38.9153
46.0000 36.9279
46.0500 36.5368
46.1000 36.4881
46.1500 31.3719
46.2000 40.9421
46.2500 39.1949
46.3000 37.0945
46.3500 41.6502
46.4000 32.6853
46.4500 42.6253
46.5000 25.3648
46.5500 45.4010
46.6000 37.5131
46.6500 30.7922
46.7000 38.6547
46.7500 31.8535
46.8000 41.9196
46.8500 24.3745
46.9000 25.0565
46.9500 31.3316
47.0000 45.1946
47.0500 30.2516
47.1000 35.6161
47.1500 35.1168
47.2000 33.1966
47.2500 48.7644
47.3000 37.9666
47.3500 34.7067
47.4000 41.7956
47.4500 51.4594
47.5000 46.5129
47.5500 34.2830
47.6000 36.1432
47.6500 25.9586
47.7000 32.5646
47.7500 22.4306
47.8000 44.7657
47.8500 34.0758
47.9000 35.7483
47.9500 34.0369
48.0000 31.6065
48.0500 38.8230
48.1000 47.8501
48.1500 35.7316
48.2000 33.6557
48.2500 33.0001
48.3000 38.8091
48.3500 27.2095
48.4000 37.9883
48.4500 35.9790
48.5000 35.5586
48.5500 29.8559
48.6000 45.3092
48.6500 29.0571
48.7000 31.1843
48.7500 43.2607
48.8000 22.5800
48.8500 39.1604
48.9000 43.1046
48.9500 29.6630
49.0000 35.1830
49.0500 39.0215
49.1000 43.2118
49.1500 33.3918
49.2000 49.0793
49.2500 31.6463
49.3000 29.2862
49.3500 24.6940
49.4000 38.7589
49.4500 29.2544
49.5000 36.2015
49.5500 37.0152
49.6000 39.7352
49.6500 29.7691
49.7000 37.4810
49.7500 34.5997
49.8000 37.7540
49.8500 38.4657
49.9000 39.6662
49.9500 35.5276
50.0000 37.3379
50.0500 30.3450
50.1000 26.3471
50.1500 23.3114
50.2000 43.3025
50.2500 39.2168
50.3000 32.3981
50.3500 27.3571
50.4000 48.0676
50.4500 26.5145
50.5000 35.1156
50.5500 34.3133
50.6000 38.7004
50.6500 36.3927
50.7000 37.8988
50.7500 34.1165
50.8000 36.6776
50.8500 20.9379
50.9000 31.0603
50.9500 30.6636
51.0000 34.8075
51.0500 35.2659
51.1000 39.2092
51.1500 29.6438
51.2000 46.4067
51.2500 34.9846
51.3000 28.5279
51.3500 31.5353
51.4000 36.8404
51.4500 43.7637
51.5000 47.0029
51.5500 27.7008
51.6000 31.9783
51.6500 36.6541
51.7000 38.2949
51.7500 26.6975
51.8000 36.6174
51.8500 39.9145
51.9000 32.4187
51.9500 31.3784
52.0000 39.8243
52.0500 26.6894
52.1000 29.6065
52.1500 37.8360
52.2000 27.6758
52.2500 27.6075
52.3000 31.0522
52.3500 40.1136
52.4000 34.8713
52.4500 26.5819
52.5000 30.5678
52.5500 30.6045
52.6000 25.0134
52.6500 34.6604
52.7000 36.1657
52.7500 32.0806
52.8000 34.6946
52.8500 35.4098
52.9000 29.5094
52.9500 25.0831
53.0000 21.2101
53.0500 32.8700
53.1000 33.3932
53.1500 32.1565
53.2000 36.9451
53.2500 29.0111
53.3000 33.6221
53.3500 28.3306
53.4000 26.2754
53.4500 30.2799
53.5000 28.5839
53.5500 26.7327
53.6000 25.6763
53.6500 24.6621
53.7000 22.5367
53.7500 36.6427
53.8000 32.2880
53.8500 34.0382
53.9000 28.2444
53.9500 45.5052
54.0000 26.5973
54.0500 35.1395
54.1000 36.4222
54.1500 33.8400
54.2000 39.2608
54.2500 25.6917
54.3000 38.4453
54.3500 41.3684
54.4000 32.8489
54.4500 30.9127
54.5000 17.7951
54.5500 30.5149
54.6000 30.8413
54.6500 36.2659
54.7000 37.4733
54.7500 27.2901
54.8000 25.4278
54.8500 31.0922
54.9000 33.1259
54.9500 25.5753
55.0000 33.8071
55.0500 31.0447
55.1000 28.6293
55.1500 34.2096
55.2000 28.7767
55.2500 30.3111
55.3000 34.1279
55.3500 22.0723
55.4000 32.3227
55.4500 27.3187
55.5000 26.6508
55.5500 30.7094
55.6000 33.9447
55.6500 38.0892
55.7000 31.0691
55.7500 30.7844
55.8000 20.0950
55.8500 39.0051
55.9000 38.8235
55.9500 36.3211
56.0000 31.0978
56.0500 32.1917
56.1000 33.5586
56.1500 37.7483
56.2000 35.4374
56.2500 30.5939
56.3000 30.4440
56.3500 34.1279
56.4000 28.1789
56.4500 29.8384
56.5000 33.8738
56.5500 33.6288
56.6000 28.1772
56.6500 26.8478
56.7000 41.6741
56.7500 34.8706
56.8000 34.7819
56.8500 20.6756
56.9000 33.4084
56.9500 37.8300
57.0000 40.1081
57.0500 28.9264
57.1000 24.2763
57.1500 27.3354
57.2000 33.4050
57.2500 31.2197
57.3000 30.0479
57.3500 32.9353
57.4000 29.9539
57.4500 37.6449
57.5000 40.4288
57.5500 38.0970
57.6000 32.7210
57.6500 41.4696
57.7000 24.3259
57.7500 33.9219
57.8000 28.2423
57.8500 26.0667
57.9000 33.4522
57.9500 29.7894
58.0000 35.2334
58.0500 32.6186
58.1000 27.4690
58.1500 31.5788
58.2000 33.1775
58.2500 36.5115
58.3000 29.0276
58.3500 32.3164
58.4000 22.7806
58.4500 22.8232
58.5000 43.3491
58.5500 21.7028
58.6000 26.6112
58.6500 34.6359
58.7000 27.8155
58.7500 35.4755
58.8000 29.4073
58.8500 30.7699
58.9000 30.3599
58.9500 34.2424
59.0000 29.7757
59.0500 28.4216
59.1000 33.8073
59.1500 29.1029
59.2000 41.9869
59.2500 36.6039
59.3000 40.5562
59.3500 35.8112
59.4000 37.7548
59.4500 34.0503
59.5000 27.0223
59.5500 22.6693
59.6000 28.5806
59.6500 30.7391
59.7000 36.9574
59.7500 37.5086
59.8000 29.5289
59.8500 30.8732
59.9000 29.5648
59.9500 30.3999
60.0000 34.2400
60.0500 30.1642
60.1000 35.7533
60.1500 33.9229
60.2000 22.1549
60.2500 29.1428
60.3000 24.2963
60.3500 35.0478
60.4000 31.1855
60.4500 24.8213
60.5000 24.0012
60.5500 21.7220
60.6000 36.4496
60.6500 31.0684
60.7000 27.1536
60.7500 35.7438
60.8000 31.4977
60.8500 35.4255
60.9000 37.1516
60.9500 37.5106
61.0000 22.5203
61.0500 30.0659
61.1000 33.8898
61.1500 27.9715
61.2000 26.2376
61.2500 29.5348
61.3000 27.5226
61.3500 34.3228
61.4000 36.0162
61.4500 41.8521
61.5000 27.6923
61.5500 44.7228
61.6000 34.7040
61.6500 24.3879
61.7000 28.8028
61.7500 34.8319
61.8000 31.9677
61.8500 40.7269
61.9000 30.7378
61.9500 29.9762
62.0000 34.1608
62.0500 32.7391
62.1000 28.8445
62.1500 34.6749
62.2000 24.3593
62.2500 32.2712
62.3000 35.6898
62.3500 34.3387
62.4000 31.2750
62.4500 26.2131
62.5000 31.1881
62.5500 27.3456
62.6000 33.7290
62.6500 15.1703
62.7000 33.1497
62.7500 36.4138
62.8000 39.9282
62.8500 33.0167
62.9000 34.7475
62.9500 34.7560
63.0000 38.6224
63.0500 30.0730
63.1000 31.1090
63.1500 32.2361
63.2000 30.2574
63.2500 25.1663
63.3000 20.0534
63.3500 31.5070
63.4000 32.4217
63.4500 33.3110
63.5000 38.7023
63.5500 25.3026
63.6000 31.3165
63.6500 42.5370
63.7000 28.5990
63.7500 34.5703
63.8000 32.0585
63.8500 40.7887
63.9000 30.3573
63.9500 21.2670
64.0000 39.6988
64.0500 29.4747
64.1000 41.7243
64.1500 29.3480
64.2000 29.0320
64.2500 32.4251
64.3000 31.3294
64.3500 37.3869
64.4000 52.6063
64.4500 43.5261
64.5000 54.5873
64.5500 71.8198
64.6000 95.7471
64.6500 147.1718
64.7000 143.1701
64.7500 146.5255
64.8000 110.8411
64.8500 61.2702
64.9000 48.4399
64.9500 44.6754
65.0000 28.8759
65.0500 43.3262
65.1000 40.8427
65.1500 31.0228
65.2000 38.8475
65.2500 28.8715
65.3000 23.9282
65.3500 31.8711
65.4000 29.0861
65.4500 30.0581
65.5000 34.0982
65.5500 33.9777
65.6000 33.1103
65.6500 33.6556
65.7000 31.2690
65.7500 25.3012
65.8000 33.5548
65.8500 27.8991
65.9000 28.5740
65.9500 35.8912
66.0000 40.2616
66.0500 30.2492
66.1000 34.0659
66.1500 24.1911
66.2000 29.5415
66.2500 32.3935
66.3000 30.1299
66.3500 31.6793
66.4000 30.3959
66.4500 31.5952
66.5000 30.3447
66.5500 33.2434
66.6000 38.8516
66.6500 30.2676
66.7000 28.5017
66.7500 19.0604
66.8000 35.2528
66.8500 26.0749
66.9000 26.5897
66.9500 18.4592
67.0000 20.7575
67.0500 22.3358
67.1000 29.9516
67.1500 22.3857
67.2000 27.9839
67.2500 30.2497
67.3000 38.2852
67.3500 34.2007
67.4000 37.2847
67.4500 36.0969
67.5000 20.5105
67.5500 27.8202
67.6000 30.3019
67.6500 29.7986
67.7000 31.4794
67.7500 26.0345
67.8000 30.0404
67.8500 32.4864
67.9000 33.2225
67.9500 39.5497
68.0000 29.7614
68.0500 32.1448
68.1000 34.2050
68.1500 31.8531
68.2000 34.8430
68.2500 33.0112
68.3000 39.3336
68.3500 32.3060
68.4000 35.6245
68.4500 33.0939
68.5000 37.0905
68.5500 34.9457
68.6000 35.3693
68.6500 30.0402
68.7000 31.0090
68.7500 37.9271
68.8000 45.2408
68.8500 25.2565
68.9000 29.8637
68.9500 33.5099
69.0000 23.4381
69.0500 24.7011
69.1000 33.0489
69.1500 41.8592
69.2000 31.3020
69.2500 24.9550
69.3000 36.8526
69.3500 41.4621
69.4000 24.7531
69.4500 24.0327
69.5000 24.1144
69.5500 34.1912
69.6000 31.6096
69.6500 33.6265
69.7000 36.2511
69.7500 25.0342
69.8000 28.2581
69.8500 27.0396
69.9000 29.5746
69.9500 28.9202
70.0000 32.1023
70.0500 37.6829
70.1000 38.5431
70.1500 35.2325
70.2000 29.2141
70.2500 33.0490
70.3000 26.9976
70.3500 34.7301
70.4000 32.7333
70.4500 27.3366
70.5000 37.0838
70.5500 42.2821
70.6000 32.4815
70.6500 38.7101
70.7000 25.3116
70.7500 21.9016
70.8000 29.5770
70.8500 29.4128
70.9000 32.0864
70.9500 26.6492
71.0000 25.4033
71.0500 36.5147
71.1000 38.0788
71.1500 37.3702
71.2000 35.3704
71.2500 27.0172
71.3000 30.1131
71.3500 27.5509
71.4000 30.2825
71.4500 38.3375
71.5000 35.5068
71.5500 26.1223
71.6000 26.8028
71.6500 29.7564
71.7000 26.0009
71.7500 39.2484
71.8000 33.1188
71.8500 31.6005
71.9000 31.6880
71.9500 21.3137
72.0000 27.0891
72.0500 26.7844
72.1000 24.1061
72.1500 42.7356
72.2000 38.9412
72.2500 31.6194
72.3000 28.5195
72.3500 35.9262
72.4000 37.1682
72.4500 29.1380
72.5000 30.4620
72.5500 33.7210
72.6000 36.2425
72.6500 42.0683
72.7000 40.3335
72.7500 28.4626
72.8000 34.1511
72.8500 25.2855
72.9000 36.7955
72.9500 26.8767
73.0000 31.0377
73.0500 33.8779
73.1000 42.7294
73.1500 39.1383
73.2000 26.0051
73.2500 29.2640
73.3000 33.9172
73.3500 26.1984
73.4000 36.5357
73.4500 31.7784
73.5000 25.5004
73.5500 28.5828
73.6000 34.0311
73.6500 26.5168
73.7000 28.6854
73.7500 28.9308
73.8000 24.7864
73.8500 28.2544
73.9000 30.7223
73.9500 35.0867
74.0000 33.3259
74.0500 36.1568
74.1000 25.9354
74.1500 31.6347
74.2000 44.2284
74.2500 38.3471
74.3000 28.5777
74.3500 29.0792
74.4000 34.6723
74.4500 22.0468
74.5000 32.9033
74.5500 26.4591
74.6000 28.8698
74.6500 33.2409
74.7000 26.8615
74.7500 23.2069
74.8000 33.8808
74.8500 32.4833
74.9000 25.8164
74.9500 29.7948
75.0000 29.8402
75.0500 37.1528
75.1000 42.6646
75.1500 24.5313
75.2000 36.9823
75.2500 38.5670
75.3000 34.8385
75.3500 27.7497
75.4000 29.4477
75.4500 28.7616
75.5000 28.8569
75.5500 36.4160
75.6000 32.2160
75.6500 29.3742
75.7000 31.6498
75.7500 38.3506
75.8000 27.9466
75.8500 35.2522
75.9000 31.7027
75.9500 30.6807
76.0000 36.9304
76.0500 30.5761
76.1000 40.0557
76.1500 25.7037
76.2000 27.9233
76.2500 22.5955
76.3000 24.2763
76.3500 23.7351
76.4000 28.6926
76.4500 31.0425
76.5000 36.7097
76.5500 21.4980
76.6000 24.6282
76.6500 38.8337
76.7000 29.7593
76.7500 34.5999
76.8000 25.5487
76.8500 38.3758
76.9000 27.4042
76.9500 25.4069
77.0000 28.0915
77.0500 25.7078
77.1000 22.9585
77.1500 29.2498
77.2000 33.7749
77.2500 28.5813
77.3000 34.3145
77.3500 33.5933
77.4000 29.7420
77.4500 30.2486
77.5000 37.5245
77.5500 46.6075
77.6000 34.7187
77.6500 22.2203
77.7000 35.2264
77.7500 35.7250
77.8000 31.9111
77.8500 33.9423
77.9000 30.7200
77.9500 32.1548
78.0000 14.7000
78.0500 17.0275
78.1000 23.7139
78.1500 32.0725
78.2000 30.5846
78.2500 30.6304
78.3000 37.6771
78.3500 37.2759
78.4000 21.4301
78.4500 39.6110
78.5000 30.5158
78.5500 35.0383
78.6000 28.5973
78.6500 25.8054
78.7000 26.6825
78.7500 37.9297
78.8000 30.0217
78.8500 35.2462
78.9000 26.3993
78.9500 23.5532
79.0000 35.4603
79.0500 25.7330
79.1000 29.5214
79.1500 32.4563
79.2000 33.1060
79.2500 31.5452
79.3000 37.0217
79.3500 38.5571
79.4000 31.9384
79.4500 33.6301
79.5000 34.0742
79.5500 30.9355
79.6000 25.9518
79.6500 35.2429
79.7000 29.6179
79.7500 27.9188
79.8000 25.7615
79.8500 26.5696
79.9000 36.9713
79.9500 24.8874
80.0000 29.8629
80.0500 25.7065
80.1000 29.4916
80.1500 33.0995
80.2000 31.2647
80.2500 32.6057
80.3000 34.1919
80.3500 27.3403
80.4000 29.4114
80.4500 22.2075
80.5000 40.1449
80.5500 32.7588
80.6000 27.5808
80.6500 43.4474
80.7000 36.0074
80.7500 29.2687
80.8000 34.6360
80.8500 35.2918
80.9000 26.2795
80.9500 26.4856
81.0000 26.9395
81.0500 40.8687
81.1000 33.6419
81.1500 22.2113
81.2000 28.7859
81.2500 29.9064
81.3000 34.6497
81.3500 30.3250
81.4000 21.5729
81.4500 34.5984
81.5000 27.7070
81.5500 30.8191
81.6000 44.5116
81.6500 31.6855
81.7000 42.1954
81.7500 60.6146
81.8000 89.7925
81.8500 137.6895
81.9000 194.6379
81.9500 260.1610
82.0000 254.0335
82.0500 204.1072
82.1000 118.8619
82.1500 77.7442
82.2000 70.9091
82.2500 53.2715
82.3000 48.6772
82.3500 45.9897
82.4000 29.5694
82.4500 34.1888
82.5000 44.4062
82.5500 30.0597
82.6000 27.5031
82.6500 25.4779
82.7000 32.6956
82.7500 33.2279
82.8000 38.9131
82.8500 31.9996
82.9000 35.6172
82.9500 22.0346
83.0000 32.3969
83.0500 33.8844
83.1000 33.3036
83.1500 26.2334
83.2000 30.1081
83.2500 32.4281
83.3000 24.1327
83.3500 31.7660
83.4000 28.7669
83.4500 34.4730
83.5000 40.3260
83.5500 26.8521
83.6000 40.6522
83.6500 29.4825
83.7000 44.4967
83.7500 25.3902
83.8000 22.0300
83.8500 27.5828
83.9000 26.5596
83.9500 25.2766
84.0000 34.0983
84.0500 26.9567
84.1000 20.3862
84.1500 37.6622
84.2000 37.0831
84.2500 27.5837
84.3000 32.5364
84.3500 30.0902
84.4000 30.5687
84.4500 32.9979
84.5000 32.7026
84.5500 42.7132
84.6000 33.7599
84.6500 30.1768
84.7000 20.3154
84.7500 28.6281
84.8000 26.0399
84.8500 33.3453
84.9000 32.7773
84.9500 33.1086
85.0000 20.5379
85.0500 28.5753
85.1000 27.8534
85.1500 28.2325
85.2000 26.5730
85.2500 25.9598
85.3000 33.2355
85.3500 32.4848
85.4000 18.2391
85.4500 31.7226
85.5000 33.3978
85.5500 40.9085
85.6000 29.5176
85.6500 24.1730
85.7000 29.7253
85.7500 35.3358
85.8000 33.8175
85.8500 26.8919
85.9000 18.4857
85.9500 26.4386
86.0000 40.3429
86.0500 28.8887
86.1000 37.9128
86.1500 27.7644
86.2000 26.2653
86.2500 23.7301
86.3000 30.9844
86.3500 33.5106
86.4000 38.3874
86.4500 25.5161
86.5000 31.6840
86.5500 31.9667
86.6000 33.8411
86.6500 35.2442
86.7000 27.1768
86.7500 23.1391
86.8000 31.8265
86.8500 32.4849
86.9000 20.1206
86.9500 21.9158
87.0000 27.2503
87.0500 29.6437
87.1000 27.9675
87.1500 33.5611
87.2000 36.5537
87.2500 43.6533
87.3000 37.1998
87.3500 31.0698
87.4000 24.9694
87.4500 26.1157
87.5000 33.8027
87.5500 33.9555
87.6000 39.3619
87.6500 43.4963
87.7000 32.0786
87.7500 32.7088
87.8000 19.1188
87.8500 27.0428
87.9000 22.5853
87.9500 37.2368
88.0000 31.3493
88.0500 26.5622
88.1000 28.1449
88.1500 34.8607
88.2000 18.2041
88.2500 22.1264
88.3000 22.4529
88.3500 28.4671
88.4000 30.8991
88.4500 35.3744
88.5000 32.1532
88.5500 34.7205
88.6000 28.3794
88.6500 43.2180
88.7000 35.0098
88.7500 29.7989
88.8000 28.5269
88.8500 29.1500
88.9000 32.7601
88.9500 29.8263
89.0000 32.3781
89.0500 23.4663
89.1000 26.1254
89.1500 28.7908
89.2000 32.7226
89.2500 37.8380
89.3000 36.0746
89.3500 32.5603
89.4000 35.6182
89.4500 24.9470
89.5000 27.7455
89.5500 33.1479
89.6000 25.5686
89.6500 32.5261
89.7000 23.5601
89.7500 32.9739
89.8000 28.6079
89.8500 27.0227
89.9000 28.2734
89.9500 30.0552
90.0000 31.0868
90.0500 34.7105
90.1000 27.7266
90.1500 27.2002
90.2000 32.0719
90.2500 32.6457
90.3000 24.5172
90.3500 26.4209
90.4000 32.9744
90.4500 32.9103
90.5000 32.1484
90.5500 36.5445
90.6000 29.1974
90.6500 34.3247
90.7000 25.3025
90.7500 35.0903
90.8000 21.2491
90.8500 34.6258
90.9000 33.3813
90.9500 29.0649
91.0000 23.8316
91.0500 33.0797
91.1000 21.7368
91.1500 33.3115
91.2000 34.8539
91.2500 34.3252
91.3000 31.5315
91.3500 28.2996
91.4000 22.5308
91.4500 28.3899
91.5000 26.1200
91.5500 31.8768
91.6000 35.7570
91.6500 30.9978
91.7000 31.5693
91.7500 36.4004
91.8000 25.2990
91.8500 29.5212
91.9000 27.9936
91.9500 19.9982
92.0000 39.5915
92.0500 37.6918
92.1000 46.8040
92.1500 31.5593
92.2000 29.0668
92.2500 25.9438
92.3000 22.9548
92.3500 28.1215
92.4000 24.8385
92.4500 30.5696
92.5000 29.5751
92.5500 26.0049
92.6000 34.7790
92.6500 30.6093
92.7000 28.4161
92.7500 23.6228
92.8000 32.8559
92.8500 18.7353
92.9000 24.2247
92.9500 24.2396
93.0000 33.7933
93.0500 28.4672
93.1000 25.7424
93.1500 39.8344
93.2000 41.7251
93.2500 33.8838
93.3000 20.3238
93.3500 39.0933
93.4000 39.6545
93.4500 31.4443
93.5000 22.1367
93.5500 35.4016
93.6000 32.3670
93.6500 31.6115
93.7000 23.2938
93.7500 36.6327
93.8000 26.9603
93.8500 33.4111
93.9000 32.1916
93.9500 23.6816
94.0000 22.3576
94.0500 14.2573
94.1000 36.2526
94.1500 23.5148
94.2000 27.3396
94.2500 21.6574
94.3000 11.1114
94.3500 28.2000
94.4000 21.7662
94.4500 22.9934
94.5000 35.3522
94.5500 34.1056
94.6000 27.5891
94.6500 30.4366
94.7000 26.5500
94.7500 24.0293
94.8000 34.6100
94.8500 34.6214
94.9000 39.0814
94.9500 25.1538
95.0000 25.0339
95.0500 28.9421
95.1000 35.1291
95.1500 47.4160
95.2000 37.6808
95.2500 36.8447
95.3000 32.1807
95.3500 23.9620
95.4000 29.0775
95.4500 33.0651
95.5000 29.8733
95.5500 26.3085
95.6000 32.9095
95.6500 28.0736
95.7000 28.6124
95.7500 25.2239
95.8000 25.3985
95.8500 26.5845
95.9000 27.8283
95.9500 27.9558
96.0000 27.1601
96.0500 38.2449
96.1000 30.4586
96.1500 32.6296
96.2000 26.6025
96.2500 25.6630
96.3000 32.5150
96.3500 29.7612
96.4000 23.1198
96.4500 28.7171
96.5000 29.3429
96.5500 37.4551
96.6000 30.5773
96.6500 23.3588
96.7000 23.6464
96.7500 22.1826
96.8000 37.0544
96.8500 17.2752
96.9000 34.6712
96.9500 23.9084
97.0000 31.8038
97.0500 36.9129
97.1000 34.7624
97.1500 30.0266
97.2000 23.2935
97.2500 35.8004
97.3000 34.6959
97.3500 25.1129
97.4000 34.7971
97.4500 25.3042
97.5000 31.5845
97.5500 31.7590
97.6000 31.0632
97.6500 27.5842
97.7000 29.4484
97.7500 32.3644
97.8000 31.3061
97.8500 30.7992
97.9000 34.3891
97.9500 35.5614
98.0000 34.8409
98.0500 33.5251
98.1000 25.1117
98.1500 31.9201
98.2000 40.1169
98.2500 40.5001
98.3000 52.5817
98.3500 55.6758
98.4000 66.8974
98.4500 105.0702
98.5000 140.0578
98.5500 175.9273
98.6000 124.9815
98.6500 78.9094
98.7000 67.3591
98.7500 60.3970
98.8000 44.5820
98.8500 50.7703
98.9000 30.3798
98.9500 31.6021
99.0000 34.9539
99.0500 39.0180
99.1000 34.8669
99.1500 41.0570
99.2000 28.0278
99.2500 31.3766
99.3000 26.3333
99.3500 26.3873
99.4000 21.0773
99.4500 33.1438
99.5000 27.7540
99.5500 29.6985
99.6000 22.0912
99.6500 27.2464
99.7000 25.2434
99.7500 30.7856
99.8000 22.4339
99.8500 29.7073
99.9000 37.9878
99.9500 21.5245
100.0000 32.5901
100.0500 26.4881
100.1000 39.8879
100.1500 18.7990
100.2000 38.7486
100.2500 31.1408
100.3000 30.4901
100.3500 34.3874
100.4000 37.1859
100.4500 30.8524
100.5000 19.4891
100.5500 29.7992
100.6000 29.5376
100.6500 38.5564
100.7000 26.0956
100.7500 30.0770
100.8000 33.9837
100.8500 28.9200
100.9000 30.2278
100.9500 20.7210
101.0000 44.2365
101.0500 31.1806
101.1000 25.4367
101.1500 35.9524
101.2000 24.3647
101.2500 37.0395
101.3000 21.6718
101.3500 24.2423
101.4000 25.3860
101.4500 21.7505
101.5000 27.2492
101.5500 38.5018
101.6000 36.5708
101.6500 37.2841
101.7000 25.2846
101.7500 24.9797
101.8000 25.1967
101.8500 34.3481
101.9000 33.5737
101.9500 32.4348
102.0000 34.7724
102.0500 30.7786
102.1000 32.7370
102.1500 32.5963
102.2000 32.7667
102.2500 30.9830
102.3000 31.6360
102.3500 33.2615
102.4000 32.4789
102.4500 28.5972
102.5000 23.7894
102.5500 28.8920
102.6000 35.6790
102.6500 26.7693
102.7000 33.8185
102.7500 38.3506
102.8000 27.3771
102.8500 30.0602
102.9000 31.7875
102.9500 33.0824
103.0000 31.8736
103.0500 21.8845
103.1000 27.4534
103.1500 31.5434
103.2000 32.2463
103.2500 32.3499
103.3000 18.6494
103.3500 20.5561
103.4000 32.3493
103.4500 26.0413
103.5000 23.9911
103.5500 34.7135
103.6000 29.2608
103.6500 34.1333
103.7000 38.7488
103.7500 35.9899
103.8000 30.1687
103.8500 32.7026
103.9000 39.3515
103.9500 48.0144
104.0000 37.6419
104.0500 15.9377
104.1000 25.5860
104.1500 33.5640
104.2000 32.0031
104.2500 20.5750
104.3000 20.9624
104.3500 34.4827
104.4000 22.4969
104.4500 19.6457
104.5000 20.6385
104.5500 22.1473
104.6000 29.5891
104.6500 26.4528
104.7000 31.2270
104.7500 25.4134
104.8000 29.5530
104.8500 33.5917
104.9000 35.6404
104.9500 38.1513
105.0000 17.4229
105.0500 26.3802
105.1000 30.2428
105.1500 22.5184
105.2000 34.3408
105.2500 33.9516
105.3000 32.6820
105.3500 25.4462
105.4000 22.1952
105.4500 32.4641
105.5000 27.3729
105.5500 19.5010
105.6000 30.3324
105.6500 29.5065
105.7000 24.1368
105.7500 33.5259
105.8000 32.6632
105.8500 36.7617
105.9000 37.1938
105.9500 25.1088
106.0000 35.4103
106.0500 33.8242
106.1000 24.1971
106.1500 28.8274
106.2000 38.1589
106.2500 33.5459
106.3000 27.7102
106.3500 29.4368
106.4000 23.6995
106.4500 27.6060
106.5000 28.4322
106.5500 32.9829
106.6000 29.5384
106.6500 35.5387
106.7000 28.4787
106.7500 32.4815
106.8000 24.8706
106.8500 19.2335
106.9000 39.6625
106.9500 29.3213
107.0000 19.7891
107.0500 28.7354
107.1000 26.2722
107.1500 27.1405
107.2000 29.0902
107.2500 26.0423
107.3000 26.2778
107.3500 29.0888
107.4000 23.5974
107.4500 38.2277
107.5000 25.2132
107.5500 32.4266
107.6000 27.7157
107.6500 25.4500
107.7000 39.1217
107.7500 25.6466
107.8000 31.5880
107.8500 18.2417
107.9000 31.6963
107.9500 24.7599
108.0000 21.5108
108.0500 28.2925
108.1000 20.9918
108.1500 26.6509
108.2000 28.9761
108.2500 36.9865
108.3000 30.5540
108.3500 32.4250
108.4000 23.2300
108.4500 30.4698
108.5000 27.7777
108.5500 25.3884
108.6000 29.2568
108.6500 44.1959
108.7000 28.1159
108.7500 26.9375
108.8000 26.3677
108.8500 35.1585
108.9000 34.5490
108.9500 32.5542
109.0000 30.4306
109.0500 29.6172
109.1000 41.2361
109.1500 26.7850
109.2000 28.7850
109.2500 27.7244
109.3000 28.5075
109.3500 26.3159
109.4000 28.7932
109.4500 31.5751
109.5000 20.1884
109.5500 34.6361
109.6000 23.0819
109.6500 36.4489
109.7000 26.3469
109.7500 29.9928
109.8000 27.3955
109.8500 27.3207
109.9000 30.6427
109.9500 25.8440
110.0000 32.7367
110.0500 27.2068
110.1000 34.2568
110.1500 30.4998
110.2000 40.1329
110.2500 35.3972
110.3000 29.5647
110.3500 25.3247
110.4000 33.8593
110.4500 24.3176
110.5000 32.6181
110.5500 32.6052
110.6000 29.3357
110.6500 23.0304
110.7000 26.5956
110.7500 31.5991
110.8000 37.2452
110.8500 29.9987
110.9000 31.9794
110.9500 31.9909
111.0000 30.5229
111.0500 25.7050
111.1000 32.3494
111.1500 36.5235
111.2000 34.3702
111.2500 38.8492
111.3000 34.7199
111.3500 25.0712
111.4000 31.2118
111.4500 21.3679
111.5000 36.5971
111.5500 21.9348
111.6000 21.8790
111.6500 28.2208
111.7000 38.1389
111.7500 40.3580
111.8000 27.8999
111.8500 25.6966
111.9000 34.5748
111.9500 25.4319
112.0000 26.1320
112.0500 37.2597
112.1000 38.2690
112.1500 31.7621
112.2000 32.4425
112.2500 23.3376
112.3000 30.2204
112.3500 26.9403
112.4000 51.0823
112.4500 22.7681
112.5000 23.1995
112.5500 38.6487
112.6000 38.9082
112.6500 32.1542
112.7000 38.3343
112.7500 29.5030
112.8000 22.4385
112.8500 33.1307
112.9000 32.7779
112.9500 26.2154
113.0000 29.4890
113.0500 32.2930
113.1000 35.0495
113.1500 28.5349
113.2000 32.5121
113.2500 30.0063
113.3000 27.0924
113.3500 20.9648
113.4000 25.8692
113.4500 42.4230
113.5000 24.1800
113.5500 26.1144
113.6000 36.8168
113.6500 26.8806
113.7000 27.9340
113.7500 22.5404
113.8000 23.8665
113.8500 35.2897
113.9000 34.3286
113.9500 25.7700
114.0000 39.0861
114.0500 22.6829
114.1000 29.5767
114.1500 31.5716
114.2000 32.0833
114.2500 31.8068
114.3000 27.6110
114.3500 32.1388
114.4000 34.7947
114.4500 31.1168
114.5000 25.6644
114.5500 31.4533
114.6000 30.7991
114.6500 35.6384
114.7000 38.6374
114.7500 31.1270
114.8000 37.0925
114.8500 25.6100
114.9000 32.1896
114.9500 28.8473
115.0000 29.9559
115.0500 22.1800
115.1000 30.2283
115.1500 29.1344
115.2000 39.4083
115.2500 31.0756
115.3000 33.7175
115.3500 38.8076
115.4000 36.5851
115.4500 43.7360
115.5000 26.3600
115.5500 42.5467
115.6000 50.3045
115.6500 48.7972
115.7000 81.6289
115.7500 59.6668
115.8000 79.5370
115.8500 118.7734
115.9000 117.8677
115.9500 118.4533
116.0000 97.9417
116.0500 78.6555
116.1000 75.7502
116.1500 66.8134
116.2000 54.7843
116.2500 50.6683
116.3000 40.1655
116.3500 37.0197
116.4000 36.8351
116.4500 43.6271
116.5000 27.0601
116.5500 29.3246
116.6000 31.6559
116.6500 37.3441
116.7000 40.0224
116.7500 32.9829
116.8000 47.5990
116.8500 30.6450
116.9000 24.4831
116.9500 26.8137
117.0000 30.7409
117.0500 30.6035
117.1000 30.5007
117.1500 32.5554
117.2000 31.9489
117.2500 36.8209
117.3000 31.8863
117.3500 37.6551
117.4000 26.8922
117.4500 30.3955
117.5000 30.0522
117.5500 30.2407
117.6000 32.7600
117.6500 34.2159
117.7000 32.4775
117.7500 27.6555
117.8000 32.3531
117.8500 28.4245
117.9000 18.7661
117.9500 30.9669
118.0000 40.1264
118.0500 21.9773
118.1000 20.5990
118.1500 36.2960
118.2000 32.9171
118.2500 24.7816
118.3000 28.3492
118.3500 29.3031
118.4000 32.5036
118.4500 25.8929
118.5000 29.3929
118.5500 27.1206
118.6000 34.9137
118.6500 22.7281
118.7000 35.5720
118.7500 36.2941
118.8000 33.0311
118.8500 31.8484
118.9000 31.3093
118.9500 40.6078
119.0000 33.4851
119.0500 29.0245
119.1000 23.9239
119.1500 29.9586
119.2000 28.6507
119.2500 29.4759
119.3000 26.5076
119.3500 27.9320
119.4000 27.7192
119.4500 23.3509
119.5000 33.0925
119.5500 30.2559
119.6000 28.5345
119.6500 26.3521
119.7000 22.4829
119.7500 34.8537
119.8000 32.9997
119.8500 34.5723
119.9000 34.6407
119.9500 24.6449
120.0000 39.1985
120.0500 33.3772
120.1000 37.9316
120.1500 27.3005
120.2000 27.4978
120.2500 30.3002
120.3000 33.4444
120.3500 28.4562
120.4000 38.0309
120.4500 33.6388
120.5000 29.0511
120.5500 21.2014
120.6000 26.6108
120.6500 24.9989
120.7000 26.5246
120.7500 22.7669
120.8000 42.3334
120.8500 37.6536
120.9000 29.8654
120.9500 26.4353
121.0000 26.8155
121.0500 44.9809
121.1000 35.2060
121.1500 27.7988
121.2000 36.7021
121.2500 29.2900
121.3000 32.0285
121.3500 33.8890
121.4000 31.2136
121.4500 26.5511
121.5000 25.1497
121.5500 38.8632
121.6000 44.4125
121.6500 28.0878
121.7000 32.2661
121.7500 29.4240
121.8000 29.8850
121.8500 35.0721
121.9000 30.2715
121.9500 21.4592
122.0000 30.7368
122.0500 29.3197
122.1000 37.0467
122.1500 19.6810
122.2000 30.4989
122.2500 32.8165
122.3000 34.8788
122.3500 29.5657
122.4000 33.2383
122.4500 42.5742
122.5000 27.1564
122.5500 27.7533
122.6000 30.9128
122.6500 30.5675
122.7000 31.2515
122.7500 26.3238
122.8000 28.0293
122.8500 25.5636
122.9000 46.1468
122.9500 32.4829
123.0000 30.2539
123.0500 29.9116
123.1000 38.3605
123.1500 28.1795
123.2000 28.3684
123.2500 29.1823
123.3000 42.0389
123.3500 24.7085
123.4000 38.0185
123.4500 32.3702
123.5000 23.0795
123.5500 39.3804
123.6000 34.1784
123.6500 32.3548
123.7000 32.3720
123.7500 30.0060
123.8000 34.8678
123.8500 24.8403
123.9000 28.0043
123.9500 31.1734
124.0000 34.5366
124.0500 37.3425
124.1000 36.8934
124.1500 28.5125
124.2000 26.7123
124.2500 49.4963
124.3000 26.2446
124.3500 28.3712
124.4000 24.7766
124.4500 34.9616
124.5000 26.1426
124.5500 26.3881
124.6000 35.5784
124.6500 20.5573
124.7000 26.5227
124.7500 30.8597
124.8000 33.9256
124.8500 29.3943
124.9000 29.4041
124.9500 31.4155
125.0000 21.2664
125.0500 24.3132
125.1000 21.0193
125.1500 22.6168
125.2000 32.4528
125.2500 28.2000
125.3000 29.2764
125.3500 36.2151
125.4000 31.4621
125.4500 31.9341
125.5000 47.0042
125.5500 31.2487
125.6000 28.7831
125.6500 32.6405
125.7000 42.2271
125.7500 27.4742
125.8000 44.9212
125.8500 30.3358
125.9000 44.5841
125.9500 31.9933
126.0000 27.0746
126.0500 32.9694
126.1000 25.4394
126.1500 26.7009
126.2000 32.8819
126.2500 35.6089
126.3000 24.3120
126.3500 24.9526
126.4000 27.5941
126.4500 29.5325
126.5000 39.9807
126.5500 30.2274
126.6000 29.5510
126.6500 32.0890
126.7000 21.7262
126.7500 23.6816
126.8000 31.9586
126.8500 32.8372
126.9000 33.4053
126.9500 26.2389
127.0000 31.7487
127.0500 24.5900
127.1000 25.4384
127.1500 32.6896
127.2000 29.3681
127.2500 38.8861
127.3000 32.1382
127.3500 28.2513
127.4000 31.2711
127.4500 34.1163
127.5000 38.7481
127.5500 35.4632
127.6000 30.6704
127.6500 29.2236
127.7000 22.8906
127.7500 34.8772
127.8000 29.6889
127.8500 29.0443
127.9000 40.5936
127.9500 34.3862
128.0000 34.3648
128.0500 33.6678
128.1000 32.4002
128.1500 37.7174
128.2000 35.8854
128.2500 35.9539
128.3000 37.2212
128.3500 35.9703
128.4000 19.4698
128.4500 31.3226
128.5000 26.3337
128.5500 24.4643
128.6000 26.8446
128.6500 33.8231
128.7000 28.4809
128.7500 32.5702
128.8000 35.9139
128.8500 23.0250
128.9000 27.5975
128.9500 25.8937
129.0000 28.8063
129.0500 34.7675
129.1000 25.3985
129.1500 41.8985
129.2000 32.0760
129.2500 28.9487
129.3000 20.2371
129.3500 29.2615
129.4000 26.7746
129.4500 29.2315
129.5000 30.6221
129.5500 27.3163
129.6000 35.5910
129.6500 26.1667
129.7000 41.1347
129.7500 22.7818
129.8000 35.7748
129.8500 29.1626
129.9000 36.2798
129.9500 26.1066
130.0000 30.2920
