
#Surface 0 of 1 surfaces

#IsoCurve 0, 1801 points
#x y z type
 40  32.8095  0 i
 40.05  40.6882  0 i
 40.1  41.7609  0 i
 40.15  26.3189  0 i
 40.2  32.33  0 i
 40.25  50.5719  0 i
 40.3  33.7172  0 i
 40.35  34.3699  0 i
 40.4  46.0312  0 i
 40.45  44.3343  0 i
 40.5  43.3847  0 i
 40.55  57.5706  0 i
 40.6  47.5483  0 i
 40.65  37.3836  0 i
 40.7  41.309  0 i
 40.75  39.391  0 i
 40.8  46.2649  0 i
 40.85  25.5095  0 i
 40.9  39.0008  0 i
 40.95  53.503  0 i
 41  32.6666  0 i
 41.05  42.0479  0 i
 41.1  32.3173  0 i
 41.15  45.9824  0 i
 41.2  43.9077  0 i
 41.25  36.4939  0 i
 41.3  40.1126  0 i
 41.35  27.5702  0 i
 41.4  51.9872  0 i
 41.45  42.2894  0 i
 41.5  48.6126  0 i
 41.55  50.3441  0 i
 41.6  40.2758  0 i
 41.65  45.9989  0 i
 41.7  34.8588  0 i
 41.75  42.9304  0 i
 41.8  35.3736  0 i
 41.85  40.0042  0 i
 41.9  41.1497  0 i
 41.95  49.0183  0 i
 42  47.6068  0 i
 42.05  38.4398  0 i
 42.1  33.3927  0 i
 42.15  42.5414  0 i
 42.2  31.3685  0 i
 42.25  38.2851  0 i
 42.3  37.4214  0 i
 42.35  32.2043  0 i
 42.4  35.5602  0 i
 42.45  36.2267  0 i
 42.5  47.758  0 i
 42.55  44.71  0 i
 42.6  41.5702  0 i
 42.65  34.2013  0 i
 42.7  35.1044  0 i
 42.75  37.6059  0 i
 42.8  45.6207  0 i
 42.85  43.3374  0 i
 42.9  36.7306  0 i
 42.95  35.0842  0 i
 43  39.6317  0 i
 43.05  42.1473  0 i
 43.1  37.1083  0 i
 43.15  34.604  0 i
 43.2  52.5529  0 i
 43.25  42.1982  0 i
 43.3  46.1459  0 i
 43.35  44.3601  0 i
 43.4  47.4114  0 i
 43.45  43.5859  0 i
 43.5  40.4399  0 i
 43.55  35.7216  0 i
 43.6  47.2207  0 i
 43.65  40.7898  0 i
 43.7  45.4777  0 i
 43.75  38.7311  0 i
 43.8  39.7284  0 i
 43.85  52.8494  0 i
 43.9  41.133  0 i
 43.95  46.9411  0 i
 44  53.2641  0 i
 44.05  59.3574  0 i
 44.1  80.8262  0 i
 44.15  83.5984  0 i
 44.2  138.312  0 i
 44.25  392.567  0 i
 44.3  1190.74  0 i
 44.35  2145.92  0 i
 44.4  2204.15  0 i
 44.45  1394.93  0 i
 44.5  463.959  0 i
 44.55  157.52  0 i
 44.6  94.1035  0 i
 44.65  61.0503  0 i
 44.7  43.9344  0 i
 44.75  47.2426  0 i
 44.8  48.1024  0 i
 44.85  46.7701  0 i
 44.9  46.5079  0 i
 44.95  29.5209  0 i
 45  37.0064  0 i
 45.05  49.5887  0 i
 45.1  45.0633  0 i
 45.15  44.5612  0 i
 45.2  38.333  0 i
 45.25  43.8622  0 i
 45.3  36.7745  0 i
 45.35  37.8658  0 i
 45.4  39.7006  0 i
 45.45  41.8151  0 i
 45.5  33.5472  0 i
 45.55  25.607  0 i
 45.6  33.733  0 i
 45.65  36.9708  0 i
 45.7  29.5818  0 i
 45.75  39.005  0 i
 45.8  37.3798  0 i
 45.85  28.0447  0 i
 45.9  38.8193  0 i
 45.95  38.9153  0 i
 46  36.9279  0 i
 46.05  36.5368  0 i
 46.1  36.4881  0 i
 46.15  31.3719  0 i
 46.2  40.9421  0 i
 46.25  39.1949  0 i
 46.3  37.0945  0 i
 46.35  41.6502  0 i
 46.4  32.6853  0 i
 46.45  42.6253  0 i
 46.5  25.3648  0 i
 46.55  45.401  0 i
 46.6  37.5131  0 i
 46.65  30.7922  0 i
 46.7  38.6547  0 i
 46.75  31.8535  0 i
 46.8  41.9196  0 i
 46.85  24.3745  0 i
 46.9  25.0565  0 i
 46.95  31.3316  0 i
 47  45.1946  0 i
 47.05  30.2516  0 i
 47.1  35.6161  0 i
 47.15  35.1168  0 i
 47.2  33.1966  0 i
 47.25  48.7644  0 i
 47.3  37.9666  0 i
 47.35  34.7067  0 i
 47.4  41.7956  0 i
 47.45  51.4594  0 i
 47.5  46.5129  0 i
 47.55  34.283  0 i
 47.6  36.1432  0 i
 47.65  25.9586  0 i
 47.7  32.5646  0 i
 47.75  22.4306  0 i
 47.8  44.7657  0 i
 47.85  34.0758  0 i
 47.9  35.7483  0 i
 47.95  34.0369  0 i
 48  31.6065  0 i
 48.05  38.823  0 i
 48.1  47.8501  0 i
 48.15  35.7316  0 i
 48.2  33.6557  0 i
 48.25  33.0001  0 i
 48.3  38.8091  0 i
 48.35  27.2095  0 i
 48.4  37.9883  0 i
 48.45  35.979  0 i
 48.5  35.5586  0 i
 48.55  29.8559  0 i
 48.6  45.3092  0 i
 48.65  29.0571  0 i
 48.7  31.1843  0 i
 48.75  43.2607  0 i
 48.8  22.58  0 i
 48.85  39.1604  0 i
 48.9  43.1046  0 i
 48.95  29.663  0 i
 49  35.183  0 i
 49.05  39.0215  0 i
 49.1  43.2118  0 i
 49.15  33.3918  0 i
 49.2  49.0793  0 i
 49.25  31.6463  0 i
 49.3  29.2862  0 i
 49.35  24.694  0 i
 49.4  38.7589  0 i
 49.45  29.2544  0 i
 49.5  36.2015  0 i
 49.55  37.0152  0 i
 49.6  39.7352  0 i
 49.65  29.7691  0 i
 49.7  37.481  0 i
 49.75  34.5997  0 i
 49.8  37.754  0 i
 49.85  38.4657  0 i
 49.9  39.6662  0 i
 49.95  35.5276  0 i
 50  37.3379  0 i
 50.05  30.345  0 i
 50.1  26.3471  0 i
 50.15  23.3114  0 i
 50.2  43.3025  0 i
 50.25  39.2168  0 i
 50.3  32.3981  0 i
 50.35  27.3571  0 i
 50.4  48.0676  0 i
 50.45  26.5145  0 i
 50.5  35.1156  0 i
 50.55  34.3133  0 i
 50.6  38.7004  0 i
 50.65  36.3927  0 i
 50.7  37.8988  0 i
 50.75  34.1165  0 i
 50.8  36.6776  0 i
 50.85  20.9379  0 i
 50.9  31.0603  0 i
 50.95  30.6636  0 i
 51  34.8075  0 i
 51.05  35.2659  0 i
 51.1  39.2092  0 i
 51.15  29.6438  0 i
 51.2  46.4067  0 i
 51.25  34.9846  0 i
 51.3  28.5279  0 i
 51.35  31.5353  0 i
 51.4  36.8404  0 i
 51.45  43.7637  0 i
 51.5  47.0029  0 i
 51.55  27.7008  0 i
 51.6  31.9783  0 i
 51.65  36.6541  0 i
 51.7  38.2949  0 i
 51.75  26.6975  0 i
 51.8  36.6174  0 i
 51.85  39.9145  0 i
 51.9  32.4187  0 i
 51.95  31.3784  0 i
 52  39.8243  0 i
 52.05  26.6894  0 i
 52.1  29.6065  0 i
 52.15  37.836  0 i
 52.2  27.6758  0 i
 52.25  27.6075  0 i
 52.3  31.0522  0 i
 52.35  40.1136  0 i
 52.4  34.8713  0 i
 52.45  26.5819  0 i
 52.5  30.5678  0 i
 52.55  30.6045  0 i
 52.6  25.0134  0 i
 52.65  34.6604  0 i
 52.7  36.1657  0 i
 52.75  32.0806  0 i
 52.8  34.6946  0 i
 52.85  35.4098  0 i
 52.9  29.5094  0 i
 52.95  25.0831  0 i
 53  21.2101  0 i
 53.05  32.87  0 i
 53.1  33.3932  0 i
 53.15  32.1565  0 i
 53.2  36.9451  0 i
 53.25  29.0111  0 i
 53.3  33.6221  0 i
 53.35  28.3306  0 i
 53.4  26.2754  0 i
 53.45  30.2799  0 i
 53.5  28.5839  0 i
 53.55  26.7327  0 i
 53.6  25.6763  0 i
 53.65  24.6621  0 i
 53.7  22.5367  0 i
 53.75  36.6427  0 i
 53.8  32.288  0 i
 53.85  34.0382  0 i
 53.9  28.2444  0 i
 53.95  45.5052  0 i
 54  26.5973  0 i
 54.05  35.1395  0 i
 54.1  36.4222  0 i
 54.15  33.84  0 i
 54.2  39.2608  0 i
 54.25  25.6917  0 i
 54.3  38.4453  0 i
 54.35  41.3684  0 i
 54.4  32.8489  0 i
 54.45  30.9127  0 i
 54.5  17.7951  0 i
 54.55  30.5149  0 i
 54.6  30.8413  0 i
 54.65  36.2659  0 i
 54.7  37.4733  0 i
 54.75  27.2901  0 i
 54.8  25.4278  0 i
 54.85  31.0922  0 i
 54.9  33.1259  0 i
 54.95  25.5753  0 i
 55  33.8071  0 i
 55.05  31.0447  0 i
 55.1  28.6293  0 i
 55.15  34.2096  0 i
 55.2  28.7767  0 i
 55.25  30.3111  0 i
 55.3  34.1279  0 i
 55.35  22.0723  0 i
 55.4  32.3227  0 i
 55.45  27.3187  0 i
 55.5  26.6508  0 i
 55.55  30.7094  0 i
 55.6  33.9447  0 i
 55.65  38.0892  0 i
 55.7  31.0691  0 i
 55.75  30.7844  0 i
 55.8  20.095  0 i
 55.85  39.0051  0 i
 55.9  38.8235  0 i
 55.95  36.3211  0 i
 56  31.0978  0 i
 56.05  32.1917  0 i
 56.1  33.5586  0 i
 56.15  37.7483  0 i
 56.2  35.4374  0 i
 56.25  30.5939  0 i
 56.3  30.444  0 i
 56.35  34.1279  0 i
 56.4  28.1789  0 i
 56.45  29.8384  0 i
 56.5  33.8738  0 i
 56.55  33.6288  0 i
 56.6  28.1772  0 i
 56.65  26.8478  0 i
 56.7  41.6741  0 i
 56.75  34.8706  0 i
 56.8  34.7819  0 i
 56.85  20.6756  0 i
 56.9  33.4084  0 i
 56.95  37.83  0 i
 57  40.1081  0 i
 57.05  28.9264  0 i
 57.1  24.2763  0 i
 57.15  27.3354  0 i
 57.2  33.405  0 i
 57.25  31.2197  0 i
 57.3  30.0479  0 i
 57.35  32.9353  0 i
 57.4  29.9539  0 i
 57.45  37.6449  0 i
 57.5  40.4288  0 i
 57.55  38.097  0 i
 57.6  32.721  0 i
 57.65  41.4696  0 i
 57.7  24.3259  0 i
 57.75  33.9219  0 i
 57.8  28.2423  0 i
 57.85  26.0667  0 i
 57.9  33.4522  0 i
 57.95  29.7894  0 i
 58  35.2334  0 i
 58.05  32.6186  0 i
 58.1  27.469  0 i
 58.15  31.5788  0 i
 58.2  33.1775  0 i
 58.25  36.5115  0 i
 58.3  29.0276  0 i
 58.35  32.3164  0 i
 58.4  22.7806  0 i
 58.45  22.8232  0 i
 58.5  43.3491  0 i
 58.55  21.7028  0 i
 58.6  26.6112  0 i
 58.65  34.6359  0 i
 58.7  27.8155  0 i
 58.75  35.4755  0 i
 58.8  29.4073  0 i
 58.85  30.7699  0 i
 58.9  30.3599  0 i
 58.95  34.2424  0 i
 59  29.7757  0 i
 59.05  28.4216  0 i
 59.1  33.8073  0 i
 59.15  29.1029  0 i
 59.2  41.9869  0 i
 59.25  36.6039  0 i
 59.3  40.5562  0 i
 59.35  35.8112  0 i
 59.4  37.7548  0 i
 59.45  34.0503  0 i
 59.5  27.0223  0 i
 59.55  22.6693  0 i
 59.6  28.5806  0 i
 59.65  30.7391  0 i
 59.7  36.9574  0 i
 59.75  37.5086  0 i
 59.8  29.5289  0 i
 59.85  30.8732  0 i
 59.9  29.5648  0 i
 59.95  30.3999  0 i
 60  34.24  0 i
 60.05  30.1642  0 i
 60.1  35.7533  0 i
 60.15  33.9229  0 i
 60.2  22.1549  0 i
 60.25  29.1428  0 i
 60.3  24.2963  0 i
 60.35  35.0478  0 i
 60.4  31.1855  0 i
 60.45  24.8213  0 i
 60.5  24.0012  0 i
 60.55  21.722  0 i
 60.6  36.4496  0 i
 60.65  31.0684  0 i
 60.7  27.1536  0 i
 60.75  35.7438  0 i
 60.8  31.4977  0 i
 60.85  35.4255  0 i
 60.9  37.1516  0 i
 60.95  37.5106  0 i
 61  22.5203  0 i
 61.05  30.0659  0 i
 61.1  33.8898  0 i
 61.15  27.9715  0 i
 61.2  26.2376  0 i
 61.25  29.5348  0 i
 61.3  27.5226  0 i
 61.35  34.3228  0 i
 61.4  36.0162  0 i
 61.45  41.8521  0 i
 61.5  27.6923  0 i
 61.55  44.7228  0 i
 61.6  34.704  0 i
 61.65  24.3879  0 i
 61.7  28.8028  0 i
 61.75  34.8319  0 i
 61.8  31.9677  0 i
 61.85  40.7269  0 i
 61.9  30.7378  0 i
 61.95  29.9762  0 i
 62  34.1608  0 i
 62.05  32.7391  0 i
 62.1  28.8445  0 i
 62.15  34.6749  0 i
 62.2  24.3593  0 i
 62.25  32.2712  0 i
 62.3  35.6898  0 i
 62.35  34.3387  0 i
 62.4  31.275  0 i
 62.45  26.2131  0 i
 62.5  31.1881  0 i
 62.55  27.3456  0 i
 62.6  33.729  0 i
 62.65  15.1703  0 i
 62.7  33.1497  0 i
 62.75  36.4138  0 i
 62.8  39.9282  0 i
 62.85  33.0167  0 i
 62.9  34.7475  0 i
 62.95  34.756  0 i
 63  38.6224  0 i
 63.05  30.073  0 i
 63.1  31.109  0 i
 63.15  32.2361  0 i
 63.2  30.2574  0 i
 63.25  25.1663  0 i
 63.3  20.0534  0 i
 63.35  31.507  0 i
 63.4  32.4217  0 i
 63.45  33.311  0 i
 63.5  38.7023  0 i
 63.55  25.3026  0 i
 63.6  31.3165  0 i
 63.65  42.537  0 i
 63.7  28.599  0 i
 63.75  34.5703  0 i
 63.8  32.0585  0 i
 63.85  40.7887  0 i
 63.9  30.3573  0 i
 63.95  21.267  0 i
 64  39.6988  0 i
 64.05  29.4747  0 i
 64.1  41.7243  0 i
 64.15  29.348  0 i
 64.2  29.032  0 i
 64.25  32.4251  0 i
 64.3  31.3294  0 i
 64.35  37.3869  0 i
 64.4  52.6063  0 i
 64.45  43.5261  0 i
 64.5  54.5873  0 i
 64.55  71.8198  0 i
 64.6  95.7471  0 i
 64.65  147.172  0 i
 64.7  143.17  0 i
 64.75  146.525  0 i
 64.8  110.841  0 i
 64.85  61.2702  0 i
 64.9  48.4399  0 i
 64.95  44.6754  0 i
 65  28.8759  0 i
 65.05  43.3262  0 i
 65.1  40.8427  0 i
 65.15  31.0228  0 i
 65.2  38.8475  0 i
 65.25  28.8715  0 i
 65.3  23.9282  0 i
 65.35  31.8711  0 i
 65.4  29.0861  0 i
 65.45  30.0581  0 i
 65.5  34.0982  0 i
 65.55  33.9777  0 i
 65.6  33.1103  0 i
 65.65  33.6556  0 i
 65.7  31.269  0 i
 65.75  25.3012  0 i
 65.8  33.5548  0 i
 65.85  27.8991  0 i
 65.9  28.574  0 i
 65.95  35.8912  0 i
 66  40.2616  0 i
 66.05  30.2492  0 i
 66.1  34.0659  0 i
 66.15  24.1911  0 i
 66.2  29.5415  0 i
 66.25  32.3935  0 i
 66.3  30.1299  0 i
 66.35  31.6793  0 i
 66.4  30.3959  0 i
 66.45  31.5952  0 i
 66.5  30.3447  0 i
 66.55  33.2434  0 i
 66.6  38.8516  0 i
 66.65  30.2676  0 i
 66.7  28.5017  0 i
 66.75  19.0604  0 i
 66.8  35.2528  0 i
 66.85  26.0749  0 i
 66.9  26.5897  0 i
 66.95  18.4592  0 i
 67  20.7575  0 i
 67.05  22.3358  0 i
 67.1  29.9516  0 i
 67.15  22.3857  0 i
 67.2  27.9839  0 i
 67.25  30.2497  0 i
 67.3  38.2852  0 i
 67.35  34.2007  0 i
 67.4  37.2847  0 i
 67.45  36.0969  0 i
 67.5  20.5105  0 i
 67.55  27.8202  0 i
 67.6  30.3019  0 i
 67.65  29.7986  0 i
 67.7  31.4794  0 i
 67.75  26.0345  0 i
 67.8  30.0404  0 i
 67.85  32.4864  0 i
 67.9  33.2225  0 i
 67.95  39.5497  0 i
 68  29.7614  0 i
 68.05  32.1448  0 i
 68.1  34.205  0 i
 68.15  31.8531  0 i
 68.2  34.843  0 i
 68.25  33.0112  0 i
 68.3  39.3336  0 i
 68.35  32.306  0 i
 68.4  35.6245  0 i
 68.45  33.0939  0 i
 68.5  37.0905  0 i
 68.55  34.9457  0 i
 68.6  35.3693  0 i
 68.65  30.0402  0 i
 68.7  31.009  0 i
 68.75  37.9271  0 i
 68.8  45.2408  0 i
 68.85  25.2565  0 i
 68.9  29.8637  0 i
 68.95  33.5099  0 i
 69  23.4381  0 i
 69.05  24.7011  0 i
 69.1  33.0489  0 i
 69.15  41.8592  0 i
 69.2  31.302  0 i
 69.25  24.955  0 i
 69.3  36.8526  0 i
 69.35  41.4621  0 i
 69.4  24.7531  0 i
 69.45  24.0327  0 i
 69.5  24.1144  0 i
 69.55  34.1912  0 i
 69.6  31.6096  0 i
 69.65  33.6265  0 i
 69.7  36.2511  0 i
 69.75  25.0342  0 i
 69.8  28.2581  0 i
 69.85  27.0396  0 i
 69.9  29.5746  0 i
 69.95  28.9202  0 i
 70  32.1023  0 i
 70.05  37.6829  0 i
 70.1  38.5431  0 i
 70.15  35.2325  0 i
 70.2  29.2141  0 i
 70.25  33.049  0 i
 70.3  26.9976  0 i
 70.35  34.7301  0 i
 70.4  32.7333  0 i
 70.45  27.3366  0 i
 70.5  37.0838  0 i
 70.55  42.2821  0 i
 70.6  32.4815  0 i
 70.65  38.7101  0 i
 70.7  25.3116  0 i
 70.75  21.9016  0 i
 70.8  29.577  0 i
 70.85  29.4128  0 i
 70.9  32.0864  0 i
 70.95  26.6492  0 i
 71  25.4033  0 i
 71.05  36.5147  0 i
 71.1  38.0788  0 i
 71.15  37.3702  0 i
 71.2  35.3704  0 i
 71.25  27.0172  0 i
 71.3  30.1131  0 i
 71.35  27.5509  0 i
 71.4  30.2825  0 i
 71.45  38.3375  0 i
 71.5  35.5068  0 i
 71.55  26.1223  0 i
 71.6  26.8028  0 i
 71.65  29.7564  0 i
 71.7  26.0009  0 i
 71.75  39.2484  0 i
 71.8  33.1188  0 i
 71.85  31.6005  0 i
 71.9  31.688  0 i
 71.95  21.3137  0 i
 72  27.0891  0 i
 72.05  26.7844  0 i
 72.1  24.1061  0 i
 72.15  42.7356  0 i
 72.2  38.9412  0 i
 72.25  31.6194  0 i
 72.3  28.5195  0 i
 72.35  35.9262  0 i
 72.4  37.1682  0 i
 72.45  29.138  0 i
 72.5  30.462  0 i
 72.55  33.721  0 i
 72.6  36.2425  0 i
 72.65  42.0683  0 i
 72.7  40.3335  0 i
 72.75  28.4626  0 i
 72.8  34.1511  0 i
 72.85  25.2855  0 i
 72.9  36.7955  0 i
 72.95  26.8767  0 i
 73  31.0377  0 i
 73.05  33.8779  0 i
 73.1  42.7294  0 i
 73.15  39.1383  0 i
 73.2  26.0051  0 i
 73.25  29.264  0 i
 73.3  33.9172  0 i
 73.35  26.1984  0 i
 73.4  36.5357  0 i
 73.45  31.7784  0 i
 73.5  25.5004  0 i
 73.55  28.5828  0 i
 73.6  34.0311  0 i
 73.65  26.5168  0 i
 73.7  28.6854  0 i
 73.75  28.9308  0 i
 73.8  24.7864  0 i
 73.85  28.2544  0 i
 73.9  30.7223  0 i
 73.95  35.0867  0 i
 74  33.3259  0 i
 74.05  36.1568  0 i
 74.1  25.9354  0 i
 74.15  31.6347  0 i
 74.2  44.2284  0 i
 74.25  38.3471  0 i
 74.3  28.5777  0 i
 74.35  29.0792  0 i
 74.4  34.6723  0 i
 74.45  22.0468  0 i
 74.5  32.9033  0 i
 74.55  26.4591  0 i
 74.6  28.8698  0 i
 74.65  33.2409  0 i
 74.7  26.8615  0 i
 74.75  23.2069  0 i
 74.8  33.8808  0 i
 74.85  32.4833  0 i
 74.9  25.8164  0 i
 74.95  29.7948  0 i
 75  29.8402  0 i
 75.05  37.1528  0 i
 75.1  42.6646  0 i
 75.15  24.5313  0 i
 75.2  36.9823  0 i
 75.25  38.567  0 i
 75.3  34.8385  0 i
 75.35  27.7497  0 i
 75.4  29.4477  0 i
 75.45  28.7616  0 i
 75.5  28.8569  0 i
 75.55  36.416  0 i
 75.6  32.216  0 i
 75.65  29.3742  0 i
 75.7  31.6498  0 i
 75.75  38.3506  0 i
 75.8  27.9466  0 i
 75.85  35.2522  0 i
 75.9  31.7027  0 i
 75.95  30.6807  0 i
 76  36.9304  0 i
 76.05  30.5761  0 i
 76.1  40.0557  0 i
 76.15  25.7037  0 i
 76.2  27.9233  0 i
 76.25  22.5955  0 i
 76.3  24.2763  0 i
 76.35  23.7351  0 i
 76.4  28.6926  0 i
 76.45  31.0425  0 i
 76.5  36.7097  0 i
 76.55  21.498  0 i
 76.6  24.6282  0 i
 76.65  38.8337  0 i
 76.7  29.7593  0 i
 76.75  34.5999  0 i
 76.8  25.5487  0 i
 76.85  38.3758  0 i
 76.9  27.4042  0 i
 76.95  25.4069  0 i
 77  28.0915  0 i
 77.05  25.7078  0 i
 77.1  22.9585  0 i
 77.15  29.2498  0 i
 77.2  33.7749  0 i
 77.25  28.5813  0 i
 77.3  34.3145  0 i
 77.35  33.5933  0 i
 77.4  29.742  0 i
 77.45  30.2486  0 i
 77.5  37.5245  0 i
 77.55  46.6075  0 i
 77.6  34.7187  0 i
 77.65  22.2203  0 i
 77.7  35.2264  0 i
 77.75  35.725  0 i
 77.8  31.9111  0 i
 77.85  33.9423  0 i
 77.9  30.72  0 i
 77.95  32.1548  0 i
 78  14.7  0 i
 78.05  17.0275  0 i
 78.1  23.7139  0 i
 78.15  32.0725  0 i
 78.2  30.5846  0 i
 78.25  30.6304  0 i
 78.3  37.6771  0 i
 78.35  37.2759  0 i
 78.4  21.4301  0 i
 78.45  39.611  0 i
 78.5  30.5158  0 i
 78.55  35.0383  0 i
 78.6  28.5973  0 i
 78.65  25.8054  0 i
 78.7  26.6825  0 i
 78.75  37.9297  0 i
 78.8  30.0217  0 i
 78.85  35.2462  0 i
 78.9  26.3993  0 i
 78.95  23.5532  0 i
 79  35.4603  0 i
 79.05  25.733  0 i
 79.1  29.5214  0 i
 79.15  32.4563  0 i
 79.2  33.106  0 i
 79.25  31.5452  0 i
 79.3  37.0217  0 i
 79.35  38.5571  0 i
 79.4  31.9384  0 i
 79.45  33.6301  0 i
 79.5  34.0742  0 i
 79.55  30.9355  0 i
 79.6  25.9518  0 i
 79.65  35.2429  0 i
 79.7  29.6179  0 i
 79.75  27.9188  0 i
 79.8  25.7615  0 i
 79.85  26.5696  0 i
 79.9  36.9713  0 i
 79.95  24.8874  0 i
 80  29.8629  0 i
 80.05  25.7065  0 i
 80.1  29.4916  0 i
 80.15  33.0995  0 i
 80.2  31.2647  0 i
 80.25  32.6057  0 i
 80.3  34.1919  0 i
 80.35  27.3403  0 i
 80.4  29.4114  0 i
 80.45  22.2075  0 i
 80.5  40.1449  0 i
 80.55  32.7588  0 i
 80.6  27.5808  0 i
 80.65  43.4474  0 i
 80.7  36.0074  0 i
 80.75  29.2687  0 i
 80.8  34.636  0 i
 80.85  35.2918  0 i
 80.9  26.2795  0 i
 80.95  26.4856  0 i
 81  26.9395  0 i
 81.05  40.8687  0 i
 81.1  33.6419  0 i
 81.15  22.2113  0 i
 81.2  28.7859  0 i
 81.25  29.9064  0 i
 81.3  34.6497  0 i
 81.35  30.325  0 i
 81.4  21.5729  0 i
 81.45  34.5984  0 i
 81.5  27.707  0 i
 81.55  30.8191  0 i
 81.6  44.5116  0 i
 81.65  31.6855  0 i
 81.7  42.1954  0 i
 81.75  60.6146  0 i
 81.8  89.7925  0 i
 81.85  137.69  0 i
 81.9  194.638  0 i
 81.95  260.161  0 i
 82  254.034  0 i
 82.05  204.107  0 i
 82.1  118.862  0 i
 82.15  77.7442  0 i
 82.2  70.9091  0 i
 82.25  53.2715  0 i
 82.3  48.6772  0 i
 82.35  45.9897  0 i
 82.4  29.5694  0 i
 82.45  34.1888  0 i
 82.5  44.4062  0 i
 82.55  30.0597  0 i
 82.6  27.5031  0 i
 82.65  25.4779  0 i
 82.7  32.6956  0 i
 82.75  33.2279  0 i
 82.8  38.9131  0 i
 82.85  31.9996  0 i
 82.9  35.6172  0 i
 82.95  22.0346  0 i
 83  32.3969  0 i
 83.05  33.8844  0 i
 83.1  33.3036  0 i
 83.15  26.2334  0 i
 83.2  30.1081  0 i
 83.25  32.4281  0 i
 83.3  24.1327  0 i
 83.35  31.766  0 i
 83.4  28.7669  0 i
 83.45  34.473  0 i
 83.5  40.326  0 i
 83.55  26.8521  0 i
 83.6  40.6522  0 i
 83.65  29.4825  0 i
 83.7  44.4967  0 i
 83.75  25.3902  0 i
 83.8  22.03  0 i
 83.85  27.5828  0 i
 83.9  26.5596  0 i
 83.95  25.2766  0 i
 84  34.0983  0 i
 84.05  26.9567  0 i
 84.1  20.3862  0 i
 84.15  37.6622  0 i
 84.2  37.0831  0 i
 84.25  27.5837  0 i
 84.3  32.5364  0 i
 84.35  30.0902  0 i
 84.4  30.5687  0 i
 84.45  32.9979  0 i
 84.5  32.7026  0 i
 84.55  42.7132  0 i
 84.6  33.7599  0 i
 84.65  30.1768  0 i
 84.7  20.3154  0 i
 84.75  28.6281  0 i
 84.8  26.0399  0 i
 84.85  33.3453  0 i
 84.9  32.7773  0 i
 84.95  33.1086  0 i
 85  20.5379  0 i
 85.05  28.5753  0 i
 85.1  27.8534  0 i
 85.15  28.2325  0 i
 85.2  26.573  0 i
 85.25  25.9598  0 i
 85.3  33.2355  0 i
 85.35  32.4848  0 i
 85.4  18.2391  0 i
 85.45  31.7226  0 i
 85.5  33.3978  0 i
 85.55  40.9085  0 i
 85.6  29.5176  0 i
 85.65  24.173  0 i
 85.7  29.7253  0 i
 85.75  35.3358  0 i
 85.8  33.8175  0 i
 85.85  26.8919  0 i
 85.9  18.4857  0 i
 85.95  26.4386  0 i
 86  40.3429  0 i
 86.05  28.8887  0 i
 86.1  37.9128  0 i
 86.15  27.7644  0 i
 86.2  26.2653  0 i
 86.25  23.7301  0 i
 86.3  30.9844  0 i
 86.35  33.5106  0 i
 86.4  38.3874  0 i
 86.45  25.5161  0 i
 86.5  31.684  0 i
 86.55  31.9667  0 i
 86.6  33.8411  0 i
 86.65  35.2442  0 i
 86.7  27.1768  0 i
 86.75  23.1391  0 i
 86.8  31.8265  0 i
 86.85  32.4849  0 i
 86.9  20.1206  0 i
 86.95  21.9158  0 i
 87  27.2503  0 i
 87.05  29.6437  0 i
 87.1  27.9675  0 i
 87.15  33.5611  0 i
 87.2  36.5537  0 i
 87.25  43.6533  0 i
 87.3  37.1998  0 i
 87.35  31.0698  0 i
 87.4  24.9694  0 i
 87.45  26.1157  0 i
 87.5  33.8027  0 i
 87.55  33.9555  0 i
 87.6  39.3619  0 i
 87.65  43.4963  0 i
 87.7  32.0786  0 i
 87.75  32.7088  0 i
 87.8  19.1188  0 i
 87.85  27.0428  0 i
 87.9  22.5853  0 i
 87.95  37.2368  0 i
 88  31.3493  0 i
 88.05  26.5622  0 i
 88.1  28.1449  0 i
 88.15  34.8607  0 i
 88.2  18.2041  0 i
 88.25  22.1264  0 i
 88.3  22.4529  0 i
 88.35  28.4671  0 i
 88.4  30.8991  0 i
 88.45  35.3744  0 i
 88.5  32.1532  0 i
 88.55  34.7205  0 i
 88.6  28.3794  0 i
 88.65  43.218  0 i
 88.7  35.0098  0 i
 88.75  29.7989  0 i
 88.8  28.5269  0 i
 88.85  29.15  0 i
 88.9  32.7601  0 i
 88.95  29.8263  0 i
 89  32.3781  0 i
 89.05  23.4663  0 i
 89.1  26.1254  0 i
 89.15  28.7908  0 i
 89.2  32.7226  0 i
 89.25  37.838  0 i
 89.3  36.0746  0 i
 89.35  32.5603  0 i
 89.4  35.6182  0 i
 89.45  24.947  0 i
 89.5  27.7455  0 i
 89.55  33.1479  0 i
 89.6  25.5686  0 i
 89.65  32.5261  0 i
 89.7  23.5601  0 i
 89.75  32.9739  0 i
 89.8  28.6079  0 i
 89.85  27.0227  0 i
 89.9  28.2734  0 i
 89.95  30.0552  0 i
 90  31.0868  0 i
 90.05  34.7105  0 i
 90.1  27.7266  0 i
 90.15  27.2002  0 i
 90.2  32.0719  0 i
 90.25  32.6457  0 i
 90.3  24.5172  0 i
 90.35  26.4209  0 i
 90.4  32.9744  0 i
 90.45  32.9103  0 i
 90.5  32.1484  0 i
 90.55  36.5445  0 i
 90.6  29.1974  0 i
 90.65  34.3247  0 i
 90.7  25.3025  0 i
 90.75  35.0903  0 i
 90.8  21.2491  0 i
 90.85  34.6258  0 i
 90.9  33.3813  0 i
 90.95  29.0649  0 i
 91  23.8316  0 i
 91.05  33.0797  0 i
 91.1  21.7368  0 i
 91.15  33.3115  0 i
 91.2  34.8539  0 i
 91.25  34.3252  0 i
 91.3  31.5315  0 i
 91.35  28.2996  0 i
 91.4  22.5308  0 i
 91.45  28.3899  0 i
 91.5  26.12  0 i
 91.55  31.8768  0 i
 91.6  35.757  0 i
 91.65  30.9978  0 i
 91.7  31.5693  0 i
 91.75  36.4004  0 i
 91.8  25.299  0 i
 91.85  29.5212  0 i
 91.9  27.9936  0 i
 91.95  19.9982  0 i
 92  39.5915  0 i
 92.05  37.6918  0 i
 92.1  46.804  0 i
 92.15  31.5593  0 i
 92.2  29.0668  0 i
 92.25  25.9438  0 i
 92.3  22.9548  0 i
 92.35  28.1215  0 i
 92.4  24.8385  0 i
 92.45  30.5696  0 i
 92.5  29.5751  0 i
 92.55  26.0049  0 i
 92.6  34.779  0 i
 92.65  30.6093  0 i
 92.7  28.4161  0 i
 92.75  23.6228  0 i
 92.8  32.8559  0 i
 92.85  18.7353  0 i
 92.9  24.2247  0 i
 92.95  24.2396  0 i
 93  33.7933  0 i
 93.05  28.4672  0 i
 93.1  25.7424  0 i
 93.15  39.8344  0 i
 93.2  41.7251  0 i
 93.25  33.8838  0 i
 93.3  20.3238  0 i
 93.35  39.0933  0 i
 93.4  39.6545  0 i
 93.45  31.4443  0 i
 93.5  22.1367  0 i
 93.55  35.4016  0 i
 93.6  32.367  0 i
 93.65  31.6115  0 i
 93.7  23.2938  0 i
 93.75  36.6327  0 i
 93.8  26.9603  0 i
 93.85  33.4111  0 i
 93.9  32.1916  0 i
 93.95  23.6816  0 i
 94  22.3576  0 i
 94.05  14.2573  0 i
 94.1  36.2526  0 i
 94.15  23.5148  0 i
 94.2  27.3396  0 i
 94.25  21.6574  0 i
 94.3  11.1114  0 i
 94.35  28.2  0 i
 94.4  21.7662  0 i
 94.45  22.9934  0 i
 94.5  35.3522  0 i
 94.55  34.1056  0 i
 94.6  27.5891  0 i
 94.65  30.4366  0 i
 94.7  26.55  0 i
 94.75  24.0293  0 i
 94.8  34.61  0 i
 94.85  34.6214  0 i
 94.9  39.0814  0 i
 94.95  25.1538  0 i
 95  25.0339  0 i
 95.05  28.9421  0 i
 95.1  35.1291  0 i
 95.15  47.416  0 i
 95.2  37.6808  0 i
 95.25  36.8447  0 i
 95.3  32.1807  0 i
 95.35  23.962  0 i
 95.4  29.0775  0 i
 95.45  33.0651  0 i
 95.5  29.8733  0 i
 95.55  26.3085  0 i
 95.6  32.9095  0 i
 95.65  28.0736  0 i
 95.7  28.6124  0 i
 95.75  25.2239  0 i
 95.8  25.3985  0 i
 95.85  26.5845  0 i
 95.9  27.8283  0 i
 95.95  27.9558  0 i
 96  27.1601  0 i
 96.05  38.2449  0 i
 96.1  30.4586  0 i
 96.15  32.6296  0 i
 96.2  26.6025  0 i
 96.25  25.663  0 i
 96.3  32.515  0 i
 96.35  29.7612  0 i
 96.4  23.1198  0 i
 96.45  28.7171  0 i
 96.5  29.3429  0 i
 96.55  37.4551  0 i
 96.6  30.5773  0 i
 96.65  23.3588  0 i
 96.7  23.6464  0 i
 96.75  22.1826  0 i
 96.8  37.0544  0 i
 96.85  17.2752  0 i
 96.9  34.6712  0 i
 96.95  23.9084  0 i
 97  31.8038  0 i
 97.05  36.9129  0 i
 97.1  34.7624  0 i
 97.15  30.0266  0 i
 97.2  23.2935  0 i
 97.25  35.8004  0 i
 97.3  34.6959  0 i
 97.35  25.1129  0 i
 97.4  34.7971  0 i
 97.45  25.3042  0 i
 97.5  31.5845  0 i
 97.55  31.759  0 i
 97.6  31.0632  0 i
 97.65  27.5842  0 i
 97.7  29.4484  0 i
 97.75  32.3644  0 i
 97.8  31.3061  0 i
 97.85  30.7992  0 i
 97.9  34.3891  0 i
 97.95  35.5614  0 i
 98  34.8409  0 i
 98.05  33.5251  0 i
 98.1  25.1117  0 i
 98.15  31.9201  0 i
 98.2  40.1169  0 i
 98.25  40.5001  0 i
 98.3  52.5817  0 i
 98.35  55.6758  0 i
 98.4  66.8974  0 i
 98.45  105.07  0 i
 98.5  140.058  0 i
 98.55  175.927  0 i
 98.6  124.981  0 i
 98.65  78.9094  0 i
 98.7  67.3591  0 i
 98.75  60.397  0 i
 98.8  44.582  0 i
 98.85  50.7703  0 i
 98.9  30.3798  0 i
 98.95  31.6021  0 i
 99  34.9539  0 i
 99.05  39.018  0 i
 99.1  34.8669  0 i
 99.15  41.057  0 i
 99.2  28.0278  0 i
 99.25  31.3766  0 i
 99.3  26.3333  0 i
 99.35  26.3873  0 i
 99.4  21.0773  0 i
 99.45  33.1438  0 i
 99.5  27.754  0 i
 99.55  29.6985  0 i
 99.6  22.0912  0 i
 99.65  27.2464  0 i
 99.7  25.2434  0 i
 99.75  30.7856  0 i
 99.8  22.4339  0 i
 99.85  29.7073  0 i
 99.9  37.9878  0 i
 99.95  21.5245  0 i
 100  32.5901  0 i
 100.05  26.4881  0 i
 100.1  39.8879  0 i
 100.15  18.799  0 i
 100.2  38.7486  0 i
 100.25  31.1408  0 i
 100.3  30.4901  0 i
 100.35  34.3874  0 i
 100.4  37.1859  0 i
 100.45  30.8524  0 i
 100.5  19.4891  0 i
 100.55  29.7992  0 i
 100.6  29.5376  0 i
 100.65  38.5564  0 i
 100.7  26.0956  0 i
 100.75  30.077  0 i
 100.8  33.9837  0 i
 100.85  28.92  0 i
 100.9  30.2278  0 i
 100.95  20.721  0 i
 101  44.2365  0 i
 101.05  31.1806  0 i
 101.1  25.4367  0 i
 101.15  35.9524  0 i
 101.2  24.3647  0 i
 101.25  37.0395  0 i
 101.3  21.6718  0 i
 101.35  24.2423  0 i
 101.4  25.386  0 i
 101.45  21.7505  0 i
 101.5  27.2492  0 i
 101.55  38.5018  0 i
 101.6  36.5708  0 i
 101.65  37.2841  0 i
 101.7  25.2846  0 i
 101.75  24.9797  0 i
 101.8  25.1967  0 i
 101.85  34.3481  0 i
 101.9  33.5737  0 i
 101.95  32.4348  0 i
 102  34.7724  0 i
 102.05  30.7786  0 i
 102.1  32.737  0 i
 102.15  32.5963  0 i
 102.2  32.7667  0 i
 102.25  30.983  0 i
 102.3  31.636  0 i
 102.35  33.2615  0 i
 102.4  32.4789  0 i
 102.45  28.5972  0 i
 102.5  23.7894  0 i
 102.55  28.892  0 i
 102.6  35.679  0 i
 102.65  26.7693  0 i
 102.7  33.8185  0 i
 102.75  38.3506  0 i
 102.8  27.3771  0 i
 102.85  30.0602  0 i
 102.9  31.7875  0 i
 102.95  33.0824  0 i
 103  31.8736  0 i
 103.05  21.8845  0 i
 103.1  27.4534  0 i
 103.15  31.5434  0 i
 103.2  32.2463  0 i
 103.25  32.3499  0 i
 103.3  18.6494  0 i
 103.35  20.5561  0 i
 103.4  32.3493  0 i
 103.45  26.0413  0 i
 103.5  23.9911  0 i
 103.55  34.7135  0 i
 103.6  29.2608  0 i
 103.65  34.1333  0 i
 103.7  38.7488  0 i
 103.75  35.9899  0 i
 103.8  30.1687  0 i
 103.85  32.7026  0 i
 103.9  39.3515  0 i
 103.95  48.0144  0 i
 104  37.6419  0 i
 104.05  15.9377  0 i
 104.1  25.586  0 i
 104.15  33.564  0 i
 104.2  32.0031  0 i
 104.25  20.575  0 i
 104.3  20.9624  0 i
 104.35  34.4827  0 i
 104.4  22.4969  0 i
 104.45  19.6457  0 i
 104.5  20.6385  0 i
 104.55  22.1473  0 i
 104.6  29.5891  0 i
 104.65  26.4528  0 i
 104.7  31.227  0 i
 104.75  25.4134  0 i
 104.8  29.553  0 i
 104.85  33.5917  0 i
 104.9  35.6404  0 i
 104.95  38.1513  0 i
 105  17.4229  0 i
 105.05  26.3802  0 i
 105.1  30.2428  0 i
 105.15  22.5184  0 i
 105.2  34.3408  0 i
 105.25  33.9516  0 i
 105.3  32.682  0 i
 105.35  25.4462  0 i
 105.4  22.1952  0 i
 105.45  32.4641  0 i
 105.5  27.3729  0 i
 105.55  19.501  0 i
 105.6  30.3324  0 i
 105.65  29.5065  0 i
 105.7  24.1368  0 i
 105.75  33.5259  0 i
 105.8  32.6632  0 i
 105.85  36.7617  0 i
 105.9  37.1938  0 i
 105.95  25.1088  0 i
 106  35.4103  0 i
 106.05  33.8242  0 i
 106.1  24.1971  0 i
 106.15  28.8274  0 i
 106.2  38.1589  0 i
 106.25  33.5459  0 i
 106.3  27.7102  0 i
 106.35  29.4368  0 i
 106.4  23.6995  0 i
 106.45  27.606  0 i
 106.5  28.4322  0 i
 106.55  32.9829  0 i
 106.6  29.5384  0 i
 106.65  35.5387  0 i
 106.7  28.4787  0 i
 106.75  32.4815  0 i
 106.8  24.8706  0 i
 106.85  19.2335  0 i
 106.9  39.6625  0 i
 106.95  29.3213  0 i
 107  19.7891  0 i
 107.05  28.7354  0 i
 107.1  26.2722  0 i
 107.15  27.1405  0 i
 107.2  29.0902  0 i
 107.25  26.0423  0 i
 107.3  26.2778  0 i
 107.35  29.0888  0 i
 107.4  23.5974  0 i
 107.45  38.2277  0 i
 107.5  25.2132  0 i
 107.55  32.4266  0 i
 107.6  27.7157  0 i
 107.65  25.45  0 i
 107.7  39.1217  0 i
 107.75  25.6466  0 i
 107.8  31.588  0 i
 107.85  18.2417  0 i
 107.9  31.6963  0 i
 107.95  24.7599  0 i
 108  21.5108  0 i
 108.05  28.2925  0 i
 108.1  20.9918  0 i
 108.15  26.6509  0 i
 108.2  28.9761  0 i
 108.25  36.9865  0 i
 108.3  30.554  0 i
 108.35  32.425  0 i
 108.4  23.23  0 i
 108.45  30.4698  0 i
 108.5  27.7777  0 i
 108.55  25.3884  0 i
 108.6  29.2568  0 i
 108.65  44.1959  0 i
 108.7  28.1159  0 i
 108.75  26.9375  0 i
 108.8  26.3677  0 i
 108.85  35.1585  0 i
 108.9  34.549  0 i
 108.95  32.5542  0 i
 109  30.4306  0 i
 109.05  29.6172  0 i
 109.1  41.2361  0 i
 109.15  26.785  0 i
 109.2  28.785  0 i
 109.25  27.7244  0 i
 109.3  28.5075  0 i
 109.35  26.3159  0 i
 109.4  28.7932  0 i
 109.45  31.5751  0 i
 109.5  20.1884  0 i
 109.55  34.6361  0 i
 109.6  23.0819  0 i
 109.65  36.4489  0 i
 109.7  26.3469  0 i
 109.75  29.9928  0 i
 109.8  27.3955  0 i
 109.85  27.3207  0 i
 109.9  30.6427  0 i
 109.95  25.844  0 i
 110  32.7367  0 i
 110.05  27.2068  0 i
 110.1  34.2568  0 i
 110.15  30.4998  0 i
 110.2  40.1329  0 i
 110.25  35.3972  0 i
 110.3  29.5647  0 i
 110.35  25.3247  0 i
 110.4  33.8593  0 i
 110.45  24.3176  0 i
 110.5  32.6181  0 i
 110.55  32.6052  0 i
 110.6  29.3357  0 i
 110.65  23.0304  0 i
 110.7  26.5956  0 i
 110.75  31.5991  0 i
 110.8  37.2452  0 i
 110.85  29.9987  0 i
 110.9  31.9794  0 i
 110.95  31.9909  0 i
 111  30.5229  0 i
 111.05  25.705  0 i
 111.1  32.3494  0 i
 111.15  36.5235  0 i
 111.2  34.3702  0 i
 111.25  38.8492  0 i
 111.3  34.7199  0 i
 111.35  25.0712  0 i
 111.4  31.2118  0 i
 111.45  21.3679  0 i
 111.5  36.5971  0 i
 111.55  21.9348  0 i
 111.6  21.879  0 i
 111.65  28.2208  0 i
 111.7  38.1389  0 i
 111.75  40.358  0 i
 111.8  27.8999  0 i
 111.85  25.6966  0 i
 111.9  34.5748  0 i
 111.95  25.4319  0 i
 112  26.132  0 i
 112.05  37.2597  0 i
 112.1  38.269  0 i
 112.15  31.7621  0 i
 112.2  32.4425  0 i
 112.25  23.3376  0 i
 112.3  30.2204  0 i
 112.35  26.9403  0 i
 112.4  51.0823  0 i
 112.45  22.7681  0 i
 112.5  23.1995  0 i
 112.55  38.6487  0 i
 112.6  38.9082  0 i
 112.65  32.1542  0 i
 112.7  38.3343  0 i
 112.75  29.503  0 i
 112.8  22.4385  0 i
 112.85  33.1307  0 i
 112.9  32.7779  0 i
 112.95  26.2154  0 i
 113  29.489  0 i
 113.05  32.293  0 i
 113.1  35.0495  0 i
 113.15  28.5349  0 i
 113.2  32.5121  0 i
 113.25  30.0063  0 i
 113.3  27.0924  0 i
 113.35  20.9648  0 i
 113.4  25.8692  0 i
 113.45  42.423  0 i
 113.5  24.18  0 i
 113.55  26.1144  0 i
 113.6  36.8168  0 i
 113.65  26.8806  0 i
 113.7  27.934  0 i
 113.75  22.5404  0 i
 113.8  23.8665  0 i
 113.85  35.2897  0 i
 113.9  34.3286  0 i
 113.95  25.77  0 i
 114  39.0861  0 i
 114.05  22.6829  0 i
 114.1  29.5767  0 i
 114.15  31.5716  0 i
 114.2  32.0833  0 i
 114.25  31.8068  0 i
 114.3  27.611  0 i
 114.35  32.1388  0 i
 114.4  34.7947  0 i
 114.45  31.1168  0 i
 114.5  25.6644  0 i
 114.55  31.4533  0 i
 114.6  30.7991  0 i
 114.65  35.6384  0 i
 114.7  38.6374  0 i
 114.75  31.127  0 i
 114.8  37.0925  0 i
 114.85  25.61  0 i
 114.9  32.1896  0 i
 114.95  28.8473  0 i
 115  29.9559  0 i
 115.05  22.18  0 i
 115.1  30.2283  0 i
 115.15  29.1344  0 i
 115.2  39.4083  0 i
 115.25  31.0756  0 i
 115.3  33.7175  0 i
 115.35  38.8076  0 i
 115.4  36.5851  0 i
 115.45  43.736  0 i
 115.5  26.36  0 i
 115.55  42.5467  0 i
 115.6  50.3045  0 i
 115.65  48.7972  0 i
 115.7  81.6289  0 i
 115.75  59.6668  0 i
 115.8  79.537  0 i
 115.85  118.773  0 i
 115.9  117.868  0 i
 115.95  118.453  0 i
 116  97.9417  0 i
 116.05  78.6555  0 i
 116.1  75.7502  0 i
 116.15  66.8134  0 i
 116.2  54.7843  0 i
 116.25  50.6683  0 i
 116.3  40.1655  0 i
 116.35  37.0197  0 i
 116.4  36.8351  0 i
 116.45  43.6271  0 i
 116.5  27.0601  0 i
 116.55  29.3246  0 i
 116.6  31.6559  0 i
 116.65  37.3441  0 i
 116.7  40.0224  0 i
 116.75  32.9829  0 i
 116.8  47.599  0 i
 116.85  30.645  0 i
 116.9  24.4831  0 i
 116.95  26.8137  0 i
 117  30.7409  0 i
 117.05  30.6035  0 i
 117.1  30.5007  0 i
 117.15  32.5554  0 i
 117.2  31.9489  0 i
 117.25  36.8209  0 i
 117.3  31.8863  0 i
 117.35  37.6551  0 i
 117.4  26.8922  0 i
 117.45  30.3955  0 i
 117.5  30.0522  0 i
 117.55  30.2407  0 i
 117.6  32.76  0 i
 117.65  34.2159  0 i
 117.7  32.4775  0 i
 117.75  27.6555  0 i
 117.8  32.3531  0 i
 117.85  28.4245  0 i
 117.9  18.7661  0 i
 117.95  30.9669  0 i
 118  40.1264  0 i
 118.05  21.9773  0 i
 118.1  20.599  0 i
 118.15  36.296  0 i
 118.2  32.9171  0 i
 118.25  24.7816  0 i
 118.3  28.3492  0 i
 118.35  29.3031  0 i
 118.4  32.5036  0 i
 118.45  25.8929  0 i
 118.5  29.3929  0 i
 118.55  27.1206  0 i
 118.6  34.9137  0 i
 118.65  22.7281  0 i
 118.7  35.572  0 i
 118.75  36.2941  0 i
 118.8  33.0311  0 i
 118.85  31.8484  0 i
 118.9  31.3093  0 i
 118.95  40.6078  0 i
 119  33.4851  0 i
 119.05  29.0245  0 i
 119.1  23.9239  0 i
 119.15  29.9586  0 i
 119.2  28.6507  0 i
 119.25  29.4759  0 i
 119.3  26.5076  0 i
 119.35  27.932  0 i
 119.4  27.7192  0 i
 119.45  23.3509  0 i
 119.5  33.0925  0 i
 119.55  30.2559  0 i
 119.6  28.5345  0 i
 119.65  26.3521  0 i
 119.7  22.4829  0 i
 119.75  34.8537  0 i
 119.8  32.9997  0 i
 119.85  34.5723  0 i
 119.9  34.6407  0 i
 119.95  24.6449  0 i
 120  39.1985  0 i
 120.05  33.3772  0 i
 120.1  37.9316  0 i
 120.15  27.3005  0 i
 120.2  27.4978  0 i
 120.25  30.3002  0 i
 120.3  33.4444  0 i
 120.35  28.4562  0 i
 120.4  38.0309  0 i
 120.45  33.6388  0 i
 120.5  29.0511  0 i
 120.55  21.2014  0 i
 120.6  26.6108  0 i
 120.65  24.9989  0 i
 120.7  26.5246  0 i
 120.75  22.7669  0 i
 120.8  42.3334  0 i
 120.85  37.6536  0 i
 120.9  29.8654  0 i
 120.95  26.4353  0 i
 121  26.8155  0 i
 121.05  44.9809  0 i
 121.1  35.206  0 i
 121.15  27.7988  0 i
 121.2  36.7021  0 i
 121.25  29.29  0 i
 121.3  32.0285  0 i
 121.35  33.889  0 i
 121.4  31.2136  0 i
 121.45  26.5511  0 i
 121.5  25.1497  0 i
 121.55  38.8632  0 i
 121.6  44.4125  0 i
 121.65  28.0878  0 i
 121.7  32.2661  0 i
 121.75  29.424  0 i
 121.8  29.885  0 i
 121.85  35.0721  0 i
 121.9  30.2715  0 i
 121.95  21.4592  0 i
 122  30.7368  0 i
 122.05  29.3197  0 i
 122.1  37.0467  0 i
 122.15  19.681  0 i
 122.2  30.4989  0 i
 122.25  32.8165  0 i
 122.3  34.8788  0 i
 122.35  29.5657  0 i
 122.4  33.2383  0 i
 122.45  42.5742  0 i
 122.5  27.1564  0 i
 122.55  27.7533  0 i
 122.6  30.9128  0 i
 122.65  30.5675  0 i
 122.7  31.2515  0 i
 122.75  26.3238  0 i
 122.8  28.0293  0 i
 122.85  25.5636  0 i
 122.9  46.1468  0 i
 122.95  32.4829  0 i
 123  30.2539  0 i
 123.05  29.9116  0 i
 123.1  38.3605  0 i
 123.15  28.1795  0 i
 123.2  28.3684  0 i
 123.25  29.1823  0 i
 123.3  42.0389  0 i
 123.35  24.7085  0 i
 123.4  38.0185  0 i
 123.45  32.3702  0 i
 123.5  23.0795  0 i
 123.55  39.3804  0 i
 123.6  34.1784  0 i
 123.65  32.3548  0 i
 123.7  32.372  0 i
 123.75  30.006  0 i
 123.8  34.8678  0 i
 123.85  24.8403  0 i
 123.9  28.0043  0 i
 123.95  31.1734  0 i
 124  34.5366  0 i
 124.05  37.3425  0 i
 124.1  36.8934  0 i
 124.15  28.5125  0 i
 124.2  26.7123  0 i
 124.25  49.4963  0 i
 124.3  26.2446  0 i
 124.35  28.3712  0 i
 124.4  24.7766  0 i
 124.45  34.9616  0 i
 124.5  26.1426  0 i
 124.55  26.3881  0 i
 124.6  35.5784  0 i
 124.65  20.5573  0 i
 124.7  26.5227  0 i
 124.75  30.8597  0 i
 124.8  33.9256  0 i
 124.85  29.3943  0 i
 124.9  29.4041  0 i
 124.95  31.4155  0 i
 125  21.2664  0 i
 125.05  24.3132  0 i
 125.1  21.0193  0 i
 125.15  22.6168  0 i
 125.2  32.4528  0 i
 125.25  28.2  0 i
 125.3  29.2764  0 i
 125.35  36.2151  0 i
 125.4  31.4621  0 i
 125.45  31.9341  0 i
 125.5  47.0042  0 i
 125.55  31.2487  0 i
 125.6  28.7831  0 i
 125.65  32.6405  0 i
 125.7  42.2271  0 i
 125.75  27.4742  0 i
 125.8  44.9212  0 i
 125.85  30.3358  0 i
 125.9  44.5841  0 i
 125.95  31.9933  0 i
 126  27.0746  0 i
 126.05  32.9694  0 i
 126.1  25.4394  0 i
 126.15  26.7009  0 i
 126.2  32.8819  0 i
 126.25  35.6089  0 i
 126.3  24.312  0 i
 126.35  24.9526  0 i
 126.4  27.5941  0 i
 126.45  29.5325  0 i
 126.5  39.9807  0 i
 126.55  30.2274  0 i
 126.6  29.551  0 i
 126.65  32.089  0 i
 126.7  21.7262  0 i
 126.75  23.6816  0 i
 126.8  31.9586  0 i
 126.85  32.8372  0 i
 126.9  33.4053  0 i
 126.95  26.2389  0 i
 127  31.7487  0 i
 127.05  24.59  0 i
 127.1  25.4384  0 i
 127.15  32.6896  0 i
 127.2  29.3681  0 i
 127.25  38.8861  0 i
 127.3  32.1382  0 i
 127.35  28.2513  0 i
 127.4  31.2711  0 i
 127.45  34.1163  0 i
 127.5  38.7481  0 i
 127.55  35.4632  0 i
 127.6  30.6704  0 i
 127.65  29.2236  0 i
 127.7  22.8906  0 i
 127.75  34.8772  0 i
 127.8  29.6889  0 i
 127.85  29.0443  0 i
 127.9  40.5936  0 i
 127.95  34.3862  0 i
 128  34.3648  0 i
 128.05  33.6678  0 i
 128.1  32.4002  0 i
 128.15  37.7174  0 i
 128.2  35.8854  0 i
 128.25  35.9539  0 i
 128.3  37.2212  0 i
 128.35  35.9703  0 i
 128.4  19.4698  0 i
 128.45  31.3226  0 i
 128.5  26.3337  0 i
 128.55  24.4643  0 i
 128.6  26.8446  0 i
 128.65  33.8231  0 i
 128.7  28.4809  0 i
 128.75  32.5702  0 i
 128.8  35.9139  0 i
 128.85  23.025  0 i
 128.9  27.5975  0 i
 128.95  25.8937  0 i
 129  28.8063  0 i
 129.05  34.7675  0 i
 129.1  25.3985  0 i
 129.15  41.8985  0 i
 129.2  32.076  0 i
 129.25  28.9487  0 i
 129.3  20.2371  0 i
 129.35  29.2615  0 i
 129.4  26.7746  0 i
 129.45  29.2315  0 i
 129.5  30.6221  0 i
 129.55  27.3163  0 i
 129.6  35.591  0 i
 129.65  26.1667  0 i
 129.7  41.1347  0 i
 129.75  22.7818  0 i
 129.8  35.7748  0 i
 129.85  29.1626  0 i
 129.9  36.2798  0 i
 129.95  26.1066  0 i
 130  30.292  0 i

