40 32.8095 34.4264 -1.6169
40.05 40.6882 34.4188 6.2694
40.1 41.7609 34.4113 7.3496
40.15 26.3189 34.4119 -8.093
40.2 32.33 34.4125 -2.0825
40.25 50.5719 34.4061 16.1658
40.3 33.7172 34.3997 -0.6825
40.35 34.3699 34.3986 -0.0287
40.4 46.0312 34.3974 11.6338
40.45 44.3343 34.3942 9.9401
40.5 43.3847 34.3909 8.9938
40.55 57.5706 34.3832 23.1874
40.6 47.5483 34.3826 13.1657
40.65 37.3836 34.383 3.0006
40.7 41.309 34.3834 6.9256
40.75 39.391 34.3768 5.0142
40.8 46.2649 34.3702 11.8947
40.85 25.5095 34.3729 -8.8634
40.9 39.0008 34.3757 4.6251
40.95 53.503 34.3702 19.1328
41 32.6666 34.3623 -1.6957
41.05 42.0479 34.3647 7.6832
41.1 32.3173 34.367 -2.0497
41.15 45.9824 34.3633 11.6191
41.2 43.9077 34.3595 9.5482
41.25 36.4939 34.3591 2.1348
41.3 40.1126 34.3587 5.7539
41.35 27.5702 34.3599 -6.7897
41.4 51.9872 34.361 17.6262
41.45 42.2894 34.3536 7.9358
41.5 48.6126 34.3536 14.259
41.55 50.3441 34.3614 15.9827
41.6 40.2758 34.3652 5.9106
41.65 45.9989 34.3603 11.6386
41.7 34.8588 34.3554 0.5034
41.75 42.9304 34.3632 8.5672
41.8 35.3736 34.3711 1.0025
41.85 40.0042 34.369 5.6352
41.9 41.1497 34.3669 6.7828
41.95 49.0183 34.3682 14.6501
42 47.6068 34.3801 13.2267
42.05 38.4398 34.3849 4.0549
42.1 33.3927 34.3897 -0.997
42.15 42.5414 34.3935 8.1479
42.2 31.3685 34.3972 -3.0287
42.25 38.2851 34.4107 3.8744
42.3 37.4214 34.4242 2.9972
42.35 32.2043 34.4272 -2.2229
42.4 35.5602 34.4301 1.1301
42.45 36.2267 34.4511 1.7756
42.5 47.758 34.4721 13.2859
42.55 44.71 34.4806 10.2294
42.6 41.5702 34.4891 7.0811
42.65 34.2013 34.515 -0.3137
42.7 35.1044 34.5409 0.5635
42.75 37.6059 34.5638 3.0421
42.8 45.6207 34.5868 11.0339
42.85 43.3374 34.6178 8.7196
42.9 36.7306 34.6489 2.0817
42.95 35.0842 34.6968 0.3874
43 39.6317 34.7448 4.8869
43.05 42.1473 34.7948 7.3525
43.1 37.1083 34.8448 2.2635
43.15 34.604 35.0165 -0.4125
43.2 52.5529 35.1882 17.3647
43.25 42.1982 35.5945 6.6037
43.3 46.1459 35.7901 10.3558
43.35 44.3601 35.9818 8.3783
43.4 47.4114 36.209 11.2024
43.45 43.5859 36.4699 7.116
43.5 40.4399 36.7308 3.7091
43.55 35.7216 37.1092 -1.3876
43.6 47.2207 37.4876 9.7331
43.65 40.7898 38.0683 2.7215
43.7 45.4777 38.6489 6.8288
43.75 38.7311 39.5568 -0.8257
43.8 39.7284 40.4647 -0.7363
43.85 52.8494 41.8643 10.9851
43.9 41.133 43.7756 -2.6426
43.95 46.9411 46.4694 0.4717
44 53.2641 50.5332 2.7309
44.05 59.3574 57.59 1.7674
44.1 80.8262 70.2258 10.6004
44.15 83.5984 101.79 -18.1916
44.2 138.312 196.274 -57.962
44.25 392.567 470.771 -78.204
44.3 1190.74 1080.77 109.97
44.35 2145.92 1942.37 203.55
44.4 2204.15 2410.2 -206.05
44.45 1394.93 1468.33 -73.4
44.5 463.959 402.717 61.242
44.55 157.52 144.521 12.999
44.6 94.1035 84.8889 9.2146
44.65 61.0503 63.6049 -2.5546
44.7 43.9344 52.6728 -8.7384
44.75 47.2426 47.0041 0.2385
44.8 48.1024 43.5935 4.5089
44.85 46.7701 41.3838 5.3863
44.9 46.5079 39.8436 6.6643
44.95 29.5209 38.8637 -9.3428
45 37.0064 37.8838 -0.8774
45.05 49.5887 37.2734 12.3153
45.1 45.0633 36.8003 8.263
45.15 44.5612 36.4329 8.1283
45.2 38.333 36.0654 2.2676
45.25 43.8622 35.8346 8.0276
45.3 36.7745 35.6037 1.1708
45.35 37.8658 35.4337 2.4321
45.4 39.7006 35.2637 4.4369
45.45 41.8151 35.1328 6.6823
45.5 33.5472 35.002 -1.4548
45.55 25.607 34.893 -9.286
45.6 33.733 34.784 -1.051
45.65 36.9708 34.6572 2.3136
45.7 29.5818 34.5304 -4.9486
45.75 39.005 34.483 4.522
45.8 37.3798 34.4355 2.9443
45.85 28.0447 34.3815 -6.3368
45.9 38.8193 34.3274 4.4919
45.95 38.9153 34.2934 4.6219
46 36.9279 34.2595 2.6684
46.05 36.5368 34.2277 2.3091
46.1 36.4881 34.1959 2.2922
46.15 31.3719 34.1641 -2.7922
46.2 40.9421 34.1324 6.8097
46.25 39.1949 34.1154 5.0795
46.3 37.0945 34.0985 2.996
46.35 41.6502 34.0693 7.5809
46.4 32.6853 34.0401 -1.3548
46.45 42.6253 34.0291 8.5962
46.5 25.3648 34.018 -8.6532
46.55 45.401 33.9955 11.4055
46.6 37.5131 33.973 3.5401
46.65 30.7922 33.9606 -3.1684
46.7 38.6547 33.9482 4.7065
46.75 31.8535 33.9347 -2.0812
46.8 41.9196 33.9212 7.9984
46.85 24.3745 33.9051 -9.5306
46.9 25.0565 33.8889 -8.8324
46.95 31.3316 33.8825 -2.5509
47 45.1946 33.876 11.3186
47.05 30.2516 33.8587 -3.6071
47.1 35.6161 33.8413 1.7748
47.15 35.1168 33.8368 1.28
47.2 33.1966 33.8324 -0.6358
47.25 48.7644 33.8182 14.9462
47.3 37.9666 33.8041 4.1625
47.35 34.7067 33.7969 0.9098
47.4 41.7956 33.7896 8.006
47.45 51.4594 33.7857 17.6737
47.5 46.5129 33.7731 12.7398
47.55 34.283 33.7618 0.5212
47.6 36.1432 33.7505 2.3927
47.65 25.9586 33.7469 -7.7883
47.7 32.5646 33.7433 -1.1787
47.75 22.4306 33.7304 -11.2998
47.8 44.7657 33.7174 11.0483
47.85 34.0758 33.7147 0.3611
47.9 35.7483 33.7119 2.0364
47.95 34.0369 33.7013 0.3356
48 31.6065 33.6906 -2.0841
48.05 38.823 33.685 5.138
48.1 47.8501 33.6793 14.1708
48.15 35.7316 33.6732 2.0584
48.2 33.6557 33.6671 -0.0114
48.25 33.0001 33.6577 -0.6576
48.3 38.8091 33.6484 5.1607
48.35 27.2095 33.6458 -6.4363
48.4 37.9883 33.6433 4.345
48.45 35.979 33.6325 2.3465
48.5 35.5586 33.6217 1.9369
48.55 29.8559 33.6193 -3.7634
48.6 45.3092 33.617 11.6922
48.65 29.0571 33.6082 -4.5511
48.7 31.1843 33.5995 -2.4152
48.75 43.2607 33.5942 9.6665
48.8 22.58 33.589 -11.009
48.85 39.1604 33.5842 5.5762
48.9 43.1046 33.5793 9.5253
48.95 29.663 33.5708 -3.9078
49 35.183 33.5622 1.6208
49.05 39.0215 33.5607 5.4608
49.1 43.2118 33.5592 9.6526
49.15 33.3918 33.5494 -0.1576
49.2 49.0793 33.5396 15.5397
49.25 31.6463 33.5374 -1.8911
49.3 29.2862 33.5352 -4.249
49.35 24.694 33.5276 -8.8336
49.4 38.7589 33.52 5.2389
49.45 29.2544 33.5147 -4.2603
49.5 36.2015 33.5095 2.692
49.55 37.0152 33.5055 3.5097
49.6 39.7352 33.5016 6.2336
49.65 29.7691 33.4933 -3.7242
49.7 37.481 33.485 3.996
49.75 34.5997 33.4832 1.1165
49.8 37.754 33.4815 4.2725
49.85 38.4657 33.4727 4.993
49.9 39.6662 33.4638 6.2024
49.95 35.5276 33.4612 2.0664
50 37.3379 33.4586 3.8793
50.05 30.345 33.4521 -3.1071
50.1 26.3471 33.4456 -7.0985
50.15 23.3114 33.44 -10.1286
50.2 43.3025 33.4344 9.8681
50.25 39.2168 33.4312 5.7856
50.3 32.3981 33.428 -1.0299
50.35 27.3571 33.4198 -6.0627
50.4 48.0676 33.4116 14.656
50.45 26.5145 33.4099 -6.8954
50.5 35.1156 33.4082 1.7074
50.55 34.3133 33.4001 0.9132
50.6 38.7004 33.3921 5.3083
50.65 36.3927 33.3889 3.0038
50.7 37.8988 33.3858 4.513
50.75 34.1165 33.3803 0.7362
50.8 36.6776 33.3748 3.3028
50.85 20.9379 33.3687 -12.4308
50.9 31.0603 33.3626 -2.3023
50.95 30.6636 33.36 -2.6964
51 34.8075 33.3574 1.4501
51.05 35.2659 33.3493 1.9166
51.1 39.2092 33.3413 5.8679
51.15 29.6438 33.3394 -3.6956
51.2 46.4067 33.3375 13.0692
51.25 34.9846 33.3302 1.6544
51.3 28.5279 33.323 -4.7951
51.35 31.5353 33.3191 -1.7838
51.4 36.8404 33.3152 3.5252
51.45 43.7637 33.3108 10.4529
51.5 47.0029 33.3063 13.6966
51.55 27.7008 33.2996 -5.5988
51.6 31.9783 33.2929 -1.3146
51.65 36.6541 33.2908 3.3633
51.7 38.2949 33.2886 5.0063
51.75 26.6975 33.2808 -6.5833
51.8 36.6174 33.273 3.3444
51.85 39.9145 33.2706 6.6439
51.9 32.4187 33.2683 -0.8496
51.95 31.3784 33.262 -1.8836
52 39.8243 33.2557 6.5686
52.05 26.6894 33.251 -6.5616
52.1 29.6065 33.2462 -3.6397
52.15 37.836 33.2427 4.5933
52.2 27.6758 33.2392 -5.5634
52.25 27.6075 33.2321 -5.6246
52.3 31.0522 33.2249 -2.1727
52.35 40.1136 33.2229 6.8907
52.4 34.8713 33.2209 1.6504
52.45 26.5819 33.2136 -6.6317
52.5 30.5678 33.2063 -2.6385
52.55 30.6045 33.2032 -2.5987
52.6 25.0134 33.2001 -8.1867
52.65 34.6604 33.1949 1.4655
52.7 36.1657 33.1897 2.976
52.75 32.0806 33.184 -1.1034
52.8 34.6946 33.1783 1.5163
52.85 35.4098 33.1756 2.2342
52.9 29.5094 33.1729 -3.6635
52.95 25.0831 33.1656 -8.0825
53 21.2101 33.1582 -11.9481
53.05 32.87 33.156 -0.286
53.1 33.3932 33.1538 0.2394
53.15 32.1565 33.1473 -0.9908
53.2 36.9451 33.1407 3.8044
53.25 29.0111 33.1367 -4.1256
53.3 33.6221 33.1326 0.4895
53.35 28.3306 33.1285 -4.7979
53.4 26.2754 33.1245 -6.8491
53.45 30.2799 33.118 -2.8381
53.5 28.5839 33.1115 -4.5276
53.55 26.7327 33.1092 -6.3765
53.6 25.6763 33.107 -7.4307
53.65 24.6621 33.0998 -8.4377
53.7 22.5367 33.0927 -10.556
53.75 36.6427 33.0898 3.5529
53.8 32.288 33.087 -0.799
53.85 34.0382 33.0816 0.9566
53.9 28.2444 33.0762 -4.8318
53.95 45.5052 33.0709 12.4343
54 26.5973 33.0656 -6.4683
54.05 35.1395 33.0627 2.0768
54.1 36.4222 33.0597 3.3625
54.15 33.84 33.0527 0.7873
54.2 39.2608 33.0456 6.2152
54.25 25.6917 33.0434 -7.3517
54.3 38.4453 33.0411 5.4042
54.35 41.3684 33.0346 8.3338
54.4 32.8489 33.0282 -0.1793
54.45 30.9127 33.0242 -2.1115
54.5 17.7951 33.0203 -15.2252
54.55 30.5149 33.0162 -2.5013
54.6 30.8413 33.0121 -2.1708
54.65 36.2659 33.0058 3.2601
54.7 37.4733 32.9995 4.4738
54.75 27.2901 32.9971 -5.707
54.8 25.4278 32.9948 -7.567
54.85 31.0922 32.9878 -1.8956
54.9 33.1259 32.9808 0.1451
54.95 25.5753 32.9779 -7.4026
55 33.8071 32.975 0.8321
55.05 31.0447 32.9697 -1.925
55.1 28.6293 32.9645 -4.3352
55.15 34.2096 32.9592 1.2504
55.2 28.7767 32.9539 -4.1772
55.25 30.3111 32.951 -2.6399
55.3 34.1279 32.9481 1.1798
55.35 22.0723 32.9412 -10.8689
55.4 32.3227 32.9342 -0.6115
55.45 27.3187 32.9319 -5.6132
55.5 26.6508 32.9295 -6.2787
55.55 30.7094 32.9233 -2.2139
55.6 33.9447 32.9171 1.0276
55.65 38.0892 32.9129 5.1763
55.7 31.0691 32.9088 -1.8397
55.75 30.7844 32.905 -2.1206
55.8 20.095 32.9012 -12.8062
55.85 39.0051 32.8947 6.1104
55.9 38.8235 32.8883 5.9352
55.95 36.3211 32.886 3.4351
56 31.0978 32.8837 -1.7859
56.05 32.1917 32.8769 -0.6852
56.1 33.5586 32.8702 0.6884
56.15 37.7483 32.8669 4.8814
56.2 35.4374 32.8637 2.5737
56.25 30.5939 32.8589 -2.265
56.3 30.444 32.8542 -2.4102
56.35 34.1279 32.8485 1.2794
56.4 28.1789 32.8428 -4.6639
56.45 29.8384 32.8402 -3.0018
56.5 33.8738 32.8376 1.0362
56.55 33.6288 32.8307 0.7981
56.6 28.1772 32.8237 -4.6465
56.65 26.8478 32.8211 -5.9733
56.7 41.6741 32.8185 8.8556
56.75 34.8706 32.8128 2.0578
56.8 34.7819 32.8072 1.9747
56.85 20.6756 32.8024 -12.1268
56.9 33.4084 32.7976 0.6108
56.95 37.83 32.7944 5.0356
57 40.1081 32.7912 7.3169
57.05 28.9264 32.7845 -3.8581
57.1 24.2763 32.7777 -8.5014
57.15 27.3354 32.7754 -5.44
57.2 33.405 32.7731 0.6319
57.25 31.2197 32.7668 -1.5471
57.3 30.0479 32.7606 -2.7127
57.35 32.9353 32.7566 0.1787
57.4 29.9539 32.7525 -2.7986
57.45 37.6449 32.7487 4.8962
57.5 40.4288 32.7448 7.684
57.55 38.097 32.7384 5.3586
57.6 32.721 32.7321 -0.0111
57.65 41.4696 32.7298 8.7398
57.7 24.3259 32.7275 -8.4016
57.75 33.9219 32.7208 1.2011
57.8 28.2423 32.7142 -4.4719
57.85 26.0667 32.7109 -6.6442
57.9 33.4522 32.7075 0.7447
57.95 29.7894 32.7029 -2.9135
58 35.2334 32.6984 2.535
58.05 32.6186 32.6926 -0.074
58.1 27.469 32.6868 -5.2178
58.15 31.5788 32.6843 -1.1055
58.2 33.1775 32.6818 0.4957
58.25 36.5115 32.6749 3.8366
58.3 29.0276 32.6681 -3.6405
58.35 32.3164 32.6653 -0.3489
58.4 22.7806 32.6625 -9.8819
58.45 22.8232 32.6573 -9.8341
58.5 43.3491 32.652 10.6971
58.55 21.7028 32.6468 -10.944
58.6 26.6112 32.6416 -6.0304
58.65 34.6359 32.6388 1.9971
58.7 27.8155 32.636 -4.8205
58.75 35.4755 32.6292 2.8463
58.8 29.4073 32.6223 -3.215
58.85 30.7699 32.6199 -1.85
58.9 30.3599 32.6174 -2.2575
58.95 34.2424 32.6117 1.6307
59 29.7757 32.6059 -2.8302
59.05 28.4216 32.6013 -4.1797
59.1 33.8073 32.5967 1.2106
59.15 29.1029 32.5935 -3.4906
59.2 41.9869 32.5903 9.3966
59.25 36.6039 32.5836 4.0203
59.3 40.5562 32.5768 7.9794
59.35 35.8112 32.5746 3.2366
59.4 37.7548 32.5724 5.1824
59.45 34.0503 32.5662 1.4841
59.5 27.0223 32.56 -5.5377
59.55 22.6693 32.5559 -9.8866
59.6 28.5806 32.5518 -3.9712
59.65 30.7391 32.5412 -1.8021
59.7 36.9574 32.5305 4.4269
59.75 37.5086 32.5256 4.983
59.8 29.5289 32.5207 -2.9918
59.85 30.8732 32.5167 -1.6435
59.9 29.5648 32.5127 -2.9479
59.95 30.3999 32.5077 -2.1078
60 34.24 32.5027 1.7373
60.05 30.1642 32.4985 -2.3343
60.1 35.7533 32.4942 3.2591
60.15 33.9229 32.4898 1.4331
60.2 22.1549 32.4854 -10.3305
60.25 29.1428 32.4805 -3.3377
60.3 24.2963 32.4756 -8.1793
60.35 35.0478 32.4718 2.576
60.4 31.1855 32.4679 -1.2824
60.45 24.8213 32.4628 -7.6415
60.5 24.0012 32.4578 -8.4566
60.55 21.722 32.4537 -10.7317
60.6 36.4496 32.4496 4
60.65 31.0684 32.4451 -1.3767
60.7 27.1536 32.4407 -5.2871
60.75 35.7438 32.4358 3.308
60.8 31.4977 32.431 -0.9333
60.85 35.4255 32.4272 2.9983
60.9 37.1516 32.4234 4.7282
60.95 37.5106 32.4184 5.0922
61 22.5203 32.4133 -9.893
61.05 30.0659 32.4094 -2.3435
61.1 33.8898 32.4054 1.4844
61.15 27.9715 32.401 -4.4295
61.2 26.2376 32.3966 -6.159
61.25 29.5348 32.3918 -2.857
61.3 27.5226 32.3871 -4.8645
61.35 34.3228 32.3835 1.9393
61.4 36.0162 32.3799 3.6363
61.45 41.8521 32.3748 9.4773
61.5 27.6923 32.3698 -4.6775
61.55 44.7228 32.3661 12.3567
61.6 34.704 32.3624 2.3416
61.65 24.3879 32.358 -7.9701
61.7 28.8028 32.3537 -3.5509
61.75 34.8319 32.3492 2.4827
61.8 31.9677 32.3446 -0.3769
61.85 40.7269 32.3413 8.3856
61.9 30.7378 32.3379 -1.6001
61.95 29.9762 32.333 -2.3568
62 34.1608 32.3281 1.8327
62.05 32.7391 32.3248 0.4143
62.1 28.8445 32.3214 -3.4769
62.15 34.6749 32.3174 2.3575
62.2 24.3593 32.3134 -7.9541
62.25 32.2712 32.3092 -0.038
62.3 35.6898 32.3049 3.3849
62.35 34.3387 32.3022 2.0365
62.4 31.275 32.2995 -1.0245
62.45 26.2131 32.295 -6.0819
62.5 31.1881 32.2904 -1.1023
62.55 27.3456 32.2879 -4.9423
62.6 33.729 32.2854 1.4436
62.65 15.1703 32.2822 -17.1119
62.7 33.1497 32.279 0.8707
62.75 36.4138 32.2756 4.1382
62.8 39.9282 32.2723 7.6559
62.85 33.0167 32.2711 0.7456
62.9 34.7475 32.2699 2.4776
62.95 34.756 32.2667 2.4893
63 38.6224 32.2636 6.3588
63.05 30.073 32.2633 -2.1903
63.1 31.109 32.2629 -1.1539
63.15 32.2361 32.2627 -0.0266
63.2 30.2574 32.2625 -2.0051
63.25 25.1663 32.2632 -7.0969
63.3 20.0534 32.2638 -12.2104
63.35 31.507 32.2715 -0.7645
63.4 32.4217 32.2793 0.1424
63.45 33.311 32.3021 1.0089
63.5 38.7023 32.3249 6.3774
63.55 25.3026 32.3551 -7.0525
63.6 31.3165 32.3853 -1.0688
63.65 42.537 32.4102 10.1268
63.7 28.599 32.4351 -3.8361
63.75 34.5703 32.4664 2.1039
63.8 32.0585 32.4978 -0.4393
63.85 40.7887 32.5495 8.2392
63.9 30.3573 32.6012 -2.2439
63.95 21.267 32.6781 -11.4111
64 39.6988 32.7551 6.9437
64.05 29.4747 32.8894 -3.4147
64.1 41.7243 33.0237 8.7006
64.15 29.348 33.2763 -3.9283
64.2 29.032 33.5289 -4.4969
64.25 32.4251 34.0741 -1.649
64.3 31.3294 34.6194 -3.29
64.35 37.3869 36.1445 1.2424
64.4 52.6063 37.6697 14.9366
64.45 43.5261 41.497 2.0291
64.5 54.5873 49.6588 4.9285
64.55 71.8198 67.2056 4.6142
64.6 95.7471 99.7934 -4.0463
64.65 147.172 142.209 4.963
64.7 143.17 166.425 -23.255
64.75 146.525 144.567 1.958
64.8 110.841 97.0474 13.7936
64.85 61.2702 62.7092 -1.439
64.9 48.4399 46.6267 1.8132
64.95 44.6754 39.7335 4.9419
65 28.8759 36.5498 -7.6739
65.05 43.3262 35.2774 8.0488
65.1 40.8427 34.0051 6.8376
65.15 31.0228 33.5528 -2.53
65.2 38.8475 33.1006 5.7469
65.25 28.8715 32.8924 -4.0209
65.3 23.9282 32.6842 -8.756
65.35 31.8711 32.572 -0.7009
65.4 29.0861 32.4597 -3.3736
65.45 30.0581 32.3938 -2.3357
65.5 34.0982 32.3279 1.7703
65.55 33.9777 32.2817 1.696
65.6 33.1103 32.2355 0.8748
65.65 33.6556 32.2046 1.451
65.7 31.269 32.1736 -0.9046
65.75 25.3012 32.1489 -6.8477
65.8 33.5548 32.1242 1.4306
65.85 27.8991 32.0971 -4.198
65.9 28.574 32.07 -3.496
65.95 35.8912 32.0486 3.8426
66 40.2616 32.0271 8.2345
66.05 30.2492 32.0131 -1.7639
66.1 34.0659 31.9991 2.0668
66.15 24.1911 31.9888 -7.7977
66.2 29.5415 31.9785 -2.437
66.25 32.3935 31.9701 0.4234
66.3 30.1299 31.9618 -1.8319
66.35 31.6793 31.9527 -0.2734
66.4 30.3959 31.9437 -1.5478
66.45 31.5952 31.9369 -0.3417
66.5 30.3447 31.9301 -1.5854
66.55 33.2434 31.9229 1.3205
66.6 38.8516 31.9156 6.936
66.65 30.2676 31.9086 -1.641
66.7 28.5017 31.9015 -3.3998
66.75 19.0604 31.8959 -12.8355
66.8 35.2528 31.8902 3.3626
66.85 26.0749 31.8833 -5.8084
66.9 26.5897 31.8765 -5.2868
66.95 18.4592 31.8704 -13.4112
67 20.7575 31.8652 -11.1077
67.05 22.3358 31.8595 -9.5237
67.1 29.9516 31.8539 -1.9023
67.15 22.3857 31.8476 -9.4619
67.2 27.9839 31.8414 -3.8575
67.25 30.2497 31.8364 -1.5867
67.3 38.2852 31.8314 6.4538
67.35 34.2007 31.8256 2.3751
67.4 37.2847 31.8197 5.465
67.45 36.0969 31.8142 4.2827
67.5 20.5105 31.8088 -11.2983
67.55 27.8202 31.8038 -3.9836
67.6 30.3019 31.7988 -1.4969
67.65 29.7986 31.793 -1.9944
67.7 31.4794 31.7871 -0.3077
67.75 26.0345 31.7822 -5.7477
67.8 30.0404 31.7773 -1.7369
67.85 32.4864 31.772 0.7144
67.9 33.2225 31.7668 1.4557
67.95 39.5497 31.7613 7.7884
68 29.7614 31.7558 -1.9944
68.05 32.1448 31.7511 0.3937
68.1 34.205 31.7464 2.4586
68.15 31.8531 31.7408 0.1123
68.2 34.843 31.7353 3.1077
68.25 33.0112 31.7303 1.2809
68.3 39.3336 31.7253 7.6083
68.35 32.306 31.7204 0.5856
68.4 35.6245 31.7155 3.909
68.45 33.0939 31.71 1.3839
68.5 37.0905 31.7045 5.386
68.55 34.9457 31.6998 3.2459
68.6 35.3693 31.6951 3.6742
68.65 30.0402 31.6899 -1.6497
68.7 31.009 31.6846 -0.6756
68.75 37.9271 31.6794 6.2477
68.8 45.2408 31.6743 13.5665
68.85 25.2565 31.6696 -6.4131
68.9 29.8637 31.6649 -1.8012
68.95 33.5099 31.6595 1.8504
69 23.4381 31.654 -8.2159
69.05 24.7011 31.6492 -6.9481
69.1 33.0489 31.6444 1.4045
69.15 41.8592 31.6394 10.2198
69.2 31.302 31.6345 -0.3325
69.25 24.955 31.6291 -6.6741
69.3 36.8526 31.6238 5.2288
69.35 41.4621 31.6192 9.8429
69.4 24.7531 31.6146 -6.8615
69.45 24.0327 31.6093 -7.5766
69.5 24.1144 31.604 -7.4896
69.55 34.1912 31.599 2.5922
69.6 31.6096 31.5939 0.0157
69.65 33.6265 31.5892 2.0373
69.7 36.2511 31.5845 4.6666
69.75 25.0342 31.5791 -6.5449
69.8 28.2581 31.5737 -3.3156
69.85 27.0396 31.5689 -4.5293
69.9 29.5746 31.5642 -1.9896
69.95 28.9202 31.5592 -2.639
70 32.1023 31.5542 0.5481
70.05 37.6829 31.5489 6.134
70.1 38.5431 31.5436 6.9995
70.15 35.2325 31.539 3.6935
70.2 29.2141 31.5344 -2.3203
70.25 33.049 31.5291 1.5199
70.3 26.9976 31.5237 -4.5261
70.35 34.7301 31.5188 3.2113
70.4 32.7333 31.5139 1.2194
70.45 27.3366 31.5091 -4.1725
70.5 37.0838 31.5043 5.5795
70.55 42.2821 31.4989 10.7832
70.6 32.4815 31.4934 0.9881
70.65 38.7101 31.4888 7.2213
70.7 25.3116 31.4841 -6.1725
70.75 21.9016 31.479 -9.5774
70.8 29.577 31.4739 -1.8969
70.85 29.4128 31.4686 -2.0558
70.9 32.0864 31.4634 0.623
70.95 26.6492 31.4588 -4.8096
71 25.4033 31.4542 -6.0509
71.05 36.5147 31.4488 5.0659
71.1 38.0788 31.4433 6.6355
71.15 37.3702 31.4385 5.9317
71.2 35.3704 31.4336 3.9368
71.25 27.0172 31.4287 -4.4115
71.3 30.1131 31.4239 -1.3108
71.35 27.5509 31.4184 -3.8675
71.4 30.2825 31.413 -1.1305
71.45 38.3375 31.4084 6.9291
71.5 35.5068 31.4038 4.103
71.55 26.1223 31.3985 -5.2762
71.6 26.8028 31.3933 -4.5905
71.65 29.7564 31.3881 -1.6317
71.7 26.0009 31.3829 -5.382
71.75 39.2484 31.3783 7.8701
71.8 33.1188 31.3736 1.7452
71.85 31.6005 31.3681 0.2324
71.9 31.688 31.3626 0.3254
71.95 21.3137 31.3578 -10.0441
72 27.0891 31.353 -4.2639
72.05 26.7844 31.3481 -4.5637
72.1 24.1061 31.3431 -7.237
72.15 42.7356 31.3377 11.3979
72.2 38.9412 31.3322 7.609
72.25 31.6194 31.3276 0.2918
72.3 28.5195 31.323 -2.8035
72.35 35.9262 31.3177 4.6085
72.4 37.1682 31.3124 5.8558
72.45 29.138 31.3071 -2.1691
72.5 30.462 31.3019 -0.8399
72.55 33.721 31.2973 2.4237
72.6 36.2425 31.2927 4.9498
72.65 42.0683 31.2871 10.7812
72.7 40.3335 31.2815 9.052
72.75 28.4626 31.2767 -2.8141
72.8 34.1511 31.2718 2.8793
72.85 25.2855 31.2669 -5.9814
72.9 36.7955 31.2619 5.5336
72.95 26.8767 31.2564 -4.3797
73 31.0377 31.2508 -0.2131
73.05 33.8779 31.2463 2.6316
73.1 42.7294 31.2417 11.4877
73.15 39.1383 31.2363 7.902
73.2 26.0051 31.2309 -5.2258
73.25 29.264 31.2257 -1.9617
73.3 33.9172 31.2204 2.6968
73.35 26.1984 31.2158 -5.0174
73.4 36.5357 31.2112 5.3245
73.45 31.7784 31.2055 0.5729
73.5 25.5004 31.1999 -5.6995
73.55 28.5828 31.195 -2.6122
73.6 34.0311 31.1902 2.8409
73.65 26.5168 31.1852 -4.6684
73.7 28.6854 31.1803 -2.4949
73.75 28.9308 31.1746 -2.2438
73.8 24.7864 31.169 -6.3826
73.85 28.2544 31.1644 -2.91
73.9 30.7223 31.1598 -0.4375
73.95 35.0867 31.1544 3.9323
74 33.3259 31.1491 2.1768
74.05 36.1568 31.1437 5.0131
74.1 25.9354 31.1383 -5.2029
74.15 31.6347 31.1338 0.5009
74.2 44.2284 31.1292 13.0992
74.25 38.3471 31.1235 7.2236
74.3 28.5777 31.1178 -2.5401
74.35 29.0792 31.1128 -2.0336
74.4 34.6723 31.1079 3.5644
74.45 22.0468 31.103 -9.0562
74.5 32.9033 31.0981 1.8052
74.55 26.4591 31.0923 -4.6332
74.6 28.8698 31.0864 -2.2166
74.65 33.2409 31.0818 2.1591
74.7 26.8615 31.0771 -4.2156
74.75 23.2069 31.0716 -7.8647
74.8 33.8808 31.0661 2.8147
74.85 32.4833 31.0604 1.4229
74.9 25.8164 31.0547 -5.2383
74.95 29.7948 31.05 -1.2552
75 29.8402 31.0453 -1.2051
75.05 37.1528 31.0392 6.1136
75.1 42.6646 31.0332 11.6314
75.15 24.5313 31.0278 -6.4965
75.2 36.9823 31.0225 5.9598
75.25 38.567 31.0174 7.5496
75.3 34.8385 31.0123 3.8262
75.35 27.7497 31.006 -3.2563
75.4 29.4477 30.9997 -1.552
75.45 28.7616 30.9947 -2.2331
75.5 28.8569 30.9896 -2.1327
75.55 36.416 30.984 5.432
75.6 32.216 30.9783 1.2377
75.65 29.3742 30.9721 -1.5979
75.7 31.6498 30.9658 0.684
75.75 38.3506 30.9609 7.3897
75.8 27.9466 30.956 -3.0094
75.85 35.2522 30.9497 4.3025
75.9 31.7027 30.9435 0.7592
75.95 30.6807 30.9376 -0.2569
76 36.9304 30.9316 5.9988
76.05 30.5761 30.9265 -0.3504
76.1 40.0557 30.9214 9.1343
76.15 25.7037 30.9148 -5.2111
76.2 27.9233 30.9081 -2.9848
76.25 22.5955 30.9026 -8.3071
76.3 24.2763 30.8971 -6.6208
76.35 23.7351 30.8915 -7.1564
76.4 28.6926 30.8859 -2.1933
76.45 31.0425 30.8792 0.1633
76.5 36.7097 30.8724 5.8373
76.55 21.498 30.8673 -9.3693
76.6 24.6282 30.8621 -6.2339
76.65 38.8337 30.8559 7.9778
76.7 29.7593 30.8497 -1.0904
76.75 34.5999 30.8432 3.7567
76.8 25.5487 30.8367 -5.288
76.85 38.3758 30.8316 7.5442
76.9 27.4042 30.8265 -3.4223
76.95 25.4069 30.8197 -5.4128
77 28.0915 30.8129 -2.7214
77.05 25.7078 30.8069 -5.0991
77.1 22.9585 30.8009 -7.8424
77.15 29.2498 30.7956 -1.5458
77.2 33.7749 30.7902 2.9847
77.25 28.5813 30.7831 -2.2018
77.3 34.3145 30.776 3.5385
77.35 33.5933 30.7705 2.8228
77.4 29.742 30.765 -1.023
77.45 30.2486 30.7592 -0.5106
77.5 37.5245 30.7533 6.7712
77.55 46.6075 30.7462 15.8613
77.6 34.7187 30.7391 3.9796
77.65 22.2203 30.7341 -8.5138
77.7 35.2264 30.729 4.4974
77.75 35.725 30.7225 5.0025
77.8 31.9111 30.716 1.1951
77.85 33.9423 30.7093 3.233
77.9 30.72 30.7026 0.0174
77.95 32.1548 30.6977 1.4571
78 14.7 30.6928 -15.9928
78.05 17.0275 30.6863 -13.6588
78.1 23.7139 30.6787 -6.9648
78.15 32.0725 30.6726 1.3999
78.2 30.5846 30.6666 -0.082
78.25 30.6304 30.6615 -0.0311
78.3 37.6771 30.6565 7.0206
78.35 37.2759 30.6491 6.6268
78.4 21.4301 30.6417 -9.2116
78.45 39.611 30.6365 8.9745
78.5 30.5158 30.6312 -0.1154
78.55 35.0383 30.6257 4.4126
78.6 28.5973 30.6202 -2.0229
78.65 25.8054 30.6129 -4.8075
78.7 26.6825 30.6056 -3.9231
78.75 37.9297 30.6011 7.3286
78.8 30.0217 30.5966 -0.5749
78.85 35.2462 30.5905 4.6557
78.9 26.3993 30.5844 -4.1851
78.95 23.5532 30.5777 -7.0245
79 35.4603 30.5709 4.8894
79.05 25.733 30.567 -4.834
79.1 29.5214 30.5631 -1.0417
79.15 32.4563 30.5565 1.8998
79.2 33.106 30.5499 2.5561
79.25 31.5452 30.5442 1.001
79.3 37.0217 30.5385 6.4832
79.35 38.5571 30.5352 8.0219
79.4 31.9384 30.532 1.4064
79.45 33.6301 30.5253 3.1048
79.5 34.0742 30.5187 3.5555
79.55 30.9355 30.5146 0.4209
79.6 25.9518 30.5105 -4.5587
79.65 35.2429 30.507 4.7359
79.7 29.6179 30.5034 -0.8855
79.75 27.9188 30.4974 -2.5786
79.8 25.7615 30.4913 -4.7298
79.85 26.5696 30.489 -3.9194
79.9 36.9713 30.4868 6.4845
79.95 24.8874 30.4839 -5.5965
80 29.8629 30.4809 -0.618
80.05 25.7065 30.4765 -4.77
80.1 29.4916 30.4721 -0.9805
80.15 33.0995 30.4726 2.6269
80.2 31.2647 30.4731 0.7916
80.25 32.6057 30.4719 2.1338
80.3 34.1919 30.4707 3.7212
80.35 27.3403 30.47 -3.1297
80.4 29.4114 30.4694 -1.058
80.45 22.2075 30.4752 -8.2677
80.5 40.1449 30.481 9.6639
80.55 32.7588 30.486 2.2728
80.6 27.5808 30.4911 -2.9103
80.65 43.4474 30.5055 12.9419
80.7 36.0074 30.5199 5.4875
80.75 29.2687 30.5734 -1.3047
80.8 34.636 30.6268 4.0092
80.85 35.2918 30.6922 4.5996
80.9 26.2795 30.7576 -4.4781
80.95 26.4856 30.8134 -4.3278
81 26.9395 30.8692 -3.9297
81.05 40.8687 30.9464 9.9223
81.1 33.6419 31.0237 2.6182
81.15 22.2113 31.1311 -8.9198
81.2 28.7859 31.2385 -2.4526
81.25 29.9064 31.417 -1.5106
81.3 34.6497 31.5955 3.0542
81.35 30.325 31.9043 -1.5793
81.4 21.5729 32.213 -10.6401
81.45 34.5984 32.7934 1.805
81.5 27.707 33.3738 -5.6668
81.55 30.8191 34.6928 -3.8737
81.6 44.5116 36.0118 8.4998
81.65 31.6855 39.8441 -8.1586
81.7 42.1954 43.6764 -1.481
81.75 60.6146 53.701 6.9136
81.8 89.7925 75.7919 14.0006
81.85 137.69 123.357 14.333
81.9 194.638 203.734 -9.096
81.95 260.161 283.574 -23.413
82 254.034 287.969 -33.935
82.05 204.107 205.55 -1.443
82.1 118.862 118.554 0.308
82.15 77.7442 71.1348 6.6094
82.2 70.9091 50.7347 20.1744
82.25 53.2715 41.9931 11.2784
82.3 48.6772 37.3505 11.3267
82.35 45.9897 34.9557 11.034
82.4 29.5694 33.5421 -3.9727
82.45 34.1888 32.8044 1.3844
82.5 44.4062 32.0668 12.3394
82.55 30.0597 31.712 -1.6523
82.6 27.5031 31.3572 -3.8541
82.65 25.4779 31.1536 -5.6757
82.7 32.6956 30.95 1.7456
82.75 33.2279 30.83 2.3979
82.8 38.9131 30.71 8.2031
82.85 31.9996 30.6292 1.3704
82.9 35.6172 30.5485 5.0687
82.95 22.0346 30.4855 -8.4509
83 32.3969 30.4224 1.9745
83.05 33.8844 30.3755 3.5089
83.1 33.3036 30.3286 2.975
83.15 26.2334 30.2731 -4.0397
83.2 30.1081 30.2177 -0.1096
83.25 32.4281 30.1807 2.2474
83.3 24.1327 30.1438 -6.0111
83.35 31.766 30.1252 1.6408
83.4 28.7669 30.1067 -1.3398
83.45 34.473 30.0893 4.3837
83.5 40.326 30.072 10.254
83.55 26.8521 30.0549 -3.2028
83.6 40.6522 30.0377 10.6145
83.65 29.4825 30.0274 -0.5449
83.7 44.4967 30.0171 14.4796
83.75 25.3902 30.0046 -4.6144
83.8 22.03 29.992 -7.962
83.85 27.5828 29.9795 -2.3967
83.9 26.5596 29.9669 -3.4073
83.95 25.2766 29.9593 -4.6827
84 34.0983 29.9518 4.1465
84.05 26.9567 29.9412 -2.9845
84.1 20.3862 29.9306 -9.5444
84.15 37.6622 29.9205 7.7417
84.2 37.0831 29.9104 7.1727
84.25 27.5837 29.9041 -2.3204
84.3 32.5364 29.8979 2.6385
84.35 30.0902 29.8883 0.2019
84.4 30.5687 29.8787 0.69
84.45 32.9979 29.8702 3.1277
84.5 32.7026 29.8616 2.841
84.55 42.7132 29.856 12.8572
84.6 33.7599 29.8503 3.9096
84.65 30.1768 29.8413 0.3355
84.7 20.3154 29.8324 -9.517
84.75 28.6281 29.825 -1.1969
84.8 26.0399 29.8175 -3.7776
84.85 33.3453 29.8122 3.5331
84.9 32.7773 29.8068 2.9705
84.95 33.1086 29.7983 3.3103
85 20.5379 29.7897 -9.2518
85.05 28.5753 29.7831 -1.2078
85.1 27.8534 29.7766 -1.9232
85.15 28.2325 29.7713 -1.5388
85.2 26.573 29.7661 -3.1931
85.25 25.9598 29.7579 -3.7981
85.3 33.2355 29.7498 3.4857
85.35 32.4848 29.7438 2.741
85.4 18.2391 29.7379 -11.4988
85.45 31.7226 29.7327 1.9899
85.5 33.3978 29.7274 3.6704
85.55 40.9085 29.7197 11.1888
85.6 29.5176 29.7119 -0.1943
85.65 24.173 29.7064 -5.5334
85.7 29.7253 29.701 0.0243
85.75 35.3358 29.6958 5.64
85.8 33.8175 29.6906 4.1269
85.85 26.8919 29.6831 -2.7912
85.9 18.4857 29.6757 -11.19
85.95 26.4386 29.6706 -3.232
86 40.3429 29.6656 10.6773
86.05 28.8887 29.6604 -0.7717
86.1 37.9128 29.6552 8.2576
86.15 27.7644 29.6481 -1.8837
86.2 26.2653 29.641 -3.3757
86.25 23.7301 29.6363 -5.9062
86.3 30.9844 29.6316 1.3528
86.35 33.5106 29.6264 3.8842
86.4 38.3874 29.6212 8.7662
86.45 25.5161 29.6145 -4.0984
86.5 31.684 29.6077 2.0763
86.55 31.9667 29.6033 2.3634
86.6 33.8411 29.5988 4.2423
86.65 35.2442 29.5937 5.6505
86.7 27.1768 29.5886 -2.4118
86.75 23.1391 29.5821 -6.443
86.8 31.8265 29.5757 2.2508
86.85 32.4849 29.5715 2.9134
86.9 20.1206 29.5673 -9.4467
86.95 21.9158 29.5623 -7.6465
87 27.2503 29.5572 -2.3069
87.05 29.6437 29.5511 0.0926
87.1 27.9675 29.5449 -1.5774
87.15 33.5611 29.5409 4.0202
87.2 36.5537 29.537 7.0167
87.25 43.6533 29.532 14.1213
87.3 37.1998 29.5271 7.6727
87.35 31.0698 29.5212 1.5486
87.4 24.9694 29.5154 -4.546
87.45 26.1157 29.5116 -3.3959
87.5 33.8027 29.5079 4.2948
87.55 33.9555 29.503 4.4525
87.6 39.3619 29.4982 9.8637
87.65 43.4963 29.4926 14.0037
87.7 32.0786 29.4871 2.5915
87.75 32.7088 29.4835 3.2253
87.8 19.1188 29.4799 -10.3611
87.85 27.0428 29.4753 -2.4325
87.9 22.5853 29.4706 -6.8853
87.95 37.2368 29.4653 7.7715
88 31.3493 29.46 1.8893
88.05 26.5622 29.4566 -2.8944
88.1 28.1449 29.4533 -1.3084
88.15 34.8607 29.4488 5.4119
88.2 18.2041 29.4442 -11.2401
88.25 22.1264 29.4392 -7.3128
88.3 22.4529 29.4342 -6.9813
88.35 28.4671 29.431 -0.9639
88.4 30.8991 29.4279 1.4712
88.45 35.3744 29.4235 5.9509
88.5 32.1532 29.4192 2.734
88.55 34.7205 29.4145 5.306
88.6 28.3794 29.4097 -1.0303
88.65 43.218 29.4067 13.8113
88.7 35.0098 29.4037 5.6061
88.75 29.7989 29.3996 0.3993
88.8 28.5269 29.3955 -0.8686
88.85 29.15 29.391 -0.241
88.9 32.7601 29.3865 3.3736
88.95 29.8263 29.3837 0.4426
89 32.3781 29.381 2.9971
89.05 23.4663 29.3771 -5.9108
89.1 26.1254 29.3732 -3.2478
89.15 28.7908 29.369 -0.5782
89.2 32.7226 29.3647 3.3579
89.25 37.838 29.3621 8.4759
89.3 36.0746 29.3595 6.7151
89.35 32.5603 29.3559 3.2044
89.4 35.6182 29.3523 6.2659
89.45 24.947 29.3483 -4.4013
89.5 27.7455 29.3442 -1.5987
89.55 33.1479 29.3419 3.806
89.6 25.5686 29.3395 -3.7709
89.65 32.5261 29.3362 3.1899
89.7 23.5601 29.3329 -5.7728
89.75 32.9739 29.3291 3.6448
89.8 28.6079 29.3253 -0.7174
89.85 27.0227 29.3231 -2.3004
89.9 28.2734 29.321 -1.0476
89.95 30.0552 29.3179 0.7373
90 31.0868 29.3149 1.7719
90.05 34.7105 29.3113 5.3992
90.1 27.7266 29.3078 -1.5812
90.15 27.2002 29.3058 -2.1056
90.2 32.0719 29.3039 2.768
90.25 32.6457 29.3012 3.3445
90.3 24.5172 29.2984 -4.7812
90.35 26.4209 29.2951 -2.8742
90.4 32.9744 29.2917 3.6827
90.45 32.9103 29.2899 3.6204
90.5 32.1484 29.2881 2.8603
90.55 36.5445 29.2856 7.2589
90.6 29.1974 29.2832 -0.0858
90.65 34.3247 29.28 5.0447
90.7 25.3025 29.2767 -3.9742
90.75 35.0903 29.2751 5.8152
90.8 21.2491 29.2734 -8.0243
90.85 34.6258 29.2713 5.3545
90.9 33.3813 29.2691 4.1122
90.95 29.0649 29.266 -0.2011
91 23.8316 29.263 -5.4314
91.05 33.0797 29.2614 3.8183
91.1 21.7368 29.2599 -7.5231
91.15 33.3115 29.258 4.0535
91.2 34.8539 29.2561 5.5978
91.25 34.3252 29.2532 5.072
91.3 31.5315 29.2503 2.2812
91.35 28.2996 29.2489 -0.9493
91.4 22.5308 29.2474 -6.7166
91.45 28.3899 29.2458 -0.8559
91.5 26.12 29.2443 -3.1243
91.55 31.8768 29.2415 2.6353
91.6 35.757 29.2388 6.5182
91.65 30.9978 29.2374 1.7604
91.7 31.5693 29.236 2.3333
91.75 36.4004 29.2347 7.1657
91.8 25.299 29.2335 -3.9345
91.85 29.5212 29.2309 0.2903
91.9 27.9936 29.2284 -1.2348
91.95 19.9982 29.227 -9.2288
92 39.5915 29.2257 10.3658
92.05 37.6918 29.225 8.4668
92.1 46.804 29.2237 17.5803
92.15 31.5593 29.2214 2.3379
92.2 29.0668 29.219 -0.1522
92.25 25.9438 29.2177 -3.2739
92.3 22.9548 29.2163 -6.2615
92.35 28.1215 29.2156 -1.0941
92.4 24.8385 29.2149 -4.3764
92.45 30.5696 29.2128 1.3568
92.5 29.5751 29.2107 0.3644
92.55 26.0049 29.2093 -3.2044
92.6 34.779 29.208 5.571
92.65 30.6093 29.2075 1.4018
92.7 28.4161 29.2071 -0.791
92.75 23.6228 29.2053 -5.5825
92.8 32.8559 29.2034 3.6525
92.85 18.7353 29.202 -10.4667
92.9 24.2247 29.2007 -4.976
92.95 24.2396 29.2004 -4.9608
93 33.7933 29.2002 4.5931
93.05 28.4672 29.1987 -0.7315
93.1 25.7424 29.1972 -3.4548
93.15 39.8344 29.1958 10.6386
93.2 41.7251 29.1943 12.5308
93.25 33.8838 29.1943 4.6895
93.3 20.3238 29.1943 -8.8705
93.35 39.0933 29.1931 9.9002
93.4 39.6545 29.1919 10.4626
93.45 31.4443 29.1909 2.2534
93.5 22.1367 29.1899 -7.0532
93.55 35.4016 29.1898 6.2118
93.6 32.367 29.1898 3.1772
93.65 31.6115 29.1891 2.4224
93.7 23.2938 29.1885 -5.8947
93.75 36.6327 29.1871 7.4456
93.8 26.9603 29.1856 -2.2253
93.85 33.4111 29.1856 4.2255
93.9 32.1916 29.1856 3.006
93.95 23.6816 29.1854 -5.5038
94 22.3576 29.1852 -6.8276
94.05 14.2573 29.1838 -14.9265
94.1 36.2526 29.1825 7.0701
94.15 23.5148 29.1825 -5.6677
94.2 27.3396 29.1824 -1.8428
94.25 21.6574 29.1826 -7.5252
94.3 11.1114 29.1828 -18.0714
94.35 28.2 29.1817 -0.9817
94.4 21.7662 29.1805 -7.4143
94.45 22.9934 29.1804 -6.187
94.5 35.3522 29.1802 6.172
94.55 34.1056 29.1808 4.9248
94.6 27.5891 29.1814 -1.5923
94.65 30.4366 29.1806 1.256
94.7 26.55 29.1797 -2.6297
94.75 24.0293 29.1794 -5.1501
94.8 34.61 29.1792 5.4308
94.85 34.6214 29.1801 5.4413
94.9 39.0814 29.1811 9.9003
94.95 25.1538 29.1806 -4.0268
95 25.0339 29.1802 -4.1463
95.05 28.9421 29.1798 -0.2377
95.1 35.1291 29.1794 5.9497
95.15 47.416 29.1805 18.2355
95.2 37.6808 29.1819 8.4989
95.25 36.8447 29.182 7.6627
95.3 32.1807 29.1821 2.9986
95.35 23.962 29.1817 -5.2197
95.4 29.0775 29.1812 -0.1037
95.45 33.0651 29.1826 3.8825
95.5 29.8733 29.184 0.6893
95.55 26.3085 29.1849 -2.8764
95.6 32.9095 29.1858 3.7237
95.65 28.0736 29.1854 -1.1118
95.7 28.6124 29.1851 -0.5727
95.75 25.2239 29.1866 -3.9627
95.8 25.3985 29.1881 -3.7896
95.85 26.5845 29.1898 -2.6053
95.9 27.8283 29.1915 -1.3632
95.95 27.9558 29.1916 -1.2358
96 27.1601 29.1917 -2.0316
96.05 38.2449 29.1932 9.0517
96.1 30.4586 29.1948 1.2638
96.15 32.6296 29.1976 3.432
96.2 26.6025 29.2003 -2.5978
96.25 25.663 29.2013 -3.5383
96.3 32.515 29.2022 3.3128
96.35 29.7612 29.204 0.5572
96.4 23.1198 29.2058 -6.086
96.45 28.7171 29.2098 -0.4927
96.5 29.3429 29.2139 0.129
96.55 37.4551 29.2165 8.2386
96.6 30.5773 29.2191 1.3582
96.65 23.3588 29.2218 -5.863
96.7 23.6464 29.2244 -5.578
96.75 22.1826 29.2303 -7.0477
96.8 37.0544 29.2361 7.8183
96.85 17.2752 29.2419 -11.9667
96.9 34.6712 29.2476 5.4236
96.95 23.9084 29.2529 -5.3445
97 31.8038 29.2583 2.5455
97.05 36.9129 29.2682 7.6447
97.1 34.7624 29.278 5.4844
97.15 30.0266 29.2917 0.7349
97.2 23.2935 29.3054 -6.0119
97.25 35.8004 29.3246 6.4758
97.3 34.6959 29.3438 5.3521
97.35 25.1129 29.38 -4.2671
97.4 34.7971 29.4163 5.3808
97.45 25.3042 29.4582 -4.154
97.5 31.5845 29.5 2.0845
97.55 31.759 29.5461 2.2129
97.6 31.0632 29.5923 1.4709
97.65 27.5842 29.6579 -2.0737
97.7 29.4484 29.7235 -0.2751
97.75 32.3644 29.8284 2.536
97.8 31.3061 29.9333 1.3728
97.85 30.7992 30.1038 0.6954
97.9 34.3891 30.2743 4.1148
97.95 35.5614 30.5828 4.9786
98 34.8409 30.8914 3.9495
98.05 33.5251 31.5395 1.9856
98.1 25.1117 32.1875 -7.0758
98.15 31.9201 33.7927 -1.8726
98.2 40.1169 35.398 4.7189
98.25 40.5001 38.8745 1.6256
98.3 52.5817 45.2737 7.308
98.35 55.6758 57.9083 -2.2325
98.4 66.8974 79.0597 -12.1623
98.45 105.07 111.343 -6.273
98.5 140.058 143.73 -3.672
98.55 175.927 155.045 20.882
98.6 124.981 135.557 -10.576
98.65 78.9094 101.2 -22.2906
98.7 67.3591 72.1368 -4.7777
98.75 60.397 54.6324 5.7646
98.8 44.582 44.3056 0.2764
98.85 50.7703 38.8706 11.8997
98.9 30.3798 35.7427 -5.3629
98.95 31.6021 34.1861 -2.584
99 34.9539 32.6295 2.3244
99.05 39.018 31.9459 7.0721
99.1 34.8669 31.2624 3.6045
99.15 41.057 30.916 10.141
99.2 28.0278 30.5697 -2.5419
99.25 31.3766 30.3699 1.0067
99.3 26.3333 30.1701 -3.8368
99.35 26.3873 30.0447 -3.6574
99.4 21.0773 29.9193 -8.842
99.45 33.1438 29.8382 3.3056
99.5 27.754 29.757 -2.003
99.55 29.6985 29.6963 0.0022
99.6 22.0912 29.6355 -7.5443
99.65 27.2464 29.5741 -2.3277
99.7 25.2434 29.5126 -4.2692
99.75 30.7856 29.4573 1.3283
99.8 22.4339 29.402 -6.9681
99.85 29.7073 29.3767 0.3306
99.9 37.9878 29.3513 8.6365
99.95 21.5245 29.3367 -7.8122
100 32.5901 29.3221 3.268
100.05 26.4881 29.3125 -2.8244
100.1 39.8879 29.3029 10.585
100.15 18.799 29.298 -10.499
100.2 38.7486 29.2931 9.4555
100.25 31.1408 29.2885 1.8523
100.3 30.4901 29.2839 1.2062
100.35 34.3874 29.279 5.1084
100.4 37.1859 29.2742 7.9117
100.45 30.8524 29.2721 1.5803
100.5 19.4891 29.2699 -9.7808
100.55 29.7992 29.2686 0.5306
100.6 29.5376 29.2673 0.2703
100.65 38.5564 29.2646 9.2918
100.7 26.0956 29.2619 -3.1663
100.75 30.077 29.2604 0.8166
100.8 33.9837 29.2589 4.7248
100.85 28.92 29.259 -0.339
100.9 30.2278 29.2591 0.9687
100.95 20.721 29.258 -8.537
101 44.2365 29.2569 14.9796
101.05 31.1806 29.2556 1.925
101.1 25.4367 29.2544 -3.8177
101.15 35.9524 29.2548 6.6976
101.2 24.3647 29.2553 -4.8906
101.25 37.0395 29.2554 7.7841
101.3 21.6718 29.2556 -7.5838
101.35 24.2423 29.2546 -5.0123
101.4 25.386 29.2537 -3.8677
101.45 21.7505 29.2539 -7.5034
101.5 27.2492 29.2541 -2.0049
101.55 38.5018 29.255 9.2468
101.6 36.5708 29.256 7.3148
101.65 37.2841 29.2556 8.0285
101.7 25.2846 29.2553 -3.9707
101.75 24.9797 29.2544 -4.2747
101.8 25.1967 29.2534 -4.0567
101.85 34.3481 29.2548 5.0933
101.9 33.5737 29.2562 4.3175
101.95 32.4348 29.2562 3.1786
102 34.7724 29.2562 5.5162
102.05 30.7786 29.2559 1.5227
102.1 32.737 29.2556 3.4814
102.15 32.5963 29.2568 3.3395
102.2 32.7667 29.2581 3.5086
102.25 30.983 29.2589 1.7241
102.3 31.636 29.2598 2.3762
102.35 33.2615 29.2594 4.0021
102.4 32.4789 29.259 3.2199
102.45 28.5972 29.2598 -0.6626
102.5 23.7894 29.2606 -5.4712
102.55 28.892 29.2619 -0.3699
102.6 35.679 29.2633 6.4157
102.65 26.7693 29.2633 -2.494
102.7 33.8185 29.2633 4.5552
102.75 38.3506 29.2635 9.0871
102.8 27.3771 29.2637 -1.8866
102.85 30.0602 29.2651 0.7951
102.9 31.7875 29.2666 2.5209
102.95 33.0824 29.2672 3.8152
103 31.8736 29.2679 2.6057
103.05 21.8845 29.2678 -7.3833
103.1 27.4534 29.2676 -1.8142
103.15 31.5434 29.2687 2.2747
103.2 32.2463 29.2697 2.9766
103.25 32.3499 29.271 3.0789
103.3 18.6494 29.2722 -10.6228
103.35 20.5561 29.2722 -8.7161
103.4 32.3493 29.2722 3.0771
103.45 26.0413 29.2726 -3.2313
103.5 23.9911 29.2731 -5.282
103.55 34.7135 29.2745 5.439
103.6 29.2608 29.2759 -0.0151
103.65 34.1333 29.2764 4.8569
103.7 38.7488 29.2769 9.4719
103.75 35.9899 29.2769 6.713
103.8 30.1687 29.2769 0.8918
103.85 32.7026 29.2781 3.4245
103.9 39.3515 29.2792 10.0723
103.95 48.0144 29.2805 18.7339
104 37.6419 29.2813 8.3606
104.05 15.9377 29.2813 -13.3436
104.1 25.586 29.2813 -3.6953
104.15 33.564 29.2818 4.2822
104.2 32.0031 29.2823 2.7208
104.25 20.575 29.2837 -8.7087
104.3 20.9624 29.285 -8.3226
104.35 34.4827 29.2853 5.1974
104.4 22.4969 29.2857 -6.7888
104.45 19.6457 29.2858 -9.6401
104.5 20.6385 29.2858 -8.6473
104.55 22.1473 29.2869 -7.1396
104.6 29.5891 29.288 0.3011
104.65 26.4528 29.2889 -2.8361
104.7 31.227 29.2898 1.9372
104.75 25.4134 29.2897 -3.8763
104.8 29.553 29.2897 0.2633
104.85 33.5917 29.2902 4.3015
104.9 35.6404 29.2907 6.3497
104.95 38.1513 29.2918 8.8595
105 17.4229 29.293 -11.8701
105.05 26.3802 29.2933 -2.9131
105.1 30.2428 29.2936 0.9492
105.15 22.5184 29.2936 -6.7752
105.2 34.3408 29.2936 5.0472
105.25 33.9516 29.2945 4.6571
105.3 32.682 29.2954 3.3866
105.35 25.4462 29.2962 -3.85
105.4 22.1952 29.297 -7.1018
105.45 32.4641 29.2969 3.1672
105.5 27.3729 29.2968 -1.9239
105.55 19.501 29.2971 -9.7961
105.6 30.3324 29.2975 1.0349
105.65 29.5065 29.2985 0.208
105.7 24.1368 29.2995 -5.1627
105.75 33.5259 29.2997 4.2262
105.8 32.6632 29.2999 3.3633
105.85 36.7617 29.2998 7.4619
105.9 37.1938 29.2996 7.8942
105.95 25.1088 29.3004 -4.1916
106 35.4103 29.3011 6.1092
106.05 33.8242 29.3018 4.5224
106.1 24.1971 29.3025 -5.1054
106.15 28.8274 29.3022 -0.4748
106.2 38.1589 29.302 8.8569
106.25 33.5459 29.3022 4.2437
106.3 27.7102 29.3023 -1.5921
106.35 29.4368 29.3031 0.1337
106.4 23.6995 29.304 -5.6045
106.45 27.606 29.3041 -1.6981
106.5 28.4322 29.3042 -0.872
106.55 32.9829 29.3039 3.679
106.6 29.5384 29.3036 0.2348
106.65 35.5387 29.3041 6.2346
106.7 28.4787 29.3045 -0.8258
106.75 32.4815 29.3051 3.1764
106.8 24.8706 29.3057 -4.4351
106.85 19.2335 29.3053 -10.0718
106.9 39.6625 29.305 10.3575
106.95 29.3213 29.3049 0.0164
107 19.7891 29.3047 -9.5156
107.05 28.7354 29.3053 -0.5699
107.1 26.2722 29.3059 -3.0337
107.15 27.1405 29.306 -2.1655
107.2 29.0902 29.3061 -0.2159
107.25 26.0423 29.3056 -3.2633
107.3 26.2778 29.305 -3.0272
107.35 29.0888 29.3052 -0.2164
107.4 23.5974 29.3053 -5.7079
107.45 38.2277 29.3059 8.9218
107.5 25.2132 29.3064 -4.0932
107.55 32.4266 29.3061 3.1205
107.6 27.7157 29.3058 -1.5901
107.65 25.45 29.3054 -3.8554
107.7 39.1217 29.305 9.8167
107.75 25.6466 29.3055 -3.6589
107.8 31.588 29.306 2.282
107.85 18.2417 29.3062 -11.0645
107.9 31.6963 29.3065 2.3898
107.95 24.7599 29.306 -4.5461
108 21.5108 29.3055 -7.7947
108.05 28.2925 29.3055 -1.013
108.1 20.9918 29.3054 -8.3136
108.15 26.6509 29.306 -2.6551
108.2 28.9761 29.3066 -0.3305
108.25 36.9865 29.3065 7.68
108.3 30.554 29.3064 1.2476
108.35 32.425 29.306 3.119
108.4 23.23 29.3055 -6.0755
108.45 30.4698 29.3058 1.164
108.5 27.7777 29.3061 -1.5284
108.55 25.3884 29.3066 -3.9182
108.6 29.2568 29.307 -0.0502
108.65 44.1959 29.3067 14.8892
108.7 28.1159 29.3063 -1.1904
108.75 26.9375 29.3061 -2.3686
108.8 26.3677 29.3058 -2.9381
108.85 35.1585 29.3064 5.8521
108.9 34.549 29.3069 5.2421
108.95 32.5542 29.3071 3.2471
109 30.4306 29.3074 1.1232
109.05 29.6172 29.3069 0.3103
109.1 41.2361 29.3064 11.9297
109.15 26.785 29.3065 -2.5215
109.2 28.785 29.3065 -0.5215
109.25 27.7244 29.3071 -1.5827
109.3 28.5075 29.3078 -0.8003
109.35 26.3159 29.3077 -2.9918
109.4 28.7932 29.3076 -0.5144
109.45 31.5751 29.3072 2.2679
109.5 20.1884 29.3068 -9.1184
109.55 34.6361 29.3071 5.329
109.6 23.0819 29.3075 -6.2256
109.65 36.4489 29.308 7.1409
109.7 26.3469 29.3086 -2.9617
109.75 29.9928 29.3083 0.6845
109.8 27.3955 29.308 -1.9125
109.85 27.3207 29.3077 -1.987
109.9 30.6427 29.3075 1.3352
109.95 25.844 29.3081 -3.4641
110 32.7367 29.3087 3.428
110.05 27.2068 29.3091 -2.1023
110.1 34.2568 29.3094 4.9474
110.15 30.4998 29.309 1.1908
110.2 40.1329 29.3085 10.8244
110.25 35.3972 29.3086 6.0886
110.3 29.5647 29.3086 0.2561
110.35 25.3247 29.3094 -3.9847
110.4 33.8593 29.3101 4.5492
110.45 24.3176 29.3102 -4.9926
110.5 32.6181 29.3103 3.3078
110.55 32.6052 29.3099 3.2953
110.6 29.3357 29.3095 0.0262
110.65 23.0304 29.3098 -6.2794
110.7 26.5956 29.3102 -2.7146
110.75 31.5991 29.3109 2.2882
110.8 37.2452 29.3117 7.9335
110.85 29.9987 29.3116 0.6871
110.9 31.9794 29.3115 2.6679
110.95 31.9909 29.3112 2.6797
111 30.5229 29.3109 1.212
111.05 25.705 29.3116 -3.6066
111.1 32.3494 29.3122 3.0372
111.15 36.5235 29.3129 7.2106
111.2 34.3702 29.3136 5.0566
111.25 38.8492 29.3134 9.5358
111.3 34.7199 29.3132 5.4067
111.35 25.0712 29.3131 -4.2419
111.4 31.2118 29.3131 1.8987
111.45 21.3679 29.314 -7.9461
111.5 36.5971 29.3149 7.2822
111.55 21.9348 29.3155 -7.3807
111.6 21.879 29.3161 -7.4371
111.65 28.2208 29.3158 -1.095
111.7 38.1389 29.3156 8.8233
111.75 40.358 29.3158 11.0422
111.8 27.8999 29.3161 -1.4162
111.85 25.6966 29.3172 -3.6206
111.9 34.5748 29.3184 5.2564
111.95 25.4319 29.3189 -3.887
112 26.132 29.3194 -3.1874
112.05 37.2597 29.3193 7.9404
112.1 38.269 29.3191 8.9499
112.15 31.7621 29.3197 2.4424
112.2 32.4425 29.3204 3.1221
112.25 23.3376 29.3218 -5.9842
112.3 30.2204 29.3231 0.8973
112.35 26.9403 29.3237 -2.3834
112.4 51.0823 29.3243 21.758
112.45 22.7681 29.3243 -6.5562
112.5 23.1995 29.3244 -6.1249
112.55 38.6487 29.3255 9.3232
112.6 38.9082 29.3267 9.5815
112.65 32.1542 29.3284 2.8258
112.7 38.3343 29.3301 9.0042
112.75 29.503 29.3308 0.1722
112.8 22.4385 29.3315 -6.893
112.85 33.1307 29.332 3.7987
112.9 32.7779 29.3326 3.4453
112.95 26.2154 29.3344 -3.119
113 29.489 29.3363 0.1527
113.05 32.293 29.3385 2.9545
113.1 35.0495 29.3408 5.7087
113.15 28.5349 29.342 -0.8071
113.2 32.5121 29.3432 3.1689
113.25 30.0063 29.3446 0.6617
113.3 27.0924 29.3459 -2.2535
113.35 20.9648 29.3489 -8.3841
113.4 25.8692 29.3519 -3.4827
113.45 42.423 29.3553 13.0677
113.5 24.18 29.3586 -5.1786
113.55 26.1144 29.3611 -3.2467
113.6 36.8168 29.3635 7.4533
113.65 26.8806 29.3665 -2.4859
113.7 27.934 29.3696 -1.4356
113.75 22.5404 29.3748 -6.8344
113.8 23.8665 29.38 -5.5135
113.85 35.2897 29.3859 5.9038
113.9 34.3286 29.3918 4.9368
113.95 25.77 29.3973 -3.6273
114 39.0861 29.4028 9.6833
114.05 22.6829 29.41 -6.7271
114.1 29.5767 29.4172 0.1595
114.15 31.5716 29.4279 2.1437
114.2 32.0833 29.4387 2.6446
114.25 31.8068 29.4519 2.3549
114.3 27.611 29.4651 -1.8541
114.35 32.1388 29.4805 2.6583
114.4 34.7947 29.496 5.2987
114.45 31.1168 29.5181 1.5987
114.5 25.6644 29.5401 -3.8757
114.55 31.4533 29.5742 1.8791
114.6 30.7991 29.6083 1.1908
114.65 35.6384 29.6572 5.9812
114.7 38.6374 29.7062 8.9312
114.75 31.127 29.7714 1.3556
114.8 37.0925 29.8365 7.256
114.85 25.61 29.9235 -4.3135
114.9 32.1896 30.0105 2.1791
114.95 28.8473 30.1351 -1.2878
115 29.9559 30.2596 -0.3037
115.05 22.18 30.448 -8.268
115.1 30.2283 30.6364 -0.4081
115.15 29.1344 30.9412 -1.8068
115.2 39.4083 31.2459 8.1624
115.25 31.0756 31.7809 -0.7053
115.3 33.7175 32.3159 1.4016
115.35 38.8076 33.3264 5.4812
115.4 36.5851 34.337 2.2481
115.45 43.736 36.3702 7.3658
115.5 26.36 38.4035 -12.0435
115.55 42.5467 41.8793 0.6674
115.6 50.3045 46.9204 3.3841
115.65 48.7972 54.2789 -5.4817
115.7 81.6289 64.0425 17.5864
115.75 59.6668 76.7238 -17.057
115.8 79.537 91.0481 -11.5111
115.85 118.773 104.23 14.543
115.9 117.868 112.41 5.458
115.95 118.453 112.623 5.83
116 97.9417 104.796 -6.8543
116.05 78.6555 91.7794 -13.1239
116.1 75.7502 77.5148 -1.7646
116.15 66.8134 64.7771 2.0363
116.2 54.7843 54.7663 0.018
116.25 50.6683 47.458 3.2103
116.3 40.1655 42.3223 -2.1568
116.35 37.0197 39.3115 -2.2918
116.4 36.8351 36.3007 0.5344
116.45 43.6271 34.8291 8.798
116.5 27.0601 33.3576 -6.2975
116.55 29.3246 32.5979 -3.2733
116.6 31.6559 31.8383 -0.1824
116.65 37.3441 31.4191 5.925
116.7 40.0224 31 9.0224
116.75 32.9829 30.7502 2.2327
116.8 47.599 30.5005 17.0985
116.85 30.645 30.3393 0.3057
116.9 24.4831 30.1782 -5.6951
116.95 26.8137 30.0675 -3.2538
117 30.7409 29.9567 0.7842
117.05 30.6035 29.8762 0.7273
117.1 30.5007 29.7956 0.7051
117.15 32.5554 29.7356 2.8198
117.2 31.9489 29.6756 2.2733
117.25 36.8209 29.6324 7.1885
117.3 31.8863 29.5892 2.2971
117.35 37.6551 29.5596 8.0955
117.4 26.8922 29.53 -2.6378
117.45 30.3955 29.5104 0.8851
117.5 30.0522 29.4909 0.5613
117.55 30.2407 29.4766 0.7641
117.6 32.76 29.4623 3.2977
117.65 34.2159 29.4499 4.766
117.7 32.4775 29.4375 3.04
117.75 27.6555 29.4273 -1.7718
117.8 32.3531 29.4172 2.9359
117.85 28.4245 29.4102 -0.9857
117.9 18.7661 29.4033 -10.6372
117.95 30.9669 29.3981 1.5688
118 40.1264 29.3929 10.7335
118.05 21.9773 29.3874 -7.4101
118.1 20.599 29.3819 -8.7829
118.15 36.296 29.3767 6.9193
118.2 32.9171 29.3715 3.5456
118.25 24.7816 29.3681 -4.5865
118.3 28.3492 29.3647 -1.0155
118.35 29.3031 29.3625 -0.0594
118.4 32.5036 29.3602 3.1434
118.45 25.8929 29.3574 -3.4645
118.5 29.3929 29.3546 0.0383
118.55 27.1206 29.3515 -2.2309
118.6 34.9137 29.3483 5.5654
118.65 22.7281 29.3462 -6.6181
118.7 35.572 29.3442 6.2278
118.75 36.2941 29.3432 6.9509
118.8 33.0311 29.3422 3.6889
118.85 31.8484 29.3408 2.5076
118.9 31.3093 29.3393 1.97
118.95 40.6078 29.3372 11.2706
119 33.4851 29.335 4.1501
119.05 29.0245 29.3335 -0.309
119.1 23.9239 29.332 -5.4081
119.15 29.9586 29.3316 0.627
119.2 28.6507 29.3311 -0.6804
119.25 29.4759 29.3305 0.1454
119.3 26.5076 29.3298 -2.8222
119.35 27.932 29.3283 -1.3963
119.4 27.7192 29.3268 -1.6076
119.45 23.3509 29.3256 -5.9747
119.5 33.0925 29.3243 3.7682
119.55 30.2559 29.3241 0.9318
119.6 28.5345 29.3238 -0.7893
119.65 26.3521 29.3236 -2.9715
119.7 22.4829 29.3234 -6.8405
119.75 34.8537 29.3224 5.5313
119.8 32.9997 29.3214 3.6783
119.85 34.5723 29.3203 5.252
119.9 34.6407 29.3192 5.3215
119.95 24.6449 29.319 -4.6741
120 39.1985 29.3187 9.8798
120.05 33.3772 29.3188 4.0584
120.1 37.9316 29.3189 8.6127
120.15 27.3005 29.3183 -2.0178
120.2 27.4978 29.3177 -1.8199
120.25 30.3002 29.3167 0.9835
120.3 33.4444 29.3158 4.1286
120.35 28.4562 29.3154 -0.8592
120.4 38.0309 29.315 8.7159
120.45 33.6388 29.3152 4.3236
120.5 29.0511 29.3155 -0.2644
120.55 21.2014 29.3152 -8.1138
120.6 26.6108 29.315 -2.7042
120.65 24.9989 29.3142 -4.3153
120.7 26.5246 29.3134 -2.7888
120.75 22.7669 29.3129 -6.546
120.8 42.3334 29.3124 13.021
120.85 37.6536 29.3126 8.341
120.9 29.8654 29.3128 0.5526
120.95 26.4353 29.3128 -2.8775
121 26.8155 29.3129 -2.4974
121.05 44.9809 29.3123 15.6686
121.1 35.206 29.3117 5.8943
121.15 27.7988 29.3111 -1.5123
121.2 36.7021 29.3105 7.3916
121.25 29.29 29.3105 -0.0205
121.3 32.0285 29.3106 2.7179
121.35 33.889 29.3109 4.5781
121.4 31.2136 29.3111 1.9025
121.45 26.5511 29.3108 -2.7597
121.5 25.1497 29.3105 -4.1608
121.55 38.8632 29.3098 9.5534
121.6 44.4125 29.3092 15.1033
121.65 28.0878 29.309 -1.2212
121.7 32.2661 29.3089 2.9572
121.75 29.424 29.3092 0.1148
121.8 29.885 29.3095 0.5755
121.85 35.0721 29.3095 5.7626
121.9 30.2715 29.3094 0.9621
121.95 21.4592 29.3089 -7.8497
122 30.7368 29.3083 1.4285
122.05 29.3197 29.308 0.0117
122.1 37.0467 29.3076 7.7391
122.15 19.681 29.3079 -9.6269
122.2 30.4989 29.3081 1.1908
122.25 32.8165 29.3083 3.5082
122.3 34.8788 29.3085 5.5703
122.35 29.5657 29.3081 0.2576
122.4 33.2383 29.3078 3.9305
122.45 42.5742 29.3073 13.2669
122.5 27.1564 29.3068 -2.1504
122.55 27.7533 29.3068 -1.5535
122.6 30.9128 29.3069 1.6059
122.65 30.5675 29.3072 1.2603
122.7 31.2515 29.3075 1.944
122.75 26.3238 29.307 -2.9832
122.8 28.0293 29.3065 -1.2772
122.85 25.5636 29.3061 -3.7425
122.9 46.1468 29.3058 16.841
122.95 32.4829 29.3055 3.1774
123 30.2539 29.3052 0.9487
123.05 29.9116 29.3053 0.6063
123.1 38.3605 29.3054 9.0551
123.15 28.1795 29.3056 -1.1261
123.2 28.3684 29.3058 -0.9374
123.25 29.1823 29.3056 -0.1233
123.3 42.0389 29.3055 12.7334
123.35 24.7085 29.3051 -4.5966
123.4 38.0185 29.3048 8.7137
123.45 32.3702 29.3047 3.0655
123.5 23.0795 29.3046 -6.2251
123.55 39.3804 29.3048 10.0756
123.6 34.1784 29.305 4.8734
123.65 32.3548 29.3051 3.0497
123.7 32.372 29.3051 3.0669
123.75 30.006 29.3049 0.7011
123.8 34.8678 29.3046 5.5632
123.85 24.8403 29.3043 -4.464
123.9 28.0043 29.304 -1.2997
123.95 31.1734 29.3041 1.8693
124 34.5366 29.3042 5.2324
124.05 37.3425 29.3044 8.0381
124.1 36.8934 29.3046 7.5888
124.15 28.5125 29.3045 -0.792
124.2 26.7123 29.3045 -2.5922
124.25 49.4963 29.3041 20.1922
124.3 26.2446 29.3038 -3.0592
124.35 28.3712 29.3037 -0.9325
124.4 24.7766 29.3036 -4.527
124.45 34.9616 29.3038 5.6578
124.5 26.1426 29.304 -3.1614
124.55 26.3881 29.3041 -2.916
124.6 35.5784 29.3042 6.2742
124.65 20.5573 29.304 -8.7467
124.7 26.5227 29.3038 -2.7811
124.75 30.8597 29.3035 1.5562
124.8 33.9256 29.3033 4.6223
124.85 29.3943 29.3033 0.091
124.9 29.4041 29.3034 0.1007
124.95 31.4155 29.3036 2.1119
125 21.2664 29.3038 -8.0374
125.05 24.3132 29.3038 -4.9906
125.1 21.0193 29.3038 -8.2845
125.15 22.6168 29.3035 -6.6867
125.2 32.4528 29.3032 3.1496
125.25 28.2 29.3031 -1.1031
125.3 29.2764 29.3029 -0.0265
125.35 36.2151 29.3031 6.912
125.4 31.4621 29.3032 2.1589
125.45 31.9341 29.3034 2.6307
125.5 47.0042 29.3035 17.7007
125.55 31.2487 29.3034 1.9453
125.6 28.7831 29.3033 -0.5202
125.65 32.6405 29.3031 3.3374
125.7 42.2271 29.3028 12.9243
125.75 27.4742 29.3027 -1.8285
125.8 44.9212 29.3027 15.6185
125.85 30.3358 29.3029 1.0329
125.9 44.5841 29.3031 15.281
125.95 31.9933 29.3032 2.6901
126 27.0746 29.3033 -2.2287
126.05 32.9694 29.3031 3.6663
126.1 25.4394 29.3029 -3.8635
126.15 26.7009 29.3027 -2.6018
126.2 32.8819 29.3025 3.5794
126.25 35.6089 29.3025 6.3064
126.3 24.312 29.3025 -4.9905
126.35 24.9526 29.3027 -4.3501
126.4 27.5941 29.3029 -1.7088
126.45 29.5325 29.3029 0.2296
126.5 39.9807 29.303 10.6777
126.55 30.2274 29.3028 0.9246
126.6 29.551 29.3025 0.2485
126.65 32.089 29.3024 2.7866
126.7 21.7262 29.3022 -7.576
126.75 23.6816 29.3023 -5.6207
126.8 31.9586 29.3024 2.6562
126.85 32.8372 29.3026 3.5346
126.9 33.4053 29.3028 4.1025
126.95 26.2389 29.3027 -3.0638
127 31.7487 29.3027 2.446
127.05 24.59 29.3025 -4.7125
127.1 25.4384 29.3023 -3.8639
127.15 32.6896 29.3022 3.3874
127.2 29.3681 29.3021 0.066
127.25 38.8861 29.3022 9.5839
127.3 32.1382 29.3023 2.8359
127.35 28.2513 29.3025 -1.0512
127.4 31.2711 29.3026 1.9685
127.45 34.1163 29.3025 4.8138
127.5 38.7481 29.3024 9.4457
127.55 35.4632 29.3022 6.161
127.6 30.6704 29.302 1.3684
127.65 29.2236 29.302 -0.0784
127.7 22.8906 29.3019 -6.4113
127.75 34.8772 29.3021 5.5751
127.8 29.6889 29.3022 0.3867
127.85 29.0443 29.3023 -0.258
127.9 40.5936 29.3025 11.2911
127.95 34.3862 29.3023 5.0839
128 34.3648 29.3022 5.0626
128.05 33.6678 29.302 4.3658
128.1 32.4002 29.3018 3.0984
128.15 37.7174 29.3018 8.4156
128.2 35.8854 29.3018 6.5836
128.25 35.9539 29.302 6.6519
128.3 37.2212 29.3021 7.9191
128.35 35.9703 29.3022 6.6681
128.4 19.4698 29.3023 -9.8325
128.45 31.3226 29.3022 2.0204
128.5 26.3337 29.3021 -2.9684
128.55 24.4643 29.3019 -4.8376
128.6 26.8446 29.3017 -2.4571
128.65 33.8231 29.3017 4.5214
128.7 28.4809 29.3017 -0.8208
128.75 32.5702 29.3019 3.2683
128.8 35.9139 29.302 6.6119
128.85 23.025 29.3021 -6.2771
128.9 27.5975 29.3022 -1.7047
128.95 25.8937 29.302 -3.4083
129 28.8063 29.3019 -0.4956
129.05 34.7675 29.3017 5.4658
129.1 25.3985 29.3016 -3.9031
129.15 41.8985 29.3016 12.5969
129.2 32.076 29.3016 2.7744
129.25 28.9487 29.3018 -0.3531
129.3 20.2371 29.3019 -9.0648
129.35 29.2615 29.302 -0.0405
129.4 26.7746 29.3021 -2.5275
129.45 29.2315 29.3019 -0.0704
129.5 30.6221 29.3018 1.3203
129.55 27.3163 29.3016 -1.9853
129.6 35.591 29.3015 6.2895
129.65 26.1667 29.3015 -3.1348
129.7 41.1347 29.3015 11.8332
129.75 22.7818 29.3017 -6.5199
129.8 35.7748 29.3018 6.473
129.85 29.1626 29.3019 -0.1393
129.9 36.2798 29.302 6.9778
129.95 26.1066 29.3132 -3.2066
130 30.292 29.3245 0.9675
