
#Surface 0 of 1 surfaces

#IsoCurve 0, 1801 points
#x y z type
 40  187.722  171.985 i
 40.05  206.278  171.853 i
 40.1  159.812  171.722 i
 40.15  195.339  171.591 i
 40.2  208.512  171.459 i
 40.25  165.329  171.328 i
 40.3  180.209  171.196 i
 40.35  186.947  171.065 i
 40.4  219.202  170.933 i
 40.45  180.173  170.801 i
 40.5  186.307  170.67 i
 40.55  186.233  170.538 i
 40.6  185.225  170.407 i
 40.65  173.828  170.275 i
 40.7  178.55  170.143 i
 40.75  153.159  170.011 i
 40.8  204.364  169.88 i
 40.85  182.969  169.748 i
 40.9  166.139  169.616 i
 40.95  171.633  169.484 i
 41  168.458  169.353 i
 41.05  195.77  169.221 i
 41.1  167.728  169.089 i
 41.15  138.755  168.957 i
 41.2  151.825  168.826 i
 41.25  170.018  168.694 i
 41.3  167.099  168.562 i
 41.35  187.568  168.431 i
 41.4  169.108  168.299 i
 41.45  170.357  168.167 i
 41.5  216.669  168.035 i
 41.55  188.808  167.904 i
 41.6  172.457  167.772 i
 41.65  160.322  167.641 i
 41.7  197.219  167.509 i
 41.75  176.561  167.377 i
 41.8  174.582  167.246 i
 41.85  155.065  167.114 i
 41.9  158.693  166.983 i
 41.95  178.705  166.852 i
 42  158.982  166.72 i
 42.05  176.211  166.589 i
 42.1  172.319  166.458 i
 42.15  171.692  166.326 i
 42.2  182.984  166.195 i
 42.25  152.296  166.064 i
 42.3  136.012  165.933 i
 42.35  162.589  165.802 i
 42.4  189.603  165.671 i
 42.45  173.361  165.54 i
 42.5  184.505  165.409 i
 42.55  162.371  165.278 i
 42.6  156.072  165.148 i
 42.65  166.494  165.017 i
 42.7  152.401  164.886 i
 42.75  148.402  164.756 i
 42.8  142.199  164.625 i
 42.85  176.866  164.495 i
 42.9  170.674  164.364 i
 42.95  162.18  164.234 i
 43  159.03  164.104 i
 43.05  196.434  163.974 i
 43.1  173.862  163.844 i
 43.15  161.302  163.714 i
 43.2  195.814  163.584 i
 43.25  164.607  163.455 i
 43.3  155.365  163.325 i
 43.35  166.618  163.195 i
 43.4  158.622  163.066 i
 43.45  182.815  162.937 i
 43.5  200.081  162.807 i
 43.55  185.232  162.678 i
 43.6  196.005  162.549 i
 43.65  153.457  162.42 i
 43.7  184.782  162.291 i
 43.75  201.539  162.163 i
 43.8  180.552  162.034 i
 43.85  198.988  161.906 i
 43.9  205.4  161.777 i
 43.95  187.317  161.649 i
 44  211.962  161.521 i
 44.05  217.201  161.393 i
 44.1  251.089  161.265 i
 44.15  298.38  161.137 i
 44.2  305.855  161.01 i
 44.25  443.218  160.882 i
 44.3  566.901  160.755 i
 44.35  826.152  160.628 i
 44.4  1575.39  160.5 i
 44.45  3548.68  160.374 i
 44.5  7625.39  160.247 i
 44.55  10365.8  160.12 i
 44.6  8709.91  159.994 i
 44.65  4985.09  159.867 i
 44.7  2090.23  159.741 i
 44.75  964.87  159.615 i
 44.8  608.554  159.489 i
 44.85  405.476  159.363 i
 44.9  313.512  159.238 i
 44.95  297.494  159.112 i
 45  236.611  158.987 i
 45.05  226.391  158.862 i
 45.1  184.887  158.737 i
 45.15  224.576  158.612 i
 45.2  197.697  158.488 i
 45.25  183.587  158.363 i
 45.3  210.533  158.239 i
 45.35  185.541  158.115 i
 45.4  177.002  157.991 i
 45.45  181.972  157.867 i
 45.5  171.007  157.744 i
 45.55  179.486  157.621 i
 45.6  195.2  157.498 i
 45.65  144.242  157.375 i
 45.7  182.846  157.252 i
 45.75  150.899  157.129 i
 45.8  146.59  157.007 i
 45.85  149.569  156.885 i
 45.9  165.795  156.763 i
 45.95  177.801  156.641 i
 46  168.031  156.519 i
 46.05  177.113  156.398 i
 46.1  172.841  156.277 i
 46.15  135.56  156.156 i
 46.2  176.845  156.035 i
 46.25  157.4  155.915 i
 46.3  156.448  155.795 i
 46.35  170.571  155.675 i
 46.4  195.957  155.555 i
 46.45  158.382  155.435 i
 46.5  149.876  155.316 i
 46.55  155.073  155.197 i
 46.6  174.134  155.078 i
 46.65  166.532  154.959 i
 46.7  133.919  154.84 i
 46.75  156.608  154.722 i
 46.8  162.199  154.604 i
 46.85  147.361  154.486 i
 46.9  153.486  154.369 i
 46.95  164.566  154.252 i
 47  167.251  154.135 i
 47.05  165.562  154.018 i
 47.1  146.965  153.901 i
 47.15  160.533  153.785 i
 47.2  151.251  153.669 i
 47.25  162.373  153.553 i
 47.3  162.371  153.438 i
 47.35  156.279  153.323 i
 47.4  173.552  153.208 i
 47.45  148.321  153.093 i
 47.5  154.971  152.978 i
 47.55  157.984  152.864 i
 47.6  153.479  152.75 i
 47.65  176.028  152.637 i
 47.7  164.181  152.523 i
 47.75  144.938  152.41 i
 47.8  162.833  152.298 i
 47.85  139.76  152.185 i
 47.9  154.302  152.073 i
 47.95  141.839  151.961 i
 48  141.646  151.849 i
 48.05  152.962  151.738 i
 48.1  172.661  151.627 i
 48.15  153.36  151.516 i
 48.2  157.617  151.405 i
 48.25  162.575  151.295 i
 48.3  165.961  151.185 i
 48.35  140.974  151.076 i
 48.4  156.318  150.967 i
 48.45  145.707  150.858 i
 48.5  164.576  150.749 i
 48.55  179.031  150.641 i
 48.6  153.813  150.532 i
 48.65  136.811  150.425 i
 48.7  147.741  150.317 i
 48.75  123.393  150.21 i
 48.8  163.202  150.103 i
 48.85  165.484  149.997 i
 48.9  140.75  149.891 i
 48.95  155.025  149.785 i
 49  145.702  149.68 i
 49.05  159.428  149.575 i
 49.1  150.227  149.47 i
 49.15  165.348  149.365 i
 49.2  163.048  149.261 i
 49.25  161.502  149.157 i
 49.3  159.183  149.054 i
 49.35  150.109  148.951 i
 49.4  166.255  148.848 i
 49.45  174.658  148.746 i
 49.5  144.315  148.644 i
 49.55  145.173  148.542 i
 49.6  140.405  148.441 i
 49.65  156.677  148.34 i
 49.7  156.177  148.239 i
 49.75  122.521  148.139 i
 49.8  155.29  148.039 i
 49.85  175.63  147.939 i
 49.9  181.153  147.84 i
 49.95  165.514  147.741 i
 50  148.166  147.643 i
 50.05  160.809  147.545 i
 50.1  163.122  147.447 i
 50.15  160.757  147.35 i
 50.2  161.523  147.253 i
 50.25  152.918  147.156 i
 50.3  149.8  147.06 i
 50.35  133.553  146.964 i
 50.4  155.79  146.869 i
 50.45  149.797  146.774 i
 50.5  152.055  146.679 i
 50.55  144.694  146.585 i
 50.6  147.167  146.491 i
 50.65  162.181  146.398 i
 50.7  153.126  146.305 i
 50.75  164.622  146.212 i
 50.8  143.753  146.12 i
 50.85  129.759  146.028 i
 50.9  162.978  145.937 i
 50.95  150.644  145.846 i
 51  167.5  145.755 i
 51.05  139.694  145.665 i
 51.1  158.792  145.575 i
 51.15  153.697  145.486 i
 51.2  178.952  145.397 i
 51.25  145.556  145.309 i
 51.3  130.118  145.22 i
 51.35  157.205  145.133 i
 51.4  146.083  145.046 i
 51.45  155.865  144.959 i
 51.5  146.548  144.873 i
 51.55  133.243  144.787 i
 51.6  158.099  144.701 i
 51.65  161.208  144.616 i
 51.7  169.85  144.532 i
 51.75  152.525  144.447 i
 51.8  153.948  144.364 i
 51.85  136.108  144.28 i
 51.9  157.51  144.198 i
 51.95  124.824  144.115 i
 52  146.04  144.033 i
 52.05  158.353  143.952 i
 52.1  154.488  143.871 i
 52.15  144.123  143.79 i
 52.2  156.919  143.71 i
 52.25  141.143  143.631 i
 52.3  155.091  143.552 i
 52.35  144.758  143.473 i
 52.4  142.627  143.395 i
 52.45  146.246  143.317 i
 52.5  129.787  143.24 i
 52.55  135.171  143.163 i
 52.6  154.774  143.087 i
 52.65  117.569  143.011 i
 52.7  167.303  142.936 i
 52.75  165.296  142.861 i
 52.8  136.277  142.787 i
 52.85  134.659  142.713 i
 52.9  148.758  142.639 i
 52.95  156.703  142.566 i
 53  134.382  142.494 i
 53.05  158.791  142.422 i
 53.1  139.023  142.351 i
 53.15  126.831  142.28 i
 53.2  151.302  142.21 i
 53.25  150.517  142.14 i
 53.3  134.691  142.07 i
 53.35  161.994  142.001 i
 53.4  135.466  141.933 i
 53.45  113.454  141.865 i
 53.5  157.392  141.798 i
 53.55  136.827  141.731 i
 53.6  162.548  141.665 i
 53.65  146.519  141.599 i
 53.7  146.833  141.534 i
 53.75  159.306  141.469 i
 53.8  147.463  141.405 i
 53.85  155.432  141.342 i
 53.9  138.939  141.278 i
 53.95  144.321  141.216 i
 54  174.428  141.154 i
 54.05  152.747  141.092 i
 54.1  152.274  141.031 i
 54.15  150.964  140.971 i
 54.2  161.464  140.911 i
 54.25  174.62  140.852 i
 54.3  114.311  140.793 i
 54.35  136.662  140.735 i
 54.4  149.173  140.677 i
 54.45  132.251  140.62 i
 54.5  138.14  140.564 i
 54.55  123.54  140.508 i
 54.6  147.409  140.452 i
 54.65  146.709  140.397 i
 54.7  143.76  140.343 i
 54.75  147.002  140.289 i
 54.8  147.083  140.236 i
 54.85  144.331  140.183 i
 54.9  151.348  140.131 i
 54.95  150.157  140.079 i
 55  160.962  140.027 i
 55.05  139.81  139.975 i
 55.1  141.014  139.925 i
 55.15  156.38  139.874 i
 55.2  132.657  139.824 i
 55.25  143.682  139.774 i
 55.3  145.423  139.725 i
 55.35  153.032  139.675 i
 55.4  147.227  139.627 i
 55.45  137.073  139.579 i
 55.5  146.155  139.531 i
 55.55  139.574  139.483 i
 55.6  159.214  139.436 i
 55.65  137.412  139.389 i
 55.7  148.924  139.343 i
 55.75  156.893  139.296 i
 55.8  145.545  139.251 i
 55.85  148.227  139.205 i
 55.9  136.367  139.16 i
 55.95  154.236  139.116 i
 56  139.839  139.071 i
 56.05  151.093  139.027 i
 56.1  142.107  138.984 i
 56.15  130.93  138.941 i
 56.2  147.378  138.898 i
 56.25  157.731  138.855 i
 56.3  126.871  138.813 i
 56.35  127.039  138.771 i
 56.4  114.169  138.73 i
 56.45  142.078  138.688 i
 56.5  138.018  138.648 i
 56.55  136.764  138.607 i
 56.6  134.363  138.567 i
 56.65  163.587  138.527 i
 56.7  144.018  138.488 i
 56.75  125.648  138.449 i
 56.8  137.493  138.41 i
 56.85  163.514  138.371 i
 56.9  154.034  138.333 i
 56.95  157.456  138.295 i
 57  141.415  138.258 i
 57.05  143.961  138.221 i
 57.1  117.032  138.184 i
 57.15  147.412  138.147 i
 57.2  137.19  138.111 i
 57.25  138.459  138.075 i
 57.3  139.557  138.04 i
 57.35  144.621  138.004 i
 57.4  139.864  137.97 i
 57.45  140.481  137.935 i
 57.5  131.318  137.901 i
 57.55  151.76  137.867 i
 57.6  140.256  137.833 i
 57.65  166.239  137.8 i
 57.7  153.513  137.766 i
 57.75  153.713  137.734 i
 57.8  123.131  137.701 i
 57.85  132.616  137.669 i
 57.9  147.769  137.637 i
 57.95  129.686  137.606 i
 58  135.572  137.574 i
 58.05  153.056  137.543 i
 58.1  158.47  137.513 i
 58.15  173.168  137.482 i
 58.2  149.484  137.452 i
 58.25  141.35  137.422 i
 58.3  155.315  137.393 i
 58.35  150.15  137.363 i
 58.4  166.413  137.335 i
 58.45  151.805  137.306 i
 58.5  135.556  137.277 i
 58.55  129.88  137.249 i
 58.6  144.636  137.221 i
 58.65  147.232  137.194 i
 58.7  140.182  137.167 i
 58.75  150.713  137.14 i
 58.8  141.859  137.113 i
 58.85  156.147  137.086 i
 58.9  138.977  137.06 i
 58.95  142.546  137.034 i
 59  143.65  137.009 i
 59.05  149.252  136.983 i
 59.1  116.415  136.958 i
 59.15  125.107  136.933 i
 59.2  119.357  136.908 i
 59.25  125.887  136.884 i
 59.3  157.072  136.86 i
 59.35  137.048  136.836 i
 59.4  141.655  136.813 i
 59.45  127.324  136.789 i
 59.5  143.665  136.766 i
 59.55  136.127  136.743 i
 59.6  135.001  136.721 i
 59.65  132.307  136.698 i
 59.7  142.217  136.676 i
 59.75  123.115  136.654 i
 59.8  153.624  136.633 i
 59.85  138.964  136.611 i
 59.9  128.951  136.59 i
 59.95  124.322  136.569 i
 60  142.181  136.549 i
 60.05  122.95  136.528 i
 60.1  140.105  136.508 i
 60.15  162.962  136.488 i
 60.2  122.739  136.468 i
 60.25  137.371  136.449 i
 60.3  140.048  136.429 i
 60.35  129.526  136.41 i
 60.4  148.94  136.391 i
 60.45  147.733  136.373 i
 60.5  147.586  136.354 i
 60.55  118.528  136.336 i
 60.6  146.714  136.318 i
 60.65  135.272  136.301 i
 60.7  154.496  136.283 i
 60.75  155.426  136.266 i
 60.8  146.149  136.249 i
 60.85  124.376  136.232 i
 60.9  140.508  136.215 i
 60.95  115.546  136.199 i
 61  150.718  136.182 i
 61.05  144.544  136.166 i
 61.1  133.839  136.15 i
 61.15  153.756  136.135 i
 61.2  143.519  136.119 i
 61.25  140.836  136.104 i
 61.3  145.88  136.089 i
 61.35  140.334  136.074 i
 61.4  112.282  136.059 i
 61.45  120.088  136.045 i
 61.5  135.327  136.03 i
 61.55  146.337  136.016 i
 61.6  174.744  136.002 i
 61.65  148.843  135.989 i
 61.7  123.276  135.975 i
 61.75  137.263  135.962 i
 61.8  145.605  135.949 i
 61.85  144.432  135.936 i
 61.9  120.038  135.923 i
 61.95  153.607  135.91 i
 62  152.008  135.898 i
 62.05  128.768  135.885 i
 62.1  137.999  135.873 i
 62.15  135.336  135.861 i
 62.2  150.965  135.849 i
 62.25  136.33  135.838 i
 62.3  136.125  135.826 i
 62.35  127.542  135.815 i
 62.4  146.645  135.804 i
 62.45  136.154  135.793 i
 62.5  149.58  135.782 i
 62.55  155.744  135.771 i
 62.6  154.638  135.761 i
 62.65  147.507  135.751 i
 62.7  167.806  135.74 i
 62.75  139.781  135.73 i
 62.8  140.543  135.72 i
 62.85  169.728  135.711 i
 62.9  147.241  135.701 i
 62.95  139.222  135.692 i
 63  130.311  135.682 i
 63.05  154.044  135.673 i
 63.1  137.736  135.664 i
 63.15  113.05  135.655 i
 63.2  128.629  135.647 i
 63.25  133.973  135.638 i
 63.3  149.324  135.63 i
 63.35  134.597  135.621 i
 63.4  140.978  135.613 i
 63.45  133.527  135.605 i
 63.5  123.701  135.597 i
 63.55  143.829  135.589 i
 63.6  124.507  135.582 i
 63.65  150.485  135.574 i
 63.7  143.102  135.567 i
 63.75  131.159  135.559 i
 63.8  145.933  135.552 i
 63.85  173.927  135.545 i
 63.9  134.324  135.538 i
 63.95  154.675  135.531 i
 64  138.649  135.525 i
 64.05  140.239  135.518 i
 64.1  130.41  135.512 i
 64.15  145.805  135.505 i
 64.2  155.657  135.499 i
 64.25  161.302  135.493 i
 64.3  175.065  135.487 i
 64.35  139.972  135.481 i
 64.4  155.783  135.475 i
 64.45  158.387  135.469 i
 64.5  140.739  135.463 i
 64.55  196.903  135.458 i
 64.6  228.826  135.452 i
 64.65  263.764  135.447 i
 64.7  339.127  135.442 i
 64.75  438.385  135.437 i
 64.8  418.451  135.432 i
 64.85  396.428  135.427 i
 64.9  318.32  135.422 i
 64.95  232.042  135.417 i
 65  201.458  135.412 i
 65.05  152.704  135.408 i
 65.1  170.642  135.403 i
 65.15  145.312  135.399 i
 65.2  155.709  135.394 i
 65.25  131.531  135.39 i
 65.3  128.546  135.386 i
 65.35  142.778  135.381 i
 65.4  128.42  135.377 i
 65.45  123.26  135.373 i
 65.5  133.436  135.369 i
 65.55  157.696  135.365 i
 65.6  141.699  135.361 i
 65.65  150.853  135.358 i
 65.7  139.166  135.354 i
 65.75  133.304  135.35 i
 65.8  126.258  135.347 i
 65.85  140.043  135.343 i
 65.9  136.103  135.34 i
 65.95  156.097  135.336 i
 66  151.652  135.333 i
 66.05  130.307  135.33 i
 66.1  142.176  135.327 i
 66.15  137.269  135.323 i
 66.2  125.146  135.32 i
 66.25  133.675  135.317 i
 66.3  136.651  135.314 i
 66.35  147.307  135.311 i
 66.4  136.919  135.308 i
 66.45  138.463  135.305 i
 66.5  152.238  135.302 i
 66.55  148.081  135.299 i
 66.6  140.097  135.297 i
 66.65  132.49  135.294 i
 66.7  139.545  135.291 i
 66.75  130.361  135.288 i
 66.8  130.113  135.286 i
 66.85  133.133  135.283 i
 66.9  119.438  135.28 i
 66.95  138.299  135.278 i
 67  121.566  135.275 i
 67.05  146.334  135.273 i
 67.1  135.849  135.27 i
 67.15  149.517  135.267 i
 67.2  134.163  135.265 i
 67.25  128.706  135.263 i
 67.3  135.246  135.26 i
 67.35  146.661  135.258 i
 67.4  134.101  135.255 i
 67.45  130.843  135.253 i
 67.5  151.96  135.25 i
 67.55  136.523  135.248 i
 67.6  149.047  135.245 i
 67.65  133.608  135.243 i
 67.7  143.964  135.241 i
 67.75  145.917  135.238 i
 67.8  143.66  135.236 i
 67.85  134.816  135.233 i
 67.9  134.647  135.231 i
 67.95  144.811  135.229 i
 68  138.563  135.226 i
 68.05  143.497  135.224 i
 68.1  120.528  135.221 i
 68.15  152.091  135.219 i
 68.2  127.889  135.217 i
 68.25  134.197  135.214 i
 68.3  140.916  135.212 i
 68.35  148.338  135.209 i
 68.4  126.454  135.207 i
 68.45  147.082  135.204 i
 68.5  133.352  135.201 i
 68.55  145.215  135.199 i
 68.6  150.773  135.196 i
 68.65  120.569  135.194 i
 68.7  146.812  135.191 i
 68.75  146  135.188 i
 68.8  135.894  135.186 i
 68.85  127.198  135.183 i
 68.9  143.679  135.18 i
 68.95  160.499  135.177 i
 69  122.181  135.174 i
 69.05  132.554  135.172 i
 69.1  136.858  135.169 i
 69.15  132.116  135.166 i
 69.2  126.479  135.163 i
 69.25  131.964  135.16 i
 69.3  137.839  135.156 i
 69.35  138.162  135.153 i
 69.4  140.091  135.15 i
 69.45  137.997  135.147 i
 69.5  152.543  135.144 i
 69.55  151.621  135.14 i
 69.6  149.53  135.137 i
 69.65  149.612  135.133 i
 69.7  143.53  135.13 i
 69.75  122.11  135.126 i
 69.8  132.638  135.123 i
 69.85  146.089  135.119 i
 69.9  150.278  135.115 i
 69.95  154.625  135.111 i
 70  135.118  135.108 i
 70.05  144.336  135.104 i
 70.1  132.883  135.1 i
 70.15  136.74  135.095 i
 70.2  131.081  135.091 i
 70.25  125.28  135.087 i
 70.3  142.661  135.083 i
 70.35  124.984  135.078 i
 70.4  125.492  135.074 i
 70.45  140.618  135.069 i
 70.5  139.47  135.065 i
 70.55  138.19  135.06 i
 70.6  134.488  135.055 i
 70.65  125.463  135.05 i
 70.7  148.159  135.045 i
 70.75  147.666  135.04 i
 70.8  138.268  135.035 i
 70.85  126.831  135.03 i
 70.9  147.389  135.024 i
 70.95  145.442  135.019 i
 71  153.08  135.014 i
 71.05  123.971  135.008 i
 71.1  118.197  135.002 i
 71.15  140.211  134.996 i
 71.2  140.848  134.99 i
 71.25  131.421  134.984 i
 71.3  120.399  134.978 i
 71.35  143.418  134.972 i
 71.4  133.425  134.966 i
 71.45  139.44  134.959 i
 71.5  142.634  134.953 i
 71.55  117.257  134.946 i
 71.6  133.083  134.939 i
 71.65  138.057  134.932 i
 71.7  122.234  134.925 i
 71.75  123.085  134.918 i
 71.8  155.05  134.911 i
 71.85  147.422  134.903 i
 71.9  119.613  134.896 i
 71.95  135.057  134.888 i
 72  116.384  134.88 i
 72.05  144.799  134.872 i
 72.1  135.693  134.864 i
 72.15  128.409  134.856 i
 72.2  135.137  134.848 i
 72.25  124.249  134.839 i
 72.3  145.036  134.831 i
 72.35  123.811  134.822 i
 72.4  131.592  134.813 i
 72.45  143.423  134.804 i
 72.5  143.542  134.795 i
 72.55  135.345  134.786 i
 72.6  142.293  134.776 i
 72.65  140.242  134.767 i
 72.7  136.416  134.757 i
 72.75  140.707  134.747 i
 72.8  148.865  134.737 i
 72.85  123.209  134.727 i
 72.9  125.04  134.717 i
 72.95  148.839  134.706 i
 73  148.747  134.696 i
 73.05  141.467  134.685 i
 73.1  134.184  134.674 i
 73.15  166.024  134.663 i
 73.2  129.18  134.652 i
 73.25  147.678  134.64 i
 73.3  122.799  134.629 i
 73.35  147.145  134.617 i
 73.4  124.459  134.605 i
 73.45  143.669  134.593 i
 73.5  149.695  134.581 i
 73.55  142.84  134.569 i
 73.6  146.429  134.557 i
 73.65  156.282  134.545 i
 73.7  149.095  134.533 i
 73.75  144.664  134.521 i
 73.8  126.358  134.509 i
 73.85  121.549  134.497 i
 73.9  125.241  134.485 i
 73.95  122.044  134.473 i
 74  155.453  134.461 i
 74.05  128.008  134.449 i
 74.1  135.362  134.437 i
 74.15  145.764  134.425 i
 74.2  134.446  134.413 i
 74.25  125.367  134.401 i
 74.3  151.53  134.39 i
 74.35  139.715  134.378 i
 74.4  137.881  134.366 i
 74.45  120.699  134.354 i
 74.5  155.065  134.342 i
 74.55  126.946  134.331 i
 74.6  139.502  134.319 i
 74.65  132.953  134.307 i
 74.7  137.609  134.296 i
 74.75  128.194  134.284 i
 74.8  154.51  134.272 i
 74.85  134.514  134.261 i
 74.9  144.753  134.249 i
 74.95  141.252  134.237 i
 75  125.797  134.226 i
 75.05  144.028  134.214 i
 75.1  144.483  134.203 i
 75.15  122.236  134.191 i
 75.2  137.968  134.18 i
 75.25  126.115  134.168 i
 75.3  130.684  134.157 i
 75.35  140.365  134.145 i
 75.4  127.865  134.134 i
 75.45  133.628  134.122 i
 75.5  140.723  134.111 i
 75.55  120.866  134.099 i
 75.6  151.147  134.088 i
 75.65  136.783  134.077 i
 75.7  130.082  134.065 i
 75.75  137.508  134.054 i
 75.8  126.44  134.043 i
 75.85  152.251  134.031 i
 75.9  140.771  134.02 i
 75.95  116.647  134.009 i
 76  171.386  133.998 i
 76.05  146.707  133.986 i
 76.1  144.946  133.975 i
 76.15  140.161  133.964 i
 76.2  133.555  133.953 i
 76.25  128.381  133.942 i
 76.3  125.649  133.93 i
 76.35  141.208  133.919 i
 76.4  156.821  133.908 i
 76.45  133.971  133.897 i
 76.5  141.008  133.886 i
 76.55  143.01  133.875 i
 76.6  134.569  133.864 i
 76.65  145.285  133.853 i
 76.7  136.937  133.842 i
 76.75  121.829  133.831 i
 76.8  141.514  133.82 i
 76.85  141.562  133.809 i
 76.9  132.661  133.798 i
 76.95  127.621  133.787 i
 77  129.392  133.777 i
 77.05  127.487  133.766 i
 77.1  117.719  133.755 i
 77.15  124.721  133.744 i
 77.2  131.92  133.733 i
 77.25  141.137  133.722 i
 77.3  157.619  133.712 i
 77.35  144.374  133.701 i
 77.4  158.369  133.69 i
 77.45  146.855  133.68 i
 77.5  130.415  133.669 i
 77.55  103.114  133.658 i
 77.6  146.056  133.648 i
 77.65  132.95  133.637 i
 77.7  147.241  133.626 i
 77.75  138.186  133.616 i
 77.8  132.857  133.605 i
 77.85  128.732  133.595 i
 77.9  133.245  133.584 i
 77.95  141.268  133.574 i
 78  123.51  133.563 i
 78.05  124.475  133.553 i
 78.1  143.038  133.542 i
 78.15  141.161  133.532 i
 78.2  121.554  133.521 i
 78.25  116.24  133.511 i
 78.3  140.796  133.501 i
 78.35  136.665  133.49 i
 78.4  131.149  133.48 i
 78.45  134.168  133.47 i
 78.5  146.818  133.459 i
 78.55  146.457  133.449 i
 78.6  148.701  133.439 i
 78.65  117.213  133.428 i
 78.7  131.605  133.418 i
 78.75  124.99  133.408 i
 78.8  110.59  133.398 i
 78.85  131.839  133.388 i
 78.9  123.517  133.378 i
 78.95  137.032  133.368 i
 79  138.621  133.357 i
 79.05  122.973  133.347 i
 79.1  111.005  133.337 i
 79.15  151.451  133.327 i
 79.2  149.101  133.317 i
 79.25  149.489  133.307 i
 79.3  150.07  133.297 i
 79.35  137.553  133.287 i
 79.4  128.715  133.278 i
 79.45  135.908  133.268 i
 79.5  137.98  133.258 i
 79.55  142.774  133.248 i
 79.6  125.035  133.238 i
 79.65  136.055  133.228 i
 79.7  123.377  133.218 i
 79.75  150.215  133.209 i
 79.8  144.785  133.199 i
 79.85  154.194  133.189 i
 79.9  122.133  133.18 i
 79.95  128.622  133.17 i
 80  121.314  133.16 i
 80.05  134.607  133.151 i
 80.1  138.033  133.141 i
 80.15  132.617  133.131 i
 80.2  132.144  133.122 i
 80.25  128.192  133.112 i
 80.3  135.351  133.103 i
 80.35  107.235  133.093 i
 80.4  120.519  133.084 i
 80.45  129.115  133.074 i
 80.5  137.852  133.065 i
 80.55  162.623  133.055 i
 80.6  138.309  133.046 i
 80.65  130.945  133.037 i
 80.7  122.481  133.027 i
 80.75  140.85  133.018 i
 80.8  123.617  133.009 i
 80.85  124.898  132.999 i
 80.9  140.103  132.99 i
 80.95  155.37  132.981 i
 81  140.764  132.972 i
 81.05  141.22  132.962 i
 81.1  135.792  132.953 i
 81.15  137.488  132.944 i
 81.2  148.506  132.935 i
 81.25  140.376  132.926 i
 81.3  128.701  132.917 i
 81.35  131.246  132.908 i
 81.4  155.571  132.899 i
 81.45  146.005  132.89 i
 81.5  148.974  132.881 i
 81.55  151.537  132.872 i
 81.6  153.877  132.863 i
 81.65  148.917  132.854 i
 81.7  174.159  132.845 i
 81.75  210.096  132.836 i
 81.8  258.651  132.827 i
 81.85  310.423  132.818 i
 81.9  436.071  132.809 i
 81.95  617.433  132.801 i
 82  824.769  132.792 i
 82.05  1018.58  132.783 i
 82.1  957.281  132.774 i
 82.15  785.205  132.766 i
 82.2  567.934  132.757 i
 82.25  367.883  132.748 i
 82.3  280.701  132.74 i
 82.35  209.966  132.731 i
 82.4  204.84  132.723 i
 82.45  173.781  132.714 i
 82.5  142.834  132.706 i
 82.55  138.62  132.697 i
 82.6  138.806  132.689 i
 82.65  155.659  132.68 i
 82.7  141.823  132.672 i
 82.75  135.057  132.663 i
 82.8  140.635  132.655 i
 82.85  128.368  132.647 i
 82.9  130.253  132.638 i
 82.95  125.836  132.63 i
 83  136.615  132.622 i
 83.05  156.948  132.613 i
 83.1  116.798  132.605 i
 83.15  112.623  132.597 i
 83.2  133.535  132.589 i
 83.25  135.443  132.581 i
 83.3  134.226  132.573 i
 83.35  126.611  132.564 i
 83.4  151.59  132.556 i
 83.45  138.215  132.548 i
 83.5  140.36  132.54 i
 83.55  148.703  132.532 i
 83.6  131.724  132.524 i
 83.65  122.338  132.516 i
 83.7  138.133  132.508 i
 83.75  136.013  132.5 i
 83.8  136.802  132.493 i
 83.85  109.671  132.485 i
 83.9  123.257  132.477 i
 83.95  136.559  132.469 i
 84  134.366  132.461 i
 84.05  146.757  132.454 i
 84.1  124.104  132.446 i
 84.15  138.297  132.438 i
 84.2  134.892  132.43 i
 84.25  127.036  132.423 i
 84.3  126.52  132.415 i
 84.35  122.238  132.408 i
 84.4  133.782  132.4 i
 84.45  139  132.392 i
 84.5  141.238  132.385 i
 84.55  123.144  132.377 i
 84.6  129.472  132.37 i
 84.65  144.003  132.362 i
 84.7  130.02  132.355 i
 84.75  129.757  132.348 i
 84.8  139.448  132.34 i
 84.85  120.951  132.333 i
 84.9  122.709  132.326 i
 84.95  139.284  132.318 i
 85  133.213  132.311 i
 85.05  140.035  132.304 i
 85.1  130.725  132.297 i
 85.15  144.655  132.289 i
 85.2  154.499  132.282 i
 85.25  135.43  132.275 i
 85.3  132.43  132.268 i
 85.35  133.831  132.261 i
 85.4  140.51  132.254 i
 85.45  126.584  132.247 i
 85.5  164.082  132.24 i
 85.55  139.892  132.233 i
 85.6  137.889  132.226 i
 85.65  118.683  132.219 i
 85.7  126.093  132.212 i
 85.75  133.587  132.205 i
 85.8  136.428  132.198 i
 85.85  139.021  132.192 i
 85.9  126.874  132.185 i
 85.95  122.95  132.178 i
 86  150.663  132.171 i
 86.05  130.376  132.165 i
 86.1  132.612  132.158 i
 86.15  126.556  132.151 i
 86.2  125.509  132.145 i
 86.25  120.585  132.138 i
 86.3  132.598  132.131 i
 86.35  129.56  132.125 i
 86.4  131.306  132.118 i
 86.45  139.38  132.112 i
 86.5  154.527  132.105 i
 86.55  153.606  132.099 i
 86.6  138.924  132.093 i
 86.65  131.068  132.086 i
 86.7  135.732  132.08 i
 86.75  137.717  132.074 i
 86.8  125.303  132.067 i
 86.85  114.966  132.061 i
 86.9  141.497  132.055 i
 86.95  122.709  132.049 i
 87  119.431  132.042 i
 87.05  120.236  132.036 i
 87.1  106.894  132.03 i
 87.15  141.345  132.024 i
 87.2  121.463  132.018 i
 87.25  116.769  132.012 i
 87.3  142.428  132.006 i
 87.35  135.293  132 i
 87.4  122.639  131.994 i
 87.45  124.576  131.988 i
 87.5  150.757  131.982 i
 87.55  124.653  131.976 i
 87.6  110.54  131.97 i
 87.65  138.881  131.965 i
 87.7  127.456  131.959 i
 87.75  129.586  131.953 i
 87.8  148.81  131.947 i
 87.85  132.647  131.942 i
 87.9  110.023  131.936 i
 87.95  109.52  131.93 i
 88  147.481  131.925 i
 88.05  121.92  131.919 i
 88.1  127.795  131.914 i
 88.15  161.042  131.908 i
 88.2  126.471  131.903 i
 88.25  145.216  131.897 i
 88.3  136.051  131.892 i
 88.35  127.154  131.886 i
 88.4  122.299  131.881 i
 88.45  105.424  131.876 i
 88.5  131.007  131.87 i
 88.55  128.516  131.865 i
 88.6  112.98  131.86 i
 88.65  126.85  131.855 i
 88.7  133.649  131.849 i
 88.75  118.316  131.844 i
 88.8  130.555  131.839 i
 88.85  140.89  131.834 i
 88.9  129.454  131.829 i
 88.95  124.554  131.824 i
 89  157.718  131.819 i
 89.05  106.231  131.814 i
 89.1  130.644  131.809 i
 89.15  133.302  131.804 i
 89.2  143.268  131.799 i
 89.25  151.536  131.794 i
 89.3  139.025  131.789 i
 89.35  128.034  131.785 i
 89.4  109.081  131.78 i
 89.45  103.209  131.775 i
 89.5  119.102  131.77 i
 89.55  132.809  131.766 i
 89.6  114.807  131.761 i
 89.65  102.924  131.756 i
 89.7  123.355  131.752 i
 89.75  142.52  131.747 i
 89.8  124.993  131.743 i
 89.85  140.892  131.738 i
 89.9  142.054  131.734 i
 89.95  154.88  131.729 i
 90  126.448  131.725 i
 90.05  127.374  131.721 i
 90.1  145.378  131.716 i
 90.15  156.728  131.712 i
 90.2  123.108  131.708 i
 90.25  156.442  131.703 i
 90.3  135.571  131.699 i
 90.35  123.607  131.695 i
 90.4  132.805  131.691 i
 90.45  116.176  131.687 i
 90.5  136.472  131.683 i
 90.55  130.428  131.679 i
 90.6  152.2  131.675 i
 90.65  142.265  131.671 i
 90.7  146.196  131.667 i
 90.75  145.244  131.663 i
 90.8  137.479  131.66 i
 90.85  141.034  131.656 i
 90.9  143.721  131.652 i
 90.95  137.656  131.649 i
 91  129.896  131.645 i
 91.05  127.808  131.641 i
 91.1  121.21  131.638 i
 91.15  127.698  131.635 i
 91.2  130.612  131.631 i
 91.25  136.823  131.628 i
 91.3  113.282  131.624 i
 91.35  112.279  131.621 i
 91.4  137.82  131.618 i
 91.45  114.335  131.615 i
 91.5  132.109  131.612 i
 91.55  126.021  131.609 i
 91.6  125.276  131.606 i
 91.65  123.609  131.603 i
 91.7  133.487  131.6 i
 91.75  124.545  131.597 i
 91.8  117.799  131.594 i
 91.85  115.812  131.591 i
 91.9  138.339  131.588 i
 91.95  129.572  131.585 i
 92  123.232  131.583 i
 92.05  127.486  131.58 i
 92.1  143.022  131.577 i
 92.15  119.944  131.575 i
 92.2  127.542  131.572 i
 92.25  137.25  131.57 i
 92.3  134.175  131.567 i
 92.35  116.394  131.565 i
 92.4  135.096  131.562 i
 92.45  139.101  131.56 i
 92.5  135.63  131.558 i
 92.55  145.658  131.556 i
 92.6  124.588  131.553 i
 92.65  135.67  131.551 i
 92.7  108.861  131.549 i
 92.75  123.61  131.547 i
 92.8  134.375  131.545 i
 92.85  135.886  131.543 i
 92.9  120.803  131.541 i
 92.95  161.446  131.539 i
 93  136.52  131.537 i
 93.05  160.828  131.535 i
 93.1  136.534  131.533 i
 93.15  143.41  131.531 i
 93.2  128.16  131.529 i
 93.25  144.161  131.528 i
 93.3  126.426  131.526 i
 93.35  147.747  131.524 i
 93.4  150.291  131.523 i
 93.45  133.304  131.521 i
 93.5  125.748  131.519 i
 93.55  134.627  131.518 i
 93.6  121.628  131.516 i
 93.65  118.885  131.515 i
 93.7  153.306  131.514 i
 93.75  121.681  131.512 i
 93.8  133.306  131.511 i
 93.85  142.452  131.509 i
 93.9  146.93  131.508 i
 93.95  151.08  131.507 i
 94  118.524  131.506 i
 94.05  118.977  131.504 i
 94.1  128.495  131.503 i
 94.15  127.894  131.502 i
 94.2  126.798  131.501 i
 94.25  120.121  131.5 i
 94.3  126.379  131.499 i
 94.35  141.406  131.498 i
 94.4  130.375  131.497 i
 94.45  136.764  131.496 i
 94.5  138.385  131.495 i
 94.55  136.238  131.494 i
 94.6  125.32  131.493 i
 94.65  144.559  131.492 i
 94.7  126.737  131.492 i
 94.75  130.042  131.491 i
 94.8  124.346  131.49 i
 94.85  123.998  131.489 i
 94.9  125.652  131.489 i
 94.95  139.236  131.488 i
 95  159.335  131.488 i
 95.05  131.549  131.487 i
 95.1  133.404  131.486 i
 95.15  153.332  131.486 i
 95.2  132.704  131.485 i
 95.25  143.438  131.485 i
 95.3  138.222  131.484 i
 95.35  135.147  131.484 i
 95.4  134.953  131.484 i
 95.45  130.962  131.483 i
 95.5  118.692  131.483 i
 95.55  116.424  131.483 i
 95.6  120.508  131.482 i
 95.65  141.08  131.482 i
 95.7  133.148  131.482 i
 95.75  124.204  131.482 i
 95.8  136.65  131.481 i
 95.85  133.136  131.481 i
 95.9  147.248  131.481 i
 95.95  149.224  131.481 i
 96  150.813  131.481 i
 96.05  132.677  131.481 i
 96.1  117.129  131.481 i
 96.15  148.371  131.481 i
 96.2  145.515  131.481 i
 96.25  136.52  131.481 i
 96.3  137.733  131.481 i
 96.35  134.608  131.481 i
 96.4  125.438  131.481 i
 96.45  135.777  131.481 i
 96.5  133.579  131.481 i
 96.55  139.893  131.482 i
 96.6  124.772  131.482 i
 96.65  117.048  131.482 i
 96.7  133.719  131.482 i
 96.75  119.211  131.482 i
 96.8  126.276  131.483 i
 96.85  132.492  131.483 i
 96.9  126.822  131.483 i
 96.95  117.071  131.484 i
 97  140.65  131.484 i
 97.05  154.792  131.484 i
 97.1  131.57  131.485 i
 97.15  134.742  131.485 i
 97.2  125.648  131.486 i
 97.25  146.273  131.486 i
 97.3  152.997  131.487 i
 97.35  160.656  131.487 i
 97.4  118.113  131.488 i
 97.45  134.683  131.488 i
 97.5  119.617  131.489 i
 97.55  117.667  131.489 i
 97.6  144.954  131.49 i
 97.65  123.762  131.491 i
 97.7  131.541  131.491 i
 97.75  145.755  131.492 i
 97.8  120.252  131.493 i
 97.85  147.761  131.493 i
 97.9  143.338  131.494 i
 97.95  143.782  131.495 i
 98  148.582  131.495 i
 98.05  154.303  131.496 i
 98.1  148.889  131.497 i
 98.15  163.748  131.498 i
 98.2  156.617  131.499 i
 98.25  202.627  131.499 i
 98.3  203.409  131.5 i
 98.35  257.748  131.501 i
 98.4  339.992  131.502 i
 98.45  430.006  131.503 i
 98.5  542.753  131.504 i
 98.55  672.67  131.505 i
 98.6  706.26  131.505 i
 98.65  651.886  131.506 i
 98.7  518.136  131.507 i
 98.75  410.872  131.508 i
 98.8  300.97  131.509 i
 98.85  238.474  131.51 i
 98.9  209.312  131.511 i
 98.95  177.934  131.512 i
 99  149.222  131.513 i
 99.05  159.354  131.514 i
 99.1  164.504  131.515 i
 99.15  164.191  131.516 i
 99.2  143.379  131.518 i
 99.25  135.884  131.519 i
 99.3  145.121  131.52 i
 99.35  126.592  131.521 i
 99.4  145.431  131.522 i
 99.45  128.191  131.523 i
 99.5  130.843  131.524 i
 99.55  147.925  131.525 i
 99.6  107.225  131.527 i
 99.65  135.515  131.528 i
 99.7  147.891  131.529 i
 99.75  139.122  131.53 i
 99.8  130.78  131.531 i
 99.85  136.489  131.533 i
 99.9  138.58  131.534 i
 99.95  133.271  131.535 i
 100  131.422  131.536 i
 100.05  136.756  131.537 i
 100.1  140.396  131.539 i
 100.15  134.293  131.54 i
 100.2  139.721  131.541 i
 100.25  137.963  131.542 i
 100.3  131.132  131.544 i
 100.35  150.93  131.545 i
 100.4  143.351  131.546 i
 100.45  127.648  131.548 i
 100.5  132.95  131.549 i
 100.55  135.521  131.55 i
 100.6  131.418  131.552 i
 100.65  113.06  131.553 i
 100.7  156.613  131.554 i
 100.75  128.782  131.556 i
 100.8  135.243  131.557 i
 100.85  132.079  131.558 i
 100.9  144.965  131.56 i
 100.95  120.665  131.561 i
 101  130.564  131.562 i
 101.05  135.205  131.564 i
 101.1  130.172  131.565 i
 101.15  128.472  131.566 i
 101.2  138.258  131.568 i
 101.25  151.238  131.569 i
 101.3  124.034  131.571 i
 101.35  121.318  131.572 i
 101.4  107.34  131.573 i
 101.45  107.302  131.575 i
 101.5  157.54  131.576 i
 101.55  117.158  131.577 i
 101.6  111.57  131.579 i
 101.65  121.891  131.58 i
 101.7  126.499  131.582 i
 101.75  152.298  131.583 i
 101.8  135.53  131.584 i
 101.85  129.533  131.586 i
 101.9  143.598  131.587 i
 101.95  123.704  131.589 i
 102  128.288  131.59 i
 102.05  141.984  131.592 i
 102.1  140.251  131.593 i
 102.15  122.011  131.594 i
 102.2  137.079  131.596 i
 102.25  133.844  131.597 i
 102.3  127.333  131.599 i
 102.35  120.003  131.6 i
 102.4  131.243  131.601 i
 102.45  131.308  131.603 i
 102.5  127.821  131.604 i
 102.55  109.593  131.605 i
 102.6  120.697  131.607 i
 102.65  137.609  131.608 i
 102.7  133.362  131.61 i
 102.75  126.569  131.611 i
 102.8  132.225  131.612 i
 102.85  113.735  131.614 i
 102.9  145.709  131.615 i
 102.95  124.641  131.617 i
 103  112.101  131.618 i
 103.05  137.741  131.619 i
 103.1  125.669  131.621 i
 103.15  113.509  131.622 i
 103.2  128.806  131.623 i
 103.25  144.116  131.625 i
 103.3  127.537  131.626 i
 103.35  133.783  131.627 i
 103.4  124.12  131.629 i
 103.45  133.835  131.63 i
 103.5  131.016  131.631 i
 103.55  126.036  131.633 i
 103.6  133.618  131.634 i
 103.65  128.23  131.635 i
 103.7  122.853  131.636 i
 103.75  118.55  131.638 i
 103.8  134.3  131.639 i
 103.85  122.769  131.64 i
 103.9  176.946  131.642 i
 103.95  130.138  131.643 i
 104  146.92  131.644 i
 104.05  136.784  131.645 i
 104.1  137.114  131.647 i
 104.15  104.761  131.648 i
 104.2  141.226  131.649 i
 104.25  119.678  131.65 i
 104.3  123.546  131.651 i
 104.35  130.32  131.653 i
 104.4  147.082  131.654 i
 104.45  132.916  131.655 i
 104.5  160.271  131.656 i
 104.55  134.601  131.657 i
 104.6  146.828  131.658 i
 104.65  137.619  131.659 i
 104.7  130.44  131.661 i
 104.75  119.769  131.662 i
 104.8  125.918  131.663 i
 104.85  136.105  131.664 i
 104.9  127.937  131.665 i
 104.95  159.141  131.666 i
 105  125.601  131.667 i
 105.05  121.864  131.668 i
 105.1  120.046  131.669 i
 105.15  152.179  131.67 i
 105.2  140.946  131.671 i
 105.25  137.69  131.672 i
 105.3  121.221  131.673 i
 105.35  130.084  131.674 i
 105.4  109.573  131.675 i
 105.45  136.824  131.676 i
 105.5  132.192  131.677 i
 105.55  141.077  131.678 i
 105.6  129.459  131.679 i
 105.65  163.001  131.679 i
 105.7  129.618  131.68 i
 105.75  132.5  131.681 i
 105.8  131.106  131.682 i
 105.85  115.999  131.683 i
 105.9  132.98  131.683 i
 105.95  126.787  131.684 i
 106  135.232  131.685 i
 106.05  119.727  131.686 i
 106.1  117.626  131.687 i
 106.15  120.004  131.687 i
 106.2  124.018  131.688 i
 106.25  141.121  131.689 i
 106.3  147.156  131.689 i
 106.35  128.627  131.69 i
 106.4  134.03  131.691 i
 106.45  125.879  131.691 i
 106.5  139.65  131.692 i
 106.55  126.238  131.692 i
 106.6  136.896  131.693 i
 106.65  110.633  131.693 i
 106.7  142.197  131.694 i
 106.75  124.113  131.694 i
 106.8  125.785  131.695 i
 106.85  127.77  131.695 i
 106.9  120.56  131.696 i
 106.95  119.9  131.696 i
 107  153.429  131.697 i
 107.05  135.891  131.697 i
 107.1  131.425  131.697 i
 107.15  122.357  131.698 i
 107.2  128.972  131.698 i
 107.25  137.131  131.698 i
 107.3  116.65  131.698 i
 107.35  118.925  131.699 i
 107.4  130.754  131.699 i
 107.45  136.551  131.699 i
 107.5  117.428  131.699 i
 107.55  130.234  131.7 i
 107.6  129.179  131.7 i
 107.65  135.923  131.7 i
 107.7  146.739  131.7 i
 107.75  129.68  131.7 i
 107.8  132.116  131.7 i
 107.85  123.279  131.7 i
 107.9  131.313  131.7 i
 107.95  128.212  131.7 i
 108  133.634  131.7 i
 108.05  140.851  131.7 i
 108.1  132.443  131.7 i
 108.15  146.11  131.7 i
 108.2  144.275  131.7 i
 108.25  134.216  131.7 i
 108.3  138.699  131.7 i
 108.35  140.333  131.7 i
 108.4  138.503  131.7 i
 108.45  119.59  131.7 i
 108.5  127.038  131.7 i
 108.55  112.202  131.7 i
 108.6  125.86  131.7 i
 108.65  104.967  131.7 i
 108.7  122.353  131.7 i
 108.75  143.338  131.7 i
 108.8  121.808  131.7 i
 108.85  125.076  131.7 i
 108.9  116.959  131.7 i
 108.95  123.05  131.7 i
 109  136.552  131.7 i
 109.05  112.753  131.7 i
 109.1  109.934  131.7 i
 109.15  146.433  131.7 i
 109.2  138.708  131.7 i
 109.25  119.272  131.7 i
 109.3  146.319  131.7 i
 109.35  129.288  131.7 i
 109.4  119.957  131.7 i
 109.45  128.156  131.7 i
 109.5  136.067  131.7 i
 109.55  117.467  131.7 i
 109.6  116.54  131.7 i
 109.65  127.138  131.7 i
 109.7  139.143  131.7 i
 109.75  132.096  131.7 i
 109.8  114.226  131.7 i
 109.85  130.337  131.7 i
 109.9  139.514  131.7 i
 109.95  122.424  131.7 i
 110  120.059  131.7 i
 110.05  111.964  131.7 i
 110.1  121.272  131.7 i
 110.15  146.923  131.7 i
 110.2  126.592  131.7 i
 110.25  130.811  131.7 i
 110.3  120.026  131.7 i
 110.35  124.391  131.7 i
 110.4  121.147  131.7 i
 110.45  143.221  131.7 i
 110.5  128.252  131.7 i
 110.55  116.446  131.7 i
 110.6  119.343  131.7 i
 110.65  127.766  131.7 i
 110.7  133.007  131.7 i
 110.75  113.512  131.7 i
 110.8  128.413  131.7 i
 110.85  123.469  131.7 i
 110.9  140.613  131.7 i
 110.95  130.564  131.7 i
 111  133.142  131.7 i
 111.05  126.439  131.7 i
 111.1  138.199  131.7 i
 111.15  105.9  131.7 i
 111.2  129.326  131.7 i
 111.25  148.223  131.7 i
 111.3  117.701  131.7 i
 111.35  131.54  131.7 i
 111.4  129.4  131.7 i
 111.45  130.026  131.7 i
 111.5  133.961  131.7 i
 111.55  120.965  131.7 i
 111.6  133.604  131.7 i
 111.65  137.427  131.7 i
 111.7  134.893  131.7 i
 111.75  116.478  131.7 i
 111.8  123.038  131.7 i
 111.85  135.689  131.7 i
 111.9  127.201  131.7 i
 111.95  136.541  131.7 i
 112  143.173  131.7 i
 112.05  136.901  131.7 i
 112.1  155.197  131.7 i
 112.15  138.502  131.7 i
 112.2  129.074  131.7 i
 112.25  130.289  131.7 i
 112.3  134.741  131.7 i
 112.35  130.118  131.7 i
 112.4  118.969  131.7 i
 112.45  134.074  131.7 i
 112.5  126.245  131.7 i
 112.55  109.262  131.7 i
 112.6  123.173  131.7 i
 112.65  124.525  131.7 i
 112.7  138.739  131.7 i
 112.75  140.3  131.7 i
 112.8  114.1  131.7 i
 112.85  111.779  131.7 i
 112.9  125.183  131.7 i
 112.95  144.079  131.7 i
 113  124.37  131.7 i
 113.05  139.267  131.7 i
 113.1  164.312  131.7 i
 113.15  133.581  131.7 i
 113.2  142.246  131.7 i
 113.25  118.799  131.7 i
 113.3  130.856  131.7 i
 113.35  130.045  131.7 i
 113.4  127.732  131.7 i
 113.45  125.786  131.7 i
 113.5  111.262  131.7 i
 113.55  98.0478  131.7 i
 113.6  130.646  131.7 i
 113.65  121.34  131.7 i
 113.7  137.82  131.7 i
 113.75  159.124  131.7 i
 113.8  126.451  131.7 i
 113.85  118.022  131.7 i
 113.9  125.523  131.7 i
 113.95  133.669  131.7 i
 114  136.035  131.7 i
 114.05  138.411  131.7 i
 114.1  122.462  131.7 i
 114.15  129.179  131.7 i
 114.2  142.077  131.7 i
 114.25  118.725  131.7 i
 114.3  127.748  131.7 i
 114.35  113.846  131.7 i
 114.4  114.447  131.7 i
 114.45  135.19  131.7 i
 114.5  140.42  131.7 i
 114.55  130.121  131.7 i
 114.6  131.081  131.7 i
 114.65  138.911  131.7 i
 114.7  153.357  131.7 i
 114.75  129.121  131.7 i
 114.8  125.006  131.7 i
 114.85  144.692  131.7 i
 114.9  121.591  131.7 i
 114.95  140.857  131.7 i
 115  163.607  131.7 i
 115.05  129.584  131.7 i
 115.1  151.203  131.7 i
 115.15  140.703  131.7 i
 115.2  132.538  131.7 i
 115.25  137.747  131.7 i
 115.3  153.465  131.7 i
 115.35  176.046  131.7 i
 115.4  172.049  131.7 i
 115.45  207.052  131.7 i
 115.5  227.346  131.7 i
 115.55  229.197  131.7 i
 115.6  277.906  131.7 i
 115.65  283.277  131.7 i
 115.7  313.826  131.7 i
 115.75  375.06  131.7 i
 115.8  347.897  131.7 i
 115.85  373.722  131.7 i
 115.9  363.023  131.7 i
 115.95  343.573  131.7 i
 116  284.347  131.7 i
 116.05  266.038  131.7 i
 116.1  244.812  131.7 i
 116.15  199.818  131.7 i
 116.2  192.243  131.7 i
 116.25  169.426  131.7 i
 116.3  182.531  131.7 i
 116.35  151.422  131.7 i
 116.4  151.122  131.7 i
 116.45  139.565  131.7 i
 116.5  124.636  131.7 i
 116.55  121.537  131.7 i
 116.6  114.885  131.7 i
 116.65  124.754  131.7 i
 116.7  126.719  131.7 i
 116.75  138.894  131.7 i
 116.8  101.581  131.7 i
 116.85  138.302  131.7 i
 116.9  119.428  131.7 i
 116.95  126.99  131.7 i
 117  126.07  131.7 i
 117.05  125.186  131.7 i
 117.1  124.17  131.7 i
 117.15  127.443  131.7 i
 117.2  157.063  131.7 i
 117.25  152.957  131.7 i
 117.3  134.77  131.7 i
 117.35  133.102  131.7 i
 117.4  152.197  131.7 i
 117.45  130.453  131.7 i
 117.5  134.713  131.7 i
 117.55  130.259  131.7 i
 117.6  133.699  131.7 i
 117.65  108.392  131.7 i
 117.7  119.167  131.7 i
 117.75  134.801  131.7 i
 117.8  112.612  131.7 i
 117.85  162.229  131.7 i
 117.9  150.445  131.7 i
 117.95  145.205  131.7 i
 118  133.92  131.7 i
 118.05  139.952  131.7 i
 118.1  123.086  131.7 i
 118.15  120.647  131.7 i
 118.2  125.946  131.7 i
 118.25  136.801  131.7 i
 118.3  114.58  131.7 i
 118.35  127.145  131.7 i
 118.4  142.279  131.7 i
 118.45  126.681  131.7 i
 118.5  131.697  131.7 i
 118.55  101.733  131.7 i
 118.6  119.533  131.7 i
 118.65  130.067  131.7 i
 118.7  113.185  131.7 i
 118.75  129.002  131.7 i
 118.8  125.447  131.7 i
 118.85  108.374  131.7 i
 118.9  108.452  131.7 i
 118.95  122.608  131.7 i
 119  130.061  131.7 i
 119.05  139.71  131.7 i
 119.1  141.251  131.7 i
 119.15  149.981  131.7 i
 119.2  138.62  131.7 i
 119.25  149.568  131.7 i
 119.3  115.921  131.7 i
 119.35  122.165  131.7 i
 119.4  135.823  131.7 i
 119.45  135.264  131.7 i
 119.5  119.068  131.7 i
 119.55  123.568  131.7 i
 119.6  121.466  131.7 i
 119.65  128.296  131.7 i
 119.7  109.438  131.7 i
 119.75  128.668  131.7 i
 119.8  130.696  131.7 i
 119.85  115.766  131.7 i
 119.9  118.462  131.7 i
 119.95  133.686  131.7 i
 120  118.883  131.7 i
 120.05  126.925  131.7 i
 120.1  131.915  131.7 i
 120.15  107.033  131.7 i
 120.2  137.932  131.7 i
 120.25  132.188  131.7 i
 120.3  135.528  131.7 i
 120.35  129.363  131.7 i
 120.4  114.945  131.7 i
 120.45  119.42  131.7 i
 120.5  126.301  131.7 i
 120.55  138.085  131.7 i
 120.6  132.156  131.7 i
 120.65  151.9  131.7 i
 120.7  127.75  131.7 i
 120.75  134.764  131.7 i
 120.8  130.997  131.7 i
 120.85  134.077  131.7 i
 120.9  137.446  131.7 i
 120.95  146.144  131.7 i
 121  122.579  131.7 i
 121.05  121.568  131.7 i
 121.1  135.947  131.7 i
 121.15  133.76  131.7 i
 121.2  141.93  131.7 i
 121.25  131.241  131.7 i
 121.3  129.431  131.7 i
 121.35  140.485  131.7 i
 121.4  148.357  131.7 i
 121.45  140.752  131.7 i
 121.5  129.574  131.7 i
 121.55  122.909  131.7 i
 121.6  116.85  131.7 i
 121.65  136.885  131.7 i
 121.7  126.659  131.7 i
 121.75  113.354  131.7 i
 121.8  139.107  131.7 i
 121.85  125.221  131.7 i
 121.9  136.892  131.7 i
 121.95  108.101  131.7 i
 122  133.159  131.7 i
 122.05  126.459  131.7 i
 122.1  119.764  131.7 i
 122.15  110.781  131.7 i
 122.2  120.728  131.7 i
 122.25  141.62  131.7 i
 122.3  147.16  131.7 i
 122.35  142.516  131.7 i
 122.4  135.142  131.7 i
 122.45  145.914  131.7 i
 122.5  142.102  131.7 i
 122.55  140.634  131.7 i
 122.6  113.197  131.7 i
 122.65  141.338  131.7 i
 122.7  136.972  131.7 i
 122.75  130.828  131.7 i
 122.8  106.639  131.7 i
 122.85  110.995  131.7 i
 122.9  140.065  131.7 i
 122.95  127.659  131.7 i
 123  149.802  131.7 i
 123.05  140.363  131.7 i
 123.1  132.796  131.7 i
 123.15  110.919  131.7 i
 123.2  115.326  131.7 i
 123.25  112.792  131.7 i
 123.3  124.711  131.7 i
 123.35  123.942  131.7 i
 123.4  116.219  131.7 i
 123.45  118.53  131.7 i
 123.5  129.693  131.7 i
 123.55  124.837  131.7 i
 123.6  132.495  131.7 i
 123.65  132.362  131.7 i
 123.7  146.909  131.7 i
 123.75  154.113  131.7 i
 123.8  120.463  131.7 i
 123.85  112.331  131.7 i
 123.9  155.389  131.7 i
 123.95  142.628  131.7 i
 124  130.174  131.7 i
 124.05  128.743  131.7 i
 124.1  123.23  131.7 i
 124.15  119.574  131.7 i
 124.2  118.302  131.7 i
 124.25  138.142  131.7 i
 124.3  133.998  131.7 i
 124.35  123.608  131.7 i
 124.4  136.012  131.7 i
 124.45  135.597  131.7 i
 124.5  147.95  131.7 i
 124.55  138.545  131.7 i
 124.6  118.118  131.7 i
 124.65  139.978  131.7 i
 124.7  124.021  131.7 i
 124.75  124.385  131.7 i
 124.8  110.499  131.7 i
 124.85  128.696  131.7 i
 124.9  128.21  131.7 i
 124.95  125.427  131.7 i
 125  131.438  131.7 i
 125.05  134.596  131.7 i
 125.1  115.293  131.7 i
 125.15  113.731  131.7 i
 125.2  126.067  131.7 i
 125.25  133.036  131.7 i
 125.3  125.98  131.7 i
 125.35  137.619  131.7 i
 125.4  125.351  131.7 i
 125.45  142.412  131.7 i
 125.5  120.853  131.7 i
 125.55  130.942  131.7 i
 125.6  130.592  131.7 i
 125.65  123.814  131.7 i
 125.7  127.331  131.7 i
 125.75  133.498  131.7 i
 125.8  119.511  131.7 i
 125.85  129.976  131.7 i
 125.9  115.172  131.7 i
 125.95  127.18  131.7 i
 126  110.948  131.7 i
 126.05  124.255  131.7 i
 126.1  134.159  131.7 i
 126.15  135.839  131.7 i
 126.2  134.851  131.7 i
 126.25  120.766  131.7 i
 126.3  118.536  131.7 i
 126.35  133.663  131.7 i
 126.4  129.999  131.7 i
 126.45  119.086  131.7 i
 126.5  125.733  131.7 i
 126.55  144.354  131.7 i
 126.6  104.365  131.7 i
 126.65  140.067  131.7 i
 126.7  118.195  131.7 i
 126.75  148.028  131.7 i
 126.8  151.367  131.7 i
 126.85  126.022  131.7 i
 126.9  108.933  131.7 i
 126.95  138.519  131.7 i
 127  131.522  131.7 i
 127.05  143.61  131.7 i
 127.1  132.999  131.7 i
 127.15  116.293  131.7 i
 127.2  91.1145  131.7 i
 127.25  126.909  131.7 i
 127.3  133.389  131.7 i
 127.35  113.589  131.7 i
 127.4  133.28  131.7 i
 127.45  118.736  131.7 i
 127.5  145.814  131.7 i
 127.55  92.2285  131.7 i
 127.6  135.641  131.7 i
 127.65  103.88  131.7 i
 127.7  108.292  131.7 i
 127.75  129.742  131.7 i
 127.8  132.596  131.7 i
 127.85  136.601  131.7 i
 127.9  126.958  131.7 i
 127.95  119.608  131.7 i
 128  129.873  131.7 i
 128.05  135.079  131.7 i
 128.1  115.628  131.7 i
 128.15  132.558  131.7 i
 128.2  120.951  131.7 i
 128.25  134.342  131.7 i
 128.3  133.209  131.7 i
 128.35  123.246  131.7 i
 128.4  122.891  131.7 i
 128.45  123.432  131.7 i
 128.5  132.147  131.7 i
 128.55  134.003  131.7 i
 128.6  133.802  131.7 i
 128.65  151.72  131.7 i
 128.7  125.986  131.7 i
 128.75  134.335  131.7 i
 128.8  112.1  131.7 i
 128.85  123.552  131.7 i
 128.9  135.899  131.7 i
 128.95  118.683  131.7 i
 129  114.36  131.7 i
 129.05  142.709  131.7 i
 129.1  131.376  131.7 i
 129.15  139.126  131.7 i
 129.2  119.368  131.7 i
 129.25  115.217  131.7 i
 129.3  116.988  131.7 i
 129.35  150.923  131.7 i
 129.4  145.375  131.7 i
 129.45  131.748  131.7 i
 129.5  139.337  131.7 i
 129.55  146.099  131.7 i
 129.6  139.643  131.7 i
 129.65  124.324  131.7 i
 129.7  118.338  131.7 i
 129.75  133.656  131.7 i
 129.8  122.053  131.7 i
 129.85  142.796  131.7 i
 129.9  150.553  131.7 i
 129.95  118.891  131.7 i
 130  97.5161  131.7 i

