40.00 154.6451
40.05 160.0458
40.10 155.9252
40.15 182.1599
40.20 167.1226
40.25 190.7073
40.30 166.1932
40.35 187.9888
40.40 182.7784
40.45 184.8386
40.50 196.4501
40.55 203.1809
40.60 161.0204
40.65 154.8085
40.70 165.7420
40.75 167.9739
40.80 180.2932
40.85 186.6018
40.90 163.2165
40.95 171.5881
41.00 170.3015
41.05 174.5933
41.10 175.1246
41.15 190.3414
41.20 193.6455
41.25 154.2098
41.30 196.4970
41.35 162.8535
41.40 184.6160
41.45 200.8889
41.50 205.5555
41.55 169.6975
41.60 166.2229
41.65 157.4102
41.70 145.0544
41.75 188.5953
41.80 202.1551
41.85 183.4739
41.90 163.2114
41.95 174.5741
42.00 176.3744
42.05 184.1537
42.10 185.9278
42.15 168.4277
42.20 161.3868
42.25 173.3770
42.30 170.4686
42.35 192.1511
42.40 193.4155
42.45 189.1521
42.50 177.8148
42.55 180.9920
42.60 166.6341
42.65 184.6865
42.70 184.3058
42.75 175.2005
42.80 197.5137
42.85 174.2465
42.90 150.9955
42.95 180.2808
43.00 190.4441
43.05 187.6153
43.10 196.7940
43.15 184.0551
43.20 211.1951
43.25 201.2385
43.30 216.0359
43.35 210.0252
43.40 200.5553
43.45 240.8186
43.50 201.2077
43.55 199.2091
43.60 226.2763
43.65 225.2131
43.70 231.5040
43.75 192.4145
43.80 236.6310
43.85 217.6077
43.90 233.7042
43.95 276.6523
44.00 324.7877
44.05 396.0808
44.10 380.0712
44.15 530.5987
44.20 646.7169
44.25 826.2302
44.30 1249.1580
44.35 1932.4413
44.40 2948.6008
44.45 4458.3326
44.50 5663.8754
44.55 5861.8152
44.60 4549.9025
44.65 2647.9309
44.70 1455.6373
44.75 871.2286
44.80 574.7593
44.85 459.4322
44.90 340.3824
44.95 322.2086
45.00 272.8423
45.05 213.5389
45.10 212.1517
45.15 172.8911
45.20 195.2075
45.25 191.8667
45.30 183.4953
45.35 193.5940
45.40 196.3275
45.45 176.4116
45.50 174.6575
45.55 182.3246
45.60 172.1947
45.65 178.4562
45.70 172.5790
45.75 166.0155
45.80 176.0792
45.85 159.2836
45.90 161.1312
45.95 179.7499
46.00 148.1199
46.05 177.7224
46.10 152.1818
46.15 163.5044
46.20 176.1043
46.25 164.2829
46.30 169.6302
46.35 144.0327
46.40 177.6615
46.45 165.7351
46.50 156.9392
46.55 136.7170
46.60 156.9805
46.65 176.6390
46.70 179.2609
46.75 167.6969
46.80 156.3784
46.85 153.6291
46.90 149.3744
46.95 160.9987
47.00 153.5798
47.05 159.6039
47.10 161.7797
47.15 154.5898
47.20 125.9148
47.25 168.8622
47.30 189.4127
47.35 185.8860
47.40 153.2946
47.45 166.2334
47.50 164.0287
47.55 136.2403
47.60 164.4973
47.65 158.5001
47.70 147.8114
47.75 172.4562
47.80 141.3207
47.85 139.4979
47.90 159.3678
47.95 165.7950
48.00 176.8600
48.05 156.0028
48.10 142.0041
48.15 158.8255
48.20 190.0278
48.25 142.7613
48.30 190.8304
48.35 164.6023
48.40 156.4634
48.45 150.8302
48.50 171.5828
48.55 158.1250
48.60 129.4612
48.65 130.6397
48.70 179.5250
48.75 175.3354
48.80 139.0903
48.85 159.5078
48.90 143.3800
48.95 141.0908
49.00 144.2252
49.05 158.6479
49.10 172.8997
49.15 147.7389
49.20 138.1443
49.25 156.4100
49.30 144.1085
49.35 150.4286
49.40 182.9632
49.45 163.8237
49.50 160.3417
49.55 130.7987
49.60 168.5228
49.65 154.2397
49.70 158.7128
49.75 175.6415
49.80 154.5448
49.85 168.2130
49.90 167.9388
49.95 156.2097
50.00 154.1791
50.05 151.7362
50.10 174.0651
50.15 143.3030
50.20 138.2394
50.25 167.6273
50.30 171.1665
50.35 150.4193
50.40 149.4719
50.45 172.5041
50.50 153.5950
50.55 144.2616
50.60 158.1518
50.65 164.4444
50.70 163.7516
50.75 148.3542
50.80 166.6340
50.85 155.8329
50.90 174.7271
50.95 164.4338
51.00 141.1727
51.05 148.3747
51.10 131.3724
51.15 156.1882
51.20 150.3391
51.25 154.8159
51.30 145.4672
51.35 129.6985
51.40 141.7910
51.45 154.6102
51.50 158.1703
51.55 145.6780
51.60 147.7226
51.65 154.7349
51.70 146.8034
51.75 142.2047
51.80 147.6451
51.85 148.0855
51.90 141.2921
51.95 158.3015
52.00 166.4830
52.05 147.7831
52.10 140.9423
52.15 162.4876
52.20 148.4694
52.25 172.8463
52.30 152.5300
52.35 150.2062
52.40 154.0001
52.45 153.2154
52.50 152.4069
52.55 128.1354
52.60 130.9718
52.65 157.1620
52.70 140.8943
52.75 139.3541
52.80 154.6768
52.85 152.8740
52.90 149.5326
52.95 173.2442
53.00 167.4826
53.05 163.0248
53.10 166.0236
53.15 127.6133
53.20 160.2686
53.25 143.9063
53.30 141.7123
53.35 159.1021
53.40 144.1366
53.45 150.5966
53.50 160.2664
53.55 148.0219
53.60 142.6579
53.65 140.6911
53.70 171.3378
53.75 168.7708
53.80 156.9492
53.85 159.5058
53.90 147.5204
53.95 152.4036
54.00 140.3868
54.05 149.6540
54.10 153.8619
54.15 136.3513
54.20 155.7654
54.25 150.4586
54.30 143.1500
54.35 158.6367
54.40 167.8528
54.45 135.9899
54.50 147.6054
54.55 146.8245
54.60 133.9137
54.65 137.2546
54.70 145.9433
54.75 130.7560
54.80 157.7683
54.85 139.5012
54.90 150.4797
54.95 140.5819
55.00 142.5251
55.05 162.1237
55.10 145.5031
55.15 134.1627
55.20 141.3783
55.25 130.8499
55.30 154.9706
55.35 145.4655
55.40 162.0667
55.45 139.0223
55.50 151.9761
55.55 155.0034
55.60 163.6901
55.65 146.7557
55.70 136.4038
55.75 150.1157
55.80 146.2481
55.85 132.5941
55.90 157.9200
55.95 143.9643
56.00 146.4501
56.05 137.7900
56.10 145.3633
56.15 163.5150
56.20 165.1537
56.25 159.7766
56.30 124.9249
56.35 143.5732
56.40 149.6852
56.45 141.6435
56.50 142.5741
56.55 135.4765
56.60 157.6225
56.65 129.1837
56.70 171.2579
56.75 155.4959
56.80 137.0254
56.85 133.5573
56.90 137.7021
56.95 155.1095
57.00 146.2123
57.05 141.3800
57.10 152.7600
57.15 151.4611
57.20 149.8864
57.25 167.1648
57.30 145.1242
57.35 154.6149
57.40 172.0794
57.45 152.9764
57.50 132.3195
57.55 144.0053
57.60 156.0416
57.65 137.2339
57.70 144.9240
57.75 147.1581
57.80 147.6997
57.85 152.2019
57.90 125.9607
57.95 143.2355
58.00 170.5062
58.05 159.7925
58.10 152.5786
58.15 148.5945
58.20 140.1406
58.25 136.2107
58.30 145.9604
58.35 138.2243
58.40 162.3595
58.45 135.8773
58.50 151.3552
58.55 138.5373
58.60 122.7757
58.65 132.8644
58.70 153.1363
58.75 144.0078
58.80 136.8668
58.85 148.0779
58.90 122.4260
58.95 157.4768
59.00 141.6324
59.05 128.9926
59.10 158.0855
59.15 149.3620
59.20 132.9474
59.25 124.0106
59.30 146.1554
59.35 151.2011
59.40 141.9658
59.45 142.1173
59.50 165.2556
59.55 132.0515
59.60 133.1933
59.65 149.7712
59.70 146.7480
59.75 157.7445
59.80 151.3120
59.85 153.1632
59.90 133.7997
59.95 155.1003
60.00 153.2974
60.05 154.7247
60.10 145.7405
60.15 140.1774
60.20 138.1610
60.25 127.1218
60.30 142.8691
60.35 158.9782
60.40 130.7721
60.45 146.0130
60.50 118.2074
60.55 143.8716
60.60 132.6408
60.65 145.0755
60.70 140.1825
60.75 127.1363
60.80 113.8288
60.85 157.7750
60.90 130.9313
60.95 137.9981
61.00 156.8276
61.05 133.7386
61.10 135.5846
61.15 120.8934
61.20 139.8413
61.25 158.0480
61.30 162.6135
61.35 157.1225
61.40 150.3050
61.45 150.4856
61.50 112.9597
61.55 158.0757
61.60 130.1545
61.65 138.9879
61.70 150.3954
61.75 160.5179
61.80 147.6738
61.85 150.7372
61.90 146.4829
61.95 137.0105
62.00 129.4085
62.05 124.8429
62.10 141.2384
62.15 134.7793
62.20 148.2322
62.25 147.5498
62.30 151.2536
62.35 120.7335
62.40 119.7399
62.45 122.4988
62.50 142.3471
62.55 136.0593
62.60 147.1792
62.65 139.1995
62.70 134.0852
62.75 130.3944
62.80 135.9379
62.85 150.3588
62.90 134.1903
62.95 146.4800
63.00 145.5931
63.05 134.0493
63.10 142.5007
63.15 144.7488
63.20 132.9058
63.25 140.3947
63.30 141.2205
63.35 141.6216
63.40 132.7449
63.45 147.9159
63.50 151.8292
63.55 147.0641
63.60 125.3986
63.65 161.2332
63.70 153.5551
63.75 137.5966
63.80 123.4986
63.85 139.7210
63.90 160.8427
63.95 151.8802
64.00 138.8101
64.05 176.4762
64.10 171.9740
64.15 182.7501
64.20 166.9589
64.25 203.4955
64.30 209.4055
64.35 199.2548
64.40 218.5797
64.45 230.2152
64.50 261.5358
64.55 309.8001
64.60 320.6477
64.65 330.5106
64.70 341.4209
64.75 367.2449
64.80 278.5233
64.85 268.4865
64.90 232.2311
64.95 212.5121
65.00 218.8086
65.05 200.3014
65.10 163.7649
65.15 159.7207
65.20 159.3178
65.25 164.8891
65.30 163.9881
65.35 168.2026
65.40 142.5137
65.45 139.2781
65.50 130.1959
65.55 142.0498
65.60 131.9576
65.65 152.5353
65.70 151.2697
65.75 153.1815
65.80 141.2614
65.85 154.0075
65.90 121.7883
65.95 139.1915
66.00 137.5414
66.05 135.6008
66.10 135.4434
66.15 150.4711
66.20 124.4295
66.25 132.9051
66.30 148.1974
66.35 124.9435
66.40 146.0056
66.45 132.9583
66.50 158.0064
66.55 144.4646
66.60 133.4692
66.65 126.1890
66.70 127.4958
66.75 140.7246
66.80 151.4934
66.85 124.9670
66.90 137.2041
66.95 129.9053
67.00 148.4196
67.05 164.3784
67.10 138.8858
67.15 148.5046
67.20 134.6026
67.25 136.1765
67.30 139.1782
67.35 152.3152
67.40 139.7182
67.45 140.2069
67.50 156.1447
67.55 133.4896
67.60 143.3870
67.65 146.6982
67.70 127.2074
67.75 135.6180
67.80 135.1808
67.85 129.5291
67.90 97.7016
67.95 142.7397
68.00 142.4168
68.05 144.5254
68.10 125.2329
68.15 134.3212
68.20 137.1310
68.25 138.8640
68.30 140.0088
68.35 149.2479
68.40 152.4327
68.45 134.7823
68.50 125.7633
68.55 145.0719
68.60 135.7001
68.65 153.4860
68.70 142.4276
68.75 137.4160
68.80 143.0818
68.85 148.7694
68.90 134.8894
68.95 154.4215
69.00 155.3420
69.05 135.7555
69.10 119.9927
69.15 151.4110
69.20 137.3529
69.25 125.9281
69.30 160.6568
69.35 162.6794
69.40 131.7757
69.45 144.2461
69.50 128.0735
69.55 136.6450
69.60 152.4848
69.65 135.1934
69.70 119.4009
69.75 123.2669
69.80 132.0832
69.85 160.7353
69.90 141.4533
69.95 128.5220
70.00 130.7722
70.05 148.9507
70.10 140.1815
70.15 152.2055
70.20 144.2759
70.25 137.3329
70.30 152.8970
70.35 145.0977
70.40 120.9403
70.45 113.3027
70.50 141.8131
70.55 143.8173
70.60 136.5962
70.65 137.8364
70.70 151.6156
70.75 142.0196
70.80 150.1976
70.85 152.4412
70.90 164.5659
70.95 138.2021
71.00 128.6476
71.05 139.1835
71.10 122.1326
71.15 141.2339
71.20 143.6187
71.25 145.0844
71.30 136.6471
71.35 150.3266
71.40 140.6396
71.45 139.6952
71.50 154.6608
71.55 148.8814
71.60 131.2872
71.65 130.7259
71.70 152.1237
71.75 138.6496
71.80 162.1987
71.85 157.1381
71.90 148.3916
71.95 127.6959
72.00 125.3385
72.05 140.8930
72.10 132.2571
72.15 131.6736
72.20 127.7742
72.25 150.5370
72.30 139.3342
72.35 127.5543
72.40 134.9093
72.45 146.1010
72.50 126.1089
72.55 137.7399
72.60 122.0079
72.65 125.3610
72.70 146.9741
72.75 136.2308
72.80 133.0448
72.85 126.6650
72.90 124.4099
72.95 123.1739
73.00 125.0417
73.05 141.2428
73.10 145.3199
73.15 138.2222
73.20 145.9461
73.25 142.3951
73.30 139.3759
73.35 140.7552
73.40 118.3103
73.45 115.3043
73.50 148.6940
73.55 143.5234
73.60 121.3420
73.65 132.2834
73.70 143.6870
73.75 129.1185
73.80 153.7487
73.85 154.7074
73.90 122.8817
73.95 147.9982
74.00 151.7702
74.05 145.2760
74.10 128.0694
74.15 148.2827
74.20 133.8195
74.25 144.5479
74.30 157.0203
74.35 137.3261
74.40 146.5239
74.45 145.1185
74.50 144.0707
74.55 156.3164
74.60 160.8393
74.65 150.3972
74.70 130.7228
74.75 114.3935
74.80 169.6799
74.85 128.5719
74.90 124.2183
74.95 150.2564
75.00 135.0180
75.05 136.5335
75.10 137.3775
75.15 143.4907
75.20 149.0664
75.25 143.6915
75.30 146.3442
75.35 131.7275
75.40 124.6477
75.45 147.5040
75.50 131.9480
75.55 145.7970
75.60 139.8819
75.65 141.9901
75.70 122.5173
75.75 156.1672
75.80 151.3755
75.85 147.2130
75.90 140.7072
75.95 134.5317
76.00 126.4695
76.05 125.9972
76.10 156.6536
76.15 143.4896
76.20 114.3690
76.25 142.4864
76.30 136.3883
76.35 117.3465
76.40 135.5392
76.45 134.4429
76.50 126.5217
76.55 120.1068
76.60 120.5766
76.65 145.6682
76.70 123.4316
76.75 132.0250
76.80 134.4586
76.85 136.5582
76.90 126.6280
76.95 148.2297
77.00 129.3448
77.05 148.8755
77.10 144.0569
77.15 140.0595
77.20 146.2951
77.25 130.7478
77.30 142.2526
77.35 131.1366
77.40 120.0418
77.45 152.4959
77.50 136.6430
77.55 148.4037
77.60 121.9429
77.65 148.0473
77.70 115.6233
77.75 140.5342
77.80 129.3342
77.85 131.7128
77.90 146.7884
77.95 144.3714
78.00 135.6703
78.05 143.8570
78.10 140.3168
78.15 154.2194
78.20 128.7443
78.25 128.3831
78.30 145.2069
78.35 122.9210
78.40 130.3516
78.45 129.8261
78.50 137.4294
78.55 133.5477
78.60 133.6435
78.65 154.2091
78.70 138.3997
78.75 127.4306
78.80 139.4705
78.85 141.7047
78.90 110.5504
78.95 142.6030
79.00 146.1455
79.05 162.7425
79.10 149.2929
79.15 123.7233
79.20 117.9139
79.25 119.1067
79.30 133.2259
79.35 135.2317
79.40 145.4569
79.45 150.7084
79.50 137.4307
79.55 136.4387
79.60 148.5858
79.65 130.2972
79.70 140.4381
79.75 130.3771
79.80 157.9903
79.85 151.9145
79.90 143.5580
79.95 138.4102
80.00 147.2255
80.05 143.5582
80.10 140.6648
80.15 138.2114
80.20 138.0178
80.25 132.3492
80.30 140.6289
80.35 124.5445
80.40 127.0600
80.45 148.3290
80.50 138.3241
80.55 165.6612
80.60 150.9717
80.65 157.2581
80.70 139.5448
80.75 148.3839
80.80 151.8009
80.85 170.1364
80.90 134.6850
80.95 133.0017
81.00 147.0302
81.05 132.9988
81.10 141.7415
81.15 158.2570
81.20 174.3931
81.25 171.5514
81.30 166.5129
81.35 178.0626
81.40 179.3004
81.45 204.5322
81.50 206.2150
81.55 210.6593
81.60 269.8554
81.65 306.1568
81.70 351.0921
81.75 389.4416
81.80 460.0765
81.85 504.6945
81.90 598.3281
81.95 664.1218
82.00 711.2662
82.05 665.2491
82.10 605.1312
82.15 446.4276
82.20 387.7624
82.25 325.0022
82.30 315.3748
82.35 214.8394
82.40 227.8522
82.45 195.3269
82.50 198.9297
82.55 182.4390
82.60 169.5578
82.65 168.7052
82.70 143.7054
82.75 143.6256
82.80 151.7411
82.85 132.8237
82.90 159.8093
82.95 153.6053
83.00 149.7094
83.05 126.6560
83.10 143.4262
83.15 116.8304
83.20 151.7667
83.25 133.3976
83.30 163.3226
83.35 140.6375
83.40 134.3131
83.45 130.4704
83.50 144.1206
83.55 137.3607
83.60 145.3856
83.65 126.4723
83.70 161.3923
83.75 122.3580
83.80 128.5884
83.85 153.4084
83.90 127.0773
83.95 155.8443
84.00 141.2967
84.05 145.0825
84.10 116.3101
84.15 130.3775
84.20 127.9188
84.25 122.9290
84.30 116.7226
84.35 140.7449
84.40 140.5055
84.45 135.4730
84.50 105.0479
84.55 134.8435
84.60 147.0533
84.65 132.0566
84.70 147.9761
84.75 129.4581
84.80 128.0955
84.85 145.8691
84.90 137.7871
84.95 129.1254
85.00 152.2137
85.05 144.2788
85.10 163.7221
85.15 145.0764
85.20 129.6009
85.25 117.0883
85.30 116.1929
85.35 142.9022
85.40 142.6815
85.45 132.9139
85.50 124.7666
85.55 157.5264
85.60 138.9335
85.65 142.5946
85.70 139.8236
85.75 117.9476
85.80 135.7934
85.85 148.4989
85.90 119.6128
85.95 114.1025
86.00 130.3329
86.05 127.0064
86.10 129.4465
86.15 117.5235
86.20 154.7265
86.25 146.4198
86.30 135.9042
86.35 148.1597
86.40 157.4965
86.45 130.6945
86.50 120.8306
86.55 130.3080
86.60 150.6193
86.65 131.5560
86.70 140.3439
86.75 139.5089
86.80 163.0038
86.85 119.9931
86.90 132.5541
86.95 124.9793
87.00 132.8068
87.05 164.8759
87.10 127.6500
87.15 139.5999
87.20 118.0267
87.25 123.9020
87.30 134.1090
87.35 153.6154
87.40 139.2733
87.45 123.7765
87.50 142.1382
87.55 143.1628
87.60 105.5580
87.65 124.7263
87.70 145.8181
87.75 152.2824
87.80 137.0170
87.85 143.8506
87.90 140.3437
87.95 125.7261
88.00 144.8644
88.05 127.4146
88.10 126.2720
88.15 145.1945
88.20 130.6152
88.25 120.4831
88.30 124.5562
88.35 139.3186
88.40 125.2296
88.45 133.3289
88.50 133.2627
88.55 111.4656
88.60 113.0166
88.65 110.2334
88.70 137.5905
88.75 123.4465
88.80 150.3223
88.85 140.5987
88.90 147.2981
88.95 139.9784
89.00 124.0490
89.05 152.2305
89.10 128.1470
89.15 119.0548
89.20 131.7600
89.25 126.5486
89.30 144.6440
89.35 126.7647
89.40 146.4890
89.45 145.5354
89.50 152.6456
89.55 130.6824
89.60 148.9108
89.65 135.4648
89.70 148.0656
89.75 161.0510
89.80 161.3121
89.85 135.4336
89.90 145.1485
89.95 146.8135
90.00 140.1555
90.05 124.6106
90.10 122.5663
90.15 137.8625
90.20 138.9453
90.25 113.4123
90.30 131.4182
90.35 155.8339
90.40 136.1639
90.45 134.7091
90.50 137.8441
90.55 152.4757
90.60 142.7048
90.65 165.1223
90.70 141.1826
90.75 126.0753
90.80 140.3663
90.85 153.8539
90.90 133.7283
90.95 135.5936
91.00 135.5060
91.05 144.6521
91.10 137.9910
91.15 126.7144
91.20 135.8180
91.25 132.4813
91.30 131.7867
91.35 121.4471
91.40 118.4455
91.45 147.9532
91.50 154.9848
91.55 135.9917
91.60 140.5966
91.65 126.8389
91.70 123.5752
91.75 141.2521
91.80 135.0879
91.85 133.6437
91.90 140.8667
91.95 134.8938
92.00 129.1823
92.05 129.0621
92.10 130.4098
92.15 143.5868
92.20 135.0084
92.25 137.0561
92.30 133.3360
92.35 125.8434
92.40 144.0748
92.45 140.8843
92.50 129.5269
92.55 148.7180
92.60 132.5933
92.65 129.7062
92.70 138.8880
92.75 141.4255
92.80 131.1817
92.85 136.0414
92.90 154.1440
92.95 121.2223
93.00 126.7113
93.05 131.5082
93.10 138.3531
93.15 148.8485
93.20 129.7689
93.25 118.2723
93.30 130.3257
93.35 115.4545
93.40 140.8711
93.45 141.3213
93.50 141.7937
93.55 150.3398
93.60 131.1781
93.65 125.6937
93.70 112.9803
93.75 147.6249
93.80 133.9987
93.85 136.0642
93.90 131.5830
93.95 125.0351
94.00 135.3074
94.05 135.2984
94.10 135.9368
94.15 133.8150
94.20 125.6441
94.25 127.5162
94.30 140.3374
94.35 147.9517
94.40 128.4278
94.45 134.5529
94.50 125.7381
94.55 134.3167
94.60 143.9952
94.65 124.5123
94.70 140.6956
94.75 142.0535
94.80 132.5550
94.85 151.8696
94.90 124.8997
94.95 113.6450
95.00 136.7377
95.05 128.2176
95.10 133.7094
95.15 127.7294
95.20 129.5409
95.25 114.3114
95.30 122.2171
95.35 128.8376
95.40 137.1862
95.45 152.8948
95.50 125.7572
95.55 135.6896
95.60 128.6071
95.65 123.7056
95.70 137.6444
95.75 128.2207
95.80 168.6348
95.85 148.0312
95.90 136.0502
95.95 138.8643
96.00 130.8427
96.05 132.3736
96.10 147.3401
96.15 123.4409
96.20 133.3353
96.25 139.7808
96.30 120.6771
96.35 163.2133
96.40 149.2786
96.45 150.3803
96.50 146.0564
96.55 123.7905
96.60 127.6140
96.65 124.4193
96.70 115.8785
96.75 131.8459
96.80 137.8733
96.85 116.7567
96.90 118.5631
96.95 131.6165
97.00 148.7512
97.05 118.9886
97.10 124.7814
97.15 141.5246
97.20 125.6393
97.25 172.5737
97.30 149.3850
97.35 144.1961
97.40 156.2615
97.45 144.4991
97.50 138.6760
97.55 145.8520
97.60 144.3390
97.65 146.7810
97.70 144.3042
97.75 139.3263
97.80 167.1568
97.85 162.1602
97.90 174.8638
97.95 182.8106
98.00 194.1834
98.05 186.2504
98.10 219.8441
98.15 203.8778
98.20 241.1425
98.25 260.0289
98.30 246.8116
98.35 284.4476
98.40 336.0642
98.45 337.3543
98.50 365.1410
98.55 370.9633
98.60 374.6498
98.65 299.1044
98.70 317.3305
98.75 263.4619
98.80 224.1473
98.85 198.1042
98.90 188.7761
98.95 190.9216
99.00 187.0313
99.05 156.5753
99.10 170.2154
99.15 133.3453
99.20 140.4603
99.25 147.6340
99.30 138.6407
99.35 143.3206
99.40 138.4345
99.45 152.4583
99.50 131.8585
99.55 144.7023
99.60 143.3414
99.65 134.8482
99.70 132.0532
99.75 127.3002
99.80 160.9294
99.85 123.1440
99.90 137.0494
99.95 138.0873
100.00 142.9874
100.05 150.6763
100.10 130.8635
100.15 111.5830
100.20 141.5732
100.25 135.9339
100.30 138.7967
100.35 132.6414
100.40 131.7831
100.45 118.3047
100.50 136.6081
100.55 117.7151
100.60 143.0514
100.65 131.5706
100.70 141.0584
100.75 134.4572
100.80 135.2075
100.85 120.7009
100.90 133.1982
100.95 111.8781
101.00 127.6142
101.05 127.9798
101.10 135.0217
101.15 132.8343
101.20 125.4682
101.25 128.8937
101.30 118.1643
101.35 130.1869
101.40 125.4741
101.45 121.3629
101.50 135.3602
101.55 138.9854
101.60 135.6931
101.65 126.5426
101.70 124.0121
101.75 122.8091
101.80 133.1513
101.85 113.5169
101.90 132.2128
101.95 138.0763
102.00 139.7630
102.05 114.9331
102.10 116.5879
102.15 132.9622
102.20 126.9640
102.25 126.4671
102.30 133.1414
102.35 121.0555
102.40 128.7449
102.45 149.0572
102.50 130.7513
102.55 133.7194
102.60 139.6129
102.65 125.1000
102.70 131.7950
102.75 128.3259
102.80 130.2675
102.85 156.9498
102.90 114.1638
102.95 127.2176
103.00 118.4270
103.05 129.7351
103.10 150.1777
103.15 128.8876
103.20 101.7682
103.25 137.2728
103.30 133.9164
103.35 119.9467
103.40 146.2469
103.45 119.5993
103.50 147.6352
103.55 147.5738
103.60 133.2111
103.65 123.9021
103.70 155.6527
103.75 137.6902
103.80 133.4667
103.85 124.4591
103.90 122.2098
103.95 107.2394
104.00 125.2661
104.05 147.1603
104.10 147.6717
104.15 134.7731
104.20 165.3503
104.25 147.5891
104.30 123.2861
104.35 121.7082
104.40 135.8560
104.45 122.9124
104.50 121.7732
104.55 136.0192
104.60 133.9956
104.65 131.7380
104.70 141.3056
104.75 126.3237
104.80 152.7014
104.85 122.8170
104.90 124.5781
104.95 101.6429
105.00 123.0976
105.05 132.0556
105.10 131.7248
105.15 136.2022
105.20 135.6463
105.25 115.5598
105.30 143.3520
105.35 141.1281
105.40 145.9242
105.45 133.8078
105.50 123.9496
105.55 129.6277
105.60 152.6572
105.65 120.0701
105.70 129.5747
105.75 133.0525
105.80 125.0574
105.85 140.7009
105.90 122.1370
105.95 133.0273
106.00 128.2472
106.05 144.3304
106.10 141.6392
106.15 127.5963
106.20 158.3274
106.25 121.9872
106.30 125.8072
106.35 138.7268
106.40 142.8842
106.45 130.7417
106.50 145.7715
106.55 152.3918
106.60 146.7894
106.65 115.3884
106.70 144.1873
106.75 122.0659
106.80 149.7082
106.85 141.8211
106.90 154.8819
106.95 123.0463
107.00 127.5527
107.05 149.2189
107.10 144.0873
107.15 146.0796
107.20 133.0050
107.25 143.3051
107.30 145.9923
107.35 127.0793
107.40 128.0636
107.45 120.3714
107.50 131.5682
107.55 133.0898
107.60 131.5282
107.65 121.2886
107.70 156.7676
107.75 157.8904
107.80 140.1513
107.85 126.1045
107.90 136.4752
107.95 149.2140
108.00 129.0462
108.05 130.2435
108.10 125.1603
108.15 125.4722
108.20 130.7049
108.25 140.8513
108.30 141.1850
108.35 135.3323
108.40 125.1593
108.45 119.3909
108.50 110.7367
108.55 132.3144
108.60 120.1630
108.65 128.4293
108.70 138.1245
108.75 144.8018
108.80 139.2502
108.85 134.8378
108.90 149.1997
108.95 126.9101
109.00 139.3022
109.05 133.2518
109.10 154.2342
109.15 123.0598
109.20 128.3906
109.25 126.5187
109.30 128.4220
109.35 137.8168
109.40 120.4432
109.45 128.0932
109.50 129.7267
109.55 145.6186
109.60 115.6864
109.65 119.0505
109.70 145.2586
109.75 137.8694
109.80 137.0437
109.85 139.3989
109.90 125.1942
109.95 109.0765
110.00 126.9426
110.05 141.0423
110.10 126.4965
110.15 128.7495
110.20 109.6557
110.25 130.1336
110.30 126.0521
110.35 121.5032
110.40 142.0623
110.45 110.3901
110.50 115.8414
110.55 141.8197
110.60 148.6018
110.65 144.4658
110.70 121.7929
110.75 143.5157
110.80 143.5722
110.85 132.8971
110.90 136.4313
110.95 124.5148
111.00 128.4866
111.05 134.6214
111.10 126.2588
111.15 122.6437
111.20 132.6689
111.25 138.6091
111.30 146.9645
111.35 131.5357
111.40 124.1932
111.45 126.1721
111.50 132.3137
111.55 147.7001
111.60 133.5253
111.65 146.3039
111.70 150.6403
111.75 152.9981
111.80 130.1062
111.85 153.1557
111.90 120.8017
111.95 146.0799
112.00 131.5816
112.05 126.5658
112.10 132.2767
112.15 139.8636
112.20 136.1819
112.25 128.6570
112.30 107.9090
112.35 142.4821
112.40 141.2624
112.45 124.2974
112.50 144.6231
112.55 134.8652
112.60 135.1842
112.65 125.4330
112.70 122.6923
112.75 142.3698
112.80 124.4665
112.85 129.1575
112.90 151.0035
112.95 131.2799
113.00 137.2412
113.05 123.2897
113.10 122.1296
113.15 146.0652
113.20 141.3357
113.25 130.9175
113.30 140.4500
113.35 142.3433
113.40 124.2490
113.45 116.7017
113.50 138.8247
113.55 132.9529
113.60 135.4557
113.65 142.6206
113.70 158.5126
113.75 112.0358
113.80 130.4441
113.85 136.6122
113.90 135.7354
113.95 136.7683
114.00 147.7751
114.05 139.2889
114.10 154.9107
114.15 140.6101
114.20 141.4837
114.25 150.0220
114.30 142.7886
114.35 137.1653
114.40 152.4032
114.45 151.1539
114.50 153.2881
114.55 139.6115
114.60 163.0782
114.65 178.0258
114.70 148.6008
114.75 172.4320
114.80 158.8002
114.85 175.1116
114.90 172.0686
114.95 159.1107
115.00 160.8828
115.05 188.1017
115.10 195.1333
115.15 203.1488
115.20 215.5443
115.25 216.4014
115.30 206.6615
115.35 188.0517
115.40 209.2919
115.45 235.5022
115.50 235.7091
115.55 212.8104
115.60 250.6784
115.65 259.0572
115.70 256.1037
115.75 280.4386
115.80 267.7306
115.85 270.3985
115.90 210.8144
115.95 200.2958
116.00 199.8515
116.05 177.6802
116.10 172.6031
116.15 166.9980
116.20 156.7071
116.25 172.3941
116.30 158.0138
116.35 179.6355
116.40 160.1339
116.45 149.8130
116.50 151.7053
116.55 136.5799
116.60 171.9732
116.65 143.8294
116.70 135.1778
116.75 174.5944
116.80 152.4868
116.85 142.0100
116.90 152.1624
116.95 133.5963
117.00 133.8061
117.05 146.8784
117.10 154.7259
117.15 162.6707
117.20 118.6487
117.25 130.6064
117.30 131.7549
117.35 152.1705
117.40 118.5711
117.45 143.9866
117.50 145.3334
117.55 133.0984
117.60 105.5571
117.65 134.6971
117.70 140.3927
117.75 148.5422
117.80 132.9423
117.85 132.2123
117.90 136.0276
117.95 136.2159
118.00 142.9614
118.05 117.5304
118.10 151.6759
118.15 150.0100
118.20 125.3001
118.25 134.0886
118.30 142.7905
118.35 150.7534
118.40 125.8491
118.45 131.3007
118.50 165.7756
118.55 141.3737
118.60 123.1808
118.65 108.6419
118.70 112.5383
118.75 137.7334
118.80 135.3444
118.85 158.2413
118.90 129.4554
118.95 124.3553
119.00 144.1744
119.05 141.1025
119.10 132.9711
119.15 133.6804
119.20 150.9652
119.25 126.0059
119.30 126.6544
119.35 130.0720
119.40 135.6662
119.45 115.2500
119.50 128.1268
119.55 136.9547
119.60 126.0609
119.65 127.4076
119.70 133.1968
119.75 153.1645
119.80 147.5199
119.85 157.5599
119.90 151.7517
119.95 120.7431
120.00 116.9850
120.05 118.1170
120.10 146.0072
120.15 133.0161
120.20 125.3448
120.25 128.8998
120.30 129.7510
120.35 125.0159
120.40 138.9364
120.45 141.7763
120.50 106.8609
120.55 118.3800
120.60 128.7951
120.65 131.1470
120.70 124.7792
120.75 143.2552
120.80 130.1905
120.85 120.6520
120.90 144.5359
120.95 147.6119
121.00 153.1940
121.05 126.0817
121.10 128.0140
121.15 131.7684
121.20 165.7616
121.25 122.4711
121.30 145.1561
121.35 127.4949
121.40 107.2375
121.45 133.4589
121.50 132.1658
121.55 128.1069
121.60 137.1962
121.65 125.7200
121.70 116.3984
121.75 126.5622
121.80 137.1629
121.85 139.2578
121.90 136.4694
121.95 129.7847
122.00 124.3756
122.05 136.5839
122.10 102.6807
122.15 130.6876
122.20 137.3701
122.25 143.5415
122.30 128.1903
122.35 108.5667
122.40 149.1279
122.45 132.8512
122.50 127.0948
122.55 134.2470
122.60 120.1670
122.65 144.7362
122.70 148.4658
122.75 106.9087
122.80 134.0483
122.85 116.8950
122.90 116.5749
122.95 137.5417
123.00 118.2262
123.05 123.6760
123.10 124.5864
123.15 141.7949
123.20 142.8625
123.25 131.4439
123.30 127.1638
123.35 135.2727
123.40 140.8069
123.45 128.6504
123.50 132.5459
123.55 115.9925
123.60 111.6726
123.65 157.4748
123.70 131.9655
123.75 108.0615
123.80 130.2988
123.85 132.5670
123.90 146.9281
123.95 138.7846
124.00 145.7052
124.05 111.7970
124.10 118.3649
124.15 143.6303
124.20 131.2284
124.25 131.3191
124.30 137.6298
124.35 125.4705
124.40 109.9032
124.45 131.9485
124.50 123.9141
124.55 123.8445
124.60 115.5609
124.65 123.2158
124.70 111.9040
124.75 153.7667
124.80 127.3365
124.85 139.5537
124.90 144.0276
124.95 121.6286
125.00 125.2453
125.05 128.8873
125.10 125.0348
125.15 135.0732
125.20 134.1910
125.25 135.1187
125.30 119.6042
125.35 119.9970
125.40 144.0873
125.45 129.8966
125.50 138.7495
125.55 154.6972
125.60 135.4875
125.65 107.5110
125.70 137.0843
125.75 128.2476
125.80 122.4380
125.85 126.5182
125.90 161.9998
125.95 140.8762
126.00 127.5088
126.05 140.9202
126.10 117.7738
126.15 141.6932
126.20 130.3903
126.25 140.5533
126.30 95.1566
126.35 130.0770
126.40 122.7067
126.45 125.7086
126.50 142.7659
126.55 119.5552
126.60 129.7805
126.65 137.9218
126.70 140.0833
126.75 139.4962
126.80 120.4593
126.85 128.7336
126.90 121.4236
126.95 153.6975
127.00 125.9155
127.05 108.1895
127.10 121.2058
127.15 141.1675
127.20 118.6664
127.25 144.4462
127.30 146.1255
127.35 155.6838
127.40 121.7232
127.45 106.9710
127.50 136.6288
127.55 123.5826
127.60 131.8514
127.65 126.8207
127.70 126.0364
127.75 141.1896
127.80 143.8294
127.85 141.2513
127.90 114.5686
127.95 135.7550
128.00 140.0644
128.05 139.4773
128.10 122.8045
128.15 120.9340
128.20 129.8620
128.25 138.8495
128.30 133.9008
128.35 146.6130
128.40 136.9420
128.45 119.4933
128.50 158.8648
128.55 113.5889
128.60 127.5249
128.65 143.0849
128.70 136.2909
128.75 149.9621
128.80 126.0692
128.85 126.1401
128.90 130.5452
128.95 137.6257
129.00 151.2792
129.05 120.4913
129.10 123.4338
129.15 131.6382
129.20 139.8373
129.25 118.4756
129.30 147.9755
129.35 122.2990
129.40 142.3539
129.45 135.7727
129.50 111.3380
129.55 128.2537
129.60 141.0348
129.65 130.7334
129.70 125.0153
129.75 130.5395
129.80 139.2862
129.85 128.4629
129.90 141.6617
129.95 118.2720
130.00 121.8312
