40 154.6451 12.4356383028777
40.05 160.0458 12.6509209150955
40.1 155.9252 12.4870012412909
40.15 182.1599 13.4966625504233
40.2 167.1226 12.9275906494598
40.25 190.7073 13.8096813866215
40.3 166.1932 12.8915941605373
40.35 187.9888 13.7109007727428
40.4 182.7784 13.519556205734
40.45 184.8386 13.5955360320952
40.5 196.4501 14.0160657818091
40.55 203.1809 14.2541537805652
40.6 161.0204 12.6893813876012
40.65 154.8085 12.4422063959733
40.7 165.742 12.8740824915797
40.75 167.9739 12.9604745283496
40.8 180.2932 13.4273303377849
40.85 186.6018 13.6602269380856
40.9 163.2165 12.7756213156151
40.95 171.5881 13.0991640954681
41 170.3015 13.0499616857675
41.05 174.5933 13.2133757987881
41.1 175.1246 13.2334651546751
41.15 190.3414 13.7964270737028
41.2 193.6455 13.9156566499752
41.25 154.2098 12.4181238518546
41.3 196.497 14.0177387620115
41.35 162.8535 12.7614066622767
41.4 184.616 13.587347055257
41.45 200.8889 14.1735281422799
41.5 205.5555 14.3372068409436
41.55 169.6975 13.0267992999048
41.6 166.2229 12.8927460224733
41.65 157.4102 12.5463221702617
41.7 145.0544 12.0438532040207
41.75 188.5953 13.7330004004952
41.8 202.1551 14.2181257555277
41.85 183.4739 13.5452537813066
41.9 163.2114 12.7754217151529
41.95 174.5741 13.2126492422981
42 176.3744 13.2806023959759
42.05 184.1537 13.5703242407836
42.1 185.9278 13.6355344596389
42.15 168.4277 12.9779697950026
42.2 161.3868 12.7038104519864
42.25 173.377 13.1672700283696
42.3 170.4686 13.0563624336949
42.35 192.1511 13.8618577398558
42.4 193.4155 13.9073901218022
42.45 189.1521 13.7532577958824
42.5 177.8148 13.3347215943941
42.55 180.992 13.4533267261299
42.6 166.6341 12.908683124161
42.65 184.6865 13.5899411330587
42.7 184.3058 13.5759272243188
42.75 175.2005 13.2363325736399
42.8 197.5137 14.0539567382286
42.85 174.2465 13.200246209825
42.9 150.9955 12.2880226236771
42.95 180.2808 13.4268685850425
43 190.4441 13.8001485499251
43.05 187.6153 13.6972734513114
43.1 196.794 14.0283284820395
43.15 184.0551 13.5666908271693
43.2 211.1951 14.5325531136136
43.25 201.2385 14.1858556315789
43.3 216.0359 14.6981597487577
43.35 210.0252 14.4922462027113
43.4 200.5553 14.1617548347654
43.45 240.8186 15.5183310958363
43.5 201.2077 14.1847700016602
43.55 199.2091 14.1141453868096
43.6 226.2763 15.042483172668
43.65 225.2131 15.0071016522179
43.7 231.504 15.2152555022911
43.75 192.4145 13.8713553771793
43.8 236.631 15.3828150869729
43.85 217.6077 14.7515321238168
43.9 233.7042 15.2873869578813
43.95 276.6523 16.632868062965
44 324.7877 18.0218672728438
44.05 396.0808 19.9017788149703
44.1 380.0712 19.4954148455477
44.15 530.5987 23.0347281295005
44.2 646.7169 25.4306291703528
44.25 826.2302 28.7442202886076
44.3 1249.158 35.3434293752035
44.35 1932.4413 43.9595416263637
44.4 2948.6008 54.3010202482421
44.45 4458.3326 66.7707465886072
44.5 5663.8754 75.2587230824441
44.55 5861.8152 76.5624921224486
44.6 4549.9025 67.4529650942047
44.65 2647.9309 51.4580499047525
44.7 1455.6373 38.152815099282
44.75 871.2286 29.5165817804162
44.8 574.7593 23.9741381492641
44.85 459.4322 21.4343695965148
44.9 340.3824 18.4494552765116
44.95 322.2086 17.9501699156303
45 272.8423 16.5179387333892
45.05 213.5389 14.6129702661711
45.1 212.1517 14.5654282463647
45.15 172.8911 13.1488060294462
45.2 195.2075 13.9716677601495
45.25 191.8667 13.8515955759616
45.3 183.4953 13.5460437028676
45.35 193.594 13.9138060932298
45.4 196.3275 14.0116915467048
45.45 176.4116 13.2820028610146
45.5 174.6575 13.2158049319744
45.55 182.3246 13.5027626802814
45.6 172.1947 13.1222978170746
45.65 178.4562 13.3587499415177
45.7 172.579 13.1369326709091
45.75 166.0155 12.8847002293418
45.8 176.0792 13.2694837880002
45.85 159.2836 12.6207606743809
45.9 161.1312 12.6937464918754
45.95 179.7499 13.4070839484207
46 148.1199 12.1704519225869
46.05 177.7224 13.3312565049211
46.1 152.1818 12.3361987662327
46.15 163.5044 12.786883905002
46.2 176.1043 13.2704295333648
46.25 164.2829 12.8172891049551
46.3 169.6302 13.0242159073013
46.35 144.0327 12.0013624226585
46.4 177.6615 13.3289722034371
46.45 165.7351 12.8738145085285
46.5 156.9392 12.5275376670757
46.55 136.717 11.6926045002814
46.6 156.9805 12.529185927266
46.65 176.639 13.2905605600366
46.7 179.2609 13.3888349007671
46.75 167.6969 12.9497837819788
46.8 156.3784 12.5051349452935
46.85 153.6291 12.3947206503414
46.9 149.3744 12.2218820154672
46.95 160.9987 12.6885263131697
47 153.5798 12.3927317408229
47.05 159.6039 12.6334437110394
47.1 161.7797 12.7192649158668
47.15 154.5898 12.4334146556769
47.2 125.9148 11.2211764089154
47.25 168.8622 12.9946989191747
47.3 189.4127 13.762728653868
47.35 185.886 13.6340016136129
47.4 153.2946 12.3812196491299
47.45 166.2334 12.8931532217685
47.5 164.0287 12.8073689725876
47.55 136.2403 11.6722020201845
47.6 164.4973 12.82565008099
47.65 158.5001 12.5896822835209
47.7 147.8114 12.157771177317
47.75 172.4562 13.1322579932013
47.8 141.3207 11.8878383232613
47.85 139.4979 11.8109229105942
47.9 159.3678 12.6240960072395
47.95 165.795 12.8761407261648
48 176.86 13.2988721326284
48.05 156.0028 12.4901080860015
48.1 142.0041 11.9165473187497
48.15 158.8255 12.6025989383143
48.2 190.0278 13.7850571271939
48.25 142.7613 11.9482760262726
48.3 190.8304 13.8141376857189
48.35 164.6023 12.8297427877569
48.4 156.4634 12.5085330874567
48.45 150.8302 12.2812947200204
48.5 171.5828 13.0989617909207
48.55 158.125 12.5747763399593
48.6 129.4612 11.3781017749008
48.65 130.6397 11.4297725261704
48.7 179.525 13.3986939662043
48.75 175.3354 13.2414274155017
48.8 139.0903 11.7936550738098
48.85 159.5078 12.629639741497
48.9 143.38 11.9741387999305
48.95 141.0908 11.8781648414223
49 144.2252 12.0093796675765
49.05 158.6479 12.5955508017712
49.1 172.8997 13.14913305127
49.15 147.7389 12.1547891795786
49.2 138.1443 11.7534803356283
49.25 156.41 12.5063983624383
49.3 144.1085 12.0045199820734
49.35 150.4286 12.2649337544073
49.4 182.9632 13.5263890229433
49.45 163.8237 12.7993632654129
49.5 160.3417 12.6626103154129
49.55 130.7987 11.4367259300903
49.6 168.5228 12.9816331792267
49.65 154.2397 12.4193276790654
49.7 158.7128 12.5981268448925
49.75 175.6415 13.2529807967868
49.8 154.5448 12.4316048843261
49.85 168.213 12.9696954474652
49.9 167.9388 12.9591203405169
49.95 156.2097 12.4983878960448
50 154.1791 12.4168876937822
50.05 151.7362 12.3181248572987
50.1 174.0651 13.1933733366414
50.15 143.303 11.9709231055921
50.2 138.2394 11.7575252498134
50.25 167.6273 12.9470961995345
50.3 171.1665 13.0830615683027
50.35 150.4193 12.2645546189008
50.4 149.4719 12.2258701121842
50.45 172.5041 13.1340816199687
50.5 153.595 12.3933449883395
50.55 144.2616 12.0108950540749
50.6 158.1518 12.5758419201261
50.65 164.4444 12.82358764153
50.7 163.7516 12.7965464090902
50.75 148.3542 12.1800738914015
50.8 166.634 12.9086792507987
50.85 155.8329 12.4833048508798
50.9 174.7271 13.2184378804759
50.95 164.4338 12.8231743339939
51 141.1727 11.8816118435169
51.05 148.3747 12.1809154007406
51.1 131.3724 11.4617799664799
51.15 156.1882 12.4975277555203
51.2 150.3391 12.2612845982793
51.25 154.8159 12.4425037673291
51.3 145.4672 12.0609784014399
51.35 129.6985 11.3885249264336
51.4 141.791 11.9076026134567
51.45 154.6102 12.4342349985835
51.5 158.1703 12.5765774358527
51.55 145.678 12.0697141639726
51.6 147.7226 12.1541186434887
51.65 154.7349 12.439248369576
51.7 146.8034 12.116245292994
51.75 142.2047 11.9249612158698
51.8 147.6451 12.1509300055592
51.85 148.0855 12.1690385815807
51.9 141.2921 11.8866353523611
51.95 158.3015 12.5817924001312
52 166.483 12.9028291471289
52.05 147.7831 12.1566072569611
52.1 140.9423 11.8719122301338
52.15 162.4876 12.7470624066881
52.2 148.4694 12.1848020090603
52.25 172.8463 13.1471023423414
52.3 152.53 12.350303639992
52.35 150.2062 12.2558639026386
52.4 154.0001 12.409677675105
52.45 153.2154 12.3780208434143
52.5 152.4069 12.3453189509222
52.55 128.1354 11.3196908084983
52.6 130.9718 11.4442911532344
52.65 157.162 12.5364269231707
52.7 140.8943 11.8698904796969
52.75 139.3541 11.8048337557121
52.8 154.6768 12.4369128002089
52.85 152.874 12.3642225796853
52.9 149.5326 12.2283523011075
52.95 173.2442 13.162226255463
53 167.4826 12.9415068674401
53.05 163.0248 12.7681165408215
53.1 166.0236 12.8850145517962
53.15 127.6133 11.2966056848949
53.2 160.2686 12.6597235356859
53.25 143.9063 11.9960951980217
53.3 141.7123 11.9042975433244
53.35 159.1021 12.6135680915433
53.4 144.1366 12.0056903175119
53.45 150.5966 12.2717806368921
53.5 160.2664 12.6596366456546
53.55 148.0219 12.1664251117574
53.6 142.6579 11.9439482584278
53.65 140.6911 11.8613279189136
53.7 171.3378 13.0896065639881
53.75 168.7708 12.9911816244713
53.8 156.9492 12.5279367814497
53.85 159.5058 12.6295605624265
53.9 147.5204 12.1457976271631
53.95 152.4036 12.3451852963007
54 140.3868 11.8484935751344
54.05 149.654 12.2333151680156
54.1 153.8619 12.4041081904343
54.15 136.3513 11.6769559389423
54.2 155.7654 12.4806009470698
54.25 150.4586 12.2661566922977
54.3 143.15 11.9645309143317
54.35 158.6367 12.595106192486
54.4 167.8528 12.9558017891599
54.45 135.9899 11.661470747723
54.5 147.6054 12.1492962759166
54.55 146.8245 12.1171159935027
54.6 133.9137 11.5721087101703
54.65 137.2546 11.7155708354309
54.7 145.9433 12.0806994830597
54.75 130.756 11.4348589847011
54.8 157.7683 12.5605851774509
54.85 139.5012 11.8110626109593
54.9 150.4797 12.2670167522507
54.95 140.5819 11.8567238308059
55 142.5251 11.9383876633321
55.05 162.1237 12.7327805290125
55.1 145.5031 12.0624665802646
55.15 134.1627 11.5828623405443
55.2 141.3783 11.8902607204384
55.25 130.8499 11.4389641139397
55.3 154.9706 12.4487188095804
55.35 145.4655 12.0609079260228
55.4 162.0667 12.7305420151697
55.45 139.0223 11.7907718152799
55.5 151.9761 12.3278586948423
55.55 155.0034 12.4500361445258
55.6 163.6901 12.79414319132
55.65 146.7557 12.1142767014791
55.7 136.4038 11.6792037399816
55.75 150.1157 12.2521712361524
55.8 146.2481 12.0933080668608
55.85 132.5941 11.5149511505694
55.9 157.92 12.566622457924
55.95 143.9643 11.9985124077946
56 146.4501 12.101656911349
56.05 137.79 11.7383985279083
56.1 145.3633 12.0566703529623
56.15 163.515 12.7872983855074
56.2 165.1537 12.8512139504406
56.25 159.7766 12.6402768957013
56.3 124.9249 11.1769808087873
56.35 143.5732 11.9822034701469
56.4 149.6852 12.2345903078117
56.45 141.6435 11.9014074797899
56.5 142.5741 11.9404396903967
56.55 135.4765 11.639437271621
56.6 157.6225 12.5547799662121
56.65 129.1837 11.3659007562093
56.7 171.2579 13.0865541683057
56.75 155.4959 12.4697995172336
56.8 137.0254 11.7057848946579
56.85 133.5573 11.5566993557849
56.9 137.7021 11.7346538082723
56.95 155.1095 12.4542964474112
57 146.2123 12.0918278188204
57.05 141.38 11.8903322073019
57.1 152.76 12.3596116443843
57.15 151.4611 12.3069533191607
57.2 149.8864 12.2428101349323
57.25 167.1648 12.9292227144558
57.3 145.1242 12.046750599228
57.35 154.6149 12.4344239914843
57.4 172.0794 13.1179037959576
57.45 152.9764 12.3683628666045
57.5 132.3195 11.5030213422387
57.55 144.0053 12.0002208313014
57.6 156.0416 12.491661218589
57.65 137.2339 11.7146873624523
57.7 144.924 12.0384384369402
57.75 147.1581 12.1308738349717
57.8 147.6997 12.1531765394896
57.85 152.2019 12.3370134149234
57.9 125.9607 11.2232214626639
57.95 143.2355 11.9681034420663
58 170.5062 13.0578022653125
58.05 159.7925 12.6409058219734
58.1 152.5786 12.3522710462489
58.15 148.5945 12.1899343722598
58.2 140.1406 11.8380995096341
58.25 136.2107 11.6709339814772
58.3 145.9604 12.0814072028055
58.35 138.2243 11.7568830903433
58.4 162.3595 12.742036728875
58.45 135.8773 11.6566418834929
58.5 151.3552 12.3026501210105
58.55 138.5373 11.7701869144037
58.6 122.7757 11.0804196671426
58.65 132.8644 11.5266820898297
58.7 153.1363 12.3748252512914
58.75 144.0078 12.0003249955991
58.8 136.8668 11.6990085049973
58.85 148.0779 12.1687263096842
58.9 122.426 11.0646283263379
58.95 157.4768 12.548976053846
59 141.6324 11.9009411392545
59.05 128.9926 11.3574909200932
59.1 158.0855 12.5732056373862
59.15 149.362 12.2213747180913
59.2 132.9474 11.5302818699284
59.25 124.0106 11.1360046695393
59.3 146.1554 12.08947476113
59.35 151.2011 12.2963856478235
59.4 141.9658 11.9149402012767
59.45 142.1173 11.9212960704782
59.5 165.2556 12.8551779450928
59.55 132.0515 11.4913663243324
59.6 133.1933 11.5409401696742
59.65 149.7712 12.2381044283827
59.7 146.748 12.1139588904701
59.75 157.7445 12.5596377336291
59.8 151.312 12.3008942764337
59.85 153.1632 12.3759120875998
59.9 133.7997 11.5671820250223
59.95 155.1003 12.453927091484
60 153.2974 12.3813327230957
60.05 154.7247 12.4388383702016
60.1 145.7405 12.072303011439
60.15 140.1774 11.8396537111522
60.2 138.161 11.754190742029
60.25 127.1218 11.2748303756642
60.3 142.8691 11.9527862860506
60.35 158.9782 12.6086557570583
60.4 130.7721 11.4355629507253
60.45 146.013 12.0835839054479
60.5 118.2074 10.8723226589354
60.55 143.8716 11.9946488068638
60.6 132.6408 11.5169787704936
60.65 145.0755 12.0447291376768
60.7 140.1825 11.8398690871141
60.75 127.1363 11.2754733825237
60.8 113.8288 10.6690580652652
60.85 157.775 12.5608518819386
60.9 130.9313 11.4425215752473
60.95 137.9981 11.747259254822
61 156.8276 12.5230826875814
61.05 133.7386 11.5645406307384
61.1 135.5846 11.6440800409478
61.15 120.8934 10.9951534777828
61.2 139.8413 11.8254513655928
61.25 158.048 12.5717142824676
61.3 162.6135 12.7519998431619
61.35 157.1225 12.5348514151545
61.4 150.305 12.2598939636524
61.45 150.4856 12.2672572321607
61.5 112.9597 10.6282500911486
61.55 158.0757 12.5728159137084
61.6 130.1545 11.4085275123479
61.65 138.9879 11.7893129570811
61.7 150.3954 12.2635802276497
61.75 160.5179 12.6695658962728
61.8 147.6738 12.152110927736
61.85 150.7372 12.2775078904475
61.9 146.4829 12.1030120218068
61.95 137.0105 11.705148439896
62 129.4085 11.3757856871515
62.05 124.8429 11.1733119530424
62.1 141.2384 11.884376298317
62.15 134.7793 11.6094487379892
62.2 148.2322 12.175064681553
62.25 147.5498 12.147007862021
62.3 151.2536 12.298520236191
62.35 120.7335 10.9878796862725
62.4 119.7399 10.9425728236096
62.45 122.4988 11.0679175999824
62.5 142.3471 11.9309303912143
62.55 136.0593 11.6644459791282
62.6 147.1792 12.1317434855836
62.65 139.1995 11.7982837734986
62.7 134.0852 11.5795163975012
62.75 130.3944 11.4190367369582
62.8 135.9379 11.659240970149
62.85 150.3588 12.2620879135651
62.9 134.1903 11.5840536946269
62.95 146.48 12.1028922163258
63 145.5931 12.0661965838453
63.05 134.0493 11.5779661426349
63.1 142.5007 11.9373657060509
63.15 144.7488 12.0311595451145
63.2 132.9058 11.5284777832982
63.25 140.3947 11.848826946158
63.3 141.2205 11.8836231848708
63.35 141.6216 11.9004873849771
63.4 132.7449 11.5214972985285
63.45 147.9159 12.1620680807172
63.5 151.8292 12.3218992042623
63.55 147.0641 12.1269988043209
63.6 125.3986 11.1981516331938
63.65 161.2332 12.6977635826156
63.7 153.5551 12.3917351488805
63.75 137.5966 11.7301577141998
63.8 123.4986 11.11299239629
63.85 139.721 11.820363784588
63.9 160.8427 12.6823775373547
63.95 151.8802 12.3239685166751
64 138.8101 11.7817698161185
64.05 176.4762 13.2844345005725
64.1 171.974 13.1138857704343
64.15 182.7501 13.5185095332289
64.2 166.9589 12.9212576787246
64.25 203.4955 14.2651848918968
64.3 209.4055 14.4708500095882
64.35 199.2548 14.1157642371924
64.4 218.5797 14.7844411460156
64.45 230.2152 15.1728441631752
64.5 261.5358 16.172068513335
64.55 309.8001 17.6011391676789
64.6 320.6477 17.9066384338323
64.65 330.5106 18.1799504949821
64.7 341.4209 18.477578304529
64.75 367.2449 19.163634832672
64.8 278.5233 16.6890173467463
64.85 268.4865 16.3855576652124
64.9 232.2311 15.2391305526267
64.95 212.5121 14.5777947577814
65 218.8086 14.7921803666667
65.05 200.3014 14.1527877112603
65.1 163.7649 12.7970660700021
65.15 159.7207 12.6380655165259
65.2 159.3178 12.6221155120685
65.25 164.8891 12.8409150764266
65.3 163.9881 12.8057838494955
65.35 168.2026 12.9692945066414
65.4 142.5137 11.9379102023763
65.45 139.2781 11.8016142963579
65.5 130.1959 11.4103418003143
65.55 142.0498 11.9184646662227
65.6 131.9576 11.4872799217221
65.65 152.5353 12.3505182077514
65.7 151.2697 12.2991747690648
65.75 153.1815 12.3766514049641
65.8 141.2614 11.8853439159328
65.85 154.0075 12.4099758259233
65.9 121.7883 11.0357736475519
65.95 139.1915 11.7979447362666
66 137.5414 11.7278045686309
66.05 135.6008 11.6447756526264
66.1 135.4434 11.6380152947141
66.15 150.4711 12.2666662137681
66.2 124.4295 11.1547971743103
66.25 132.9051 11.528447423656
66.3 148.1974 12.1736354471456
66.35 124.9435 11.1778128450963
66.4 146.0056 12.0832777010214
66.45 132.9583 11.5307545286508
66.5 158.0064 12.5700596657295
66.55 144.4646 12.0193427440938
66.6 133.4692 11.5528870850537
66.65 126.189 11.2333877347842
66.7 127.4958 11.2914038099786
66.75 140.7246 11.862739987035
66.8 151.4934 12.3082655154981
66.85 124.967 11.1788639852178
66.9 137.2041 11.7134153857874
66.95 129.9053 11.3976006246929
67 148.4196 12.1827583083635
67.05 164.3784 12.8210140004603
67.1 138.8858 11.7849819685904
67.15 148.5046 12.1862463457785
67.2 134.6026 11.6018360615896
67.25 136.1765 11.6694687111282
67.3 139.1782 11.7973810653043
67.35 152.3152 12.3416044337841
67.4 139.7182 11.8202453443234
67.45 140.2069 11.8408994590783
67.5 156.1447 12.495787290123
67.55 133.4896 11.5537699475106
67.6 143.387 11.974431092958
67.65 146.6982 12.1119032360732
67.7 127.2074 11.2786258028184
67.75 135.618 11.6455141578206
67.8 135.1808 11.6267278285853
67.85 129.5291 11.3810851855172
67.9 97.7016 9.88441197037032
67.95 142.7397 11.9473720959883
68 142.4168 11.9338510129798
68.05 144.5254 12.021871734468
68.1 125.2329 11.190750645064
68.15 134.3212 11.5897023257718
68.2 137.131 11.7102946162767
68.25 138.864 11.7840570263386
68.3 140.0088 11.8325314282279
68.35 149.2479 12.2167057752898
68.4 152.4327 12.3463638371789
68.45 134.7823 11.6095779423715
68.5 125.7633 11.2144237480131
68.55 145.0719 12.0445796937876
68.6 135.7001 11.6490385869393
68.65 153.486 12.3889466864621
68.7 142.4276 11.9343034987384
68.75 137.416 11.7224570803224
68.8 143.0818 11.9616804839454
68.85 148.7694 12.1971062141805
68.9 134.8894 11.6141895972125
68.95 154.4215 12.4266447603527
69 155.342 12.4636270804289
69.05 135.7555 11.6514162229319
69.1 119.9927 10.9541179471466
69.15 151.411 12.3049177161003
69.2 137.3529 11.7197653560129
69.25 125.9281 11.2217690227522
69.3 160.6568 12.6750463510001
69.35 162.6794 12.7545834898675
69.4 131.7757 11.4793597382432
69.45 144.2461 12.0102497892425
69.5 128.0735 11.31695630459
69.55 136.645 11.6895252256026
69.6 152.4848 12.3484735898815
69.65 135.1934 11.6272696709073
69.7 119.4009 10.9270718859171
69.75 123.2669 11.1025627672173
69.8 132.0832 11.492745537947
69.85 160.7353 12.6781426084423
69.9 141.4533 11.8934141439706
69.95 128.522 11.3367543856255
70 130.7722 11.4355673230496
70.05 148.9507 12.2045360419805
70.1 140.1815 11.8398268568421
70.15 152.2055 12.3371593164715
70.2 144.2759 12.0114903321778
70.25 137.3329 11.718912065546
70.3 152.897 12.3651526476627
70.35 145.0977 12.0456506673571
70.4 120.9403 10.9972860288346
70.45 113.3027 10.6443741009042
70.5 141.8131 11.9085305558662
70.55 143.8173 11.9923850838772
70.6 136.5962 11.6874377003687
70.65 137.8364 11.7403747810707
70.7 151.6156 12.3132286586419
70.75 142.0196 11.9171976571676
70.8 150.1976 12.2555130451565
70.85 152.4412 12.3467080632855
70.9 164.5659 12.8283241306104
70.95 138.2021 11.7559389246457
71 128.6476 11.3422925372254
71.05 139.1835 11.7976056892914
71.1 122.1326 11.051361907023
71.15 141.2339 11.884186972612
71.2 143.6187 11.9841019688586
71.25 145.0844 12.0450985882225
71.3 136.6471 11.6896150492649
71.35 150.3266 12.2607748531649
71.4 140.6396 11.8591567997054
71.45 139.6952 11.8192723972333
71.5 154.6608 12.4362695371241
71.55 148.8814 12.2016966033417
71.6 131.2872 11.4580626634698
71.65 130.7259 11.4335427580431
71.7 152.1237 12.3338436831346
71.75 138.6496 11.7749564755034
71.8 162.1987 12.7357253425158
71.85 157.1381 12.5354736647643
71.9 148.3916 12.1816090891146
71.95 127.6959 11.3002610589313
72 125.3385 11.1954678330117
72.05 140.893 11.8698357191665
72.1 132.2571 11.5003086915091
72.15 131.6736 11.4749117643666
72.2 127.7742 11.3037250497347
72.25 150.537 12.2693520611318
72.3 139.3342 11.8039908505556
72.35 127.5543 11.2939939791023
72.4 134.9093 11.6150462762746
72.45 146.101 12.087224660773
72.5 126.1089 11.2298219041978
72.55 137.7399 11.7362643119521
72.6 122.0079 11.045718627595
72.65 125.361 11.1964726588332
72.7 146.9741 12.1232875079328
72.75 136.2308 11.671795063314
72.8 133.0448 11.5345047574657
72.85 126.665 11.2545546335695
72.9 124.4099 11.1539185939292
72.95 123.1739 11.0983737547444
73 125.0417 11.1822046126871
73.05 141.2428 11.884561413868
73.1 145.3199 12.0548703850353
73.15 138.2222 11.7567937806189
73.2 145.9461 12.0808153698333
73.25 142.3951 11.9329417999084
73.3 139.3759 11.8057570701756
73.35 140.7552 11.8640296695516
73.4 118.3103 10.8770538290476
73.45 115.3043 10.7379839821076
73.5 148.694 12.194014925364
73.55 143.5234 11.9801252080268
73.6 121.342 11.0155344854437
73.65 132.2834 11.5014520822373
73.7 143.687 11.9869512387429
73.75 129.1185 11.3630321657558
73.8 153.7487 12.3995443464669
73.85 154.7074 12.4381429482057
73.9 122.8817 11.0852018475082
73.95 147.9982 12.1654510808272
74 151.7702 12.3195048601801
74.05 145.276 12.0530494066854
74.1 128.0694 11.3167751590283
74.15 148.2827 12.1771384159005
74.2 133.8195 11.5680378630086
74.25 144.5479 12.0228074924287
74.3 157.0203 12.5307741181461
74.35 137.3261 11.7186219326335
74.4 146.5239 12.1047056965463
74.45 145.1185 12.0465140185865
74.5 144.0707 12.0029454718415
74.55 156.3164 12.5026557178865
74.6 160.8393 12.6822434923794
74.65 150.3972 12.2636536154606
74.7 130.7228 11.4334071912095
74.75 114.3935 10.6954897036087
74.8 169.6799 13.0261237519072
74.85 128.5719 11.3389549783038
74.9 124.2183 11.1453263747635
74.95 150.2564 12.2579117307966
75 135.018 11.6197246094733
75.05 136.5335 11.6847550252455
75.1 137.3775 11.7208148180918
75.15 143.4907 11.9787603699214
75.2 149.0664 12.2092751627605
75.25 143.6915 11.9871389413821
75.3 146.3442 12.0972806861708
75.35 131.7275 11.4772601260057
75.4 124.6477 11.164573435649
75.45 147.504 12.1451224777686
75.5 131.948 11.4868620606326
75.55 145.797 12.0746428518611
75.6 139.8819 11.8271678773914
75.65 141.9901 11.9159598858002
75.7 122.5173 11.0687533173343
75.75 156.1672 12.4966875611099
75.8 151.3755 12.3034751188435
75.85 147.213 12.133136445289
75.9 140.7072 11.8620065756178
75.95 134.5317 11.59878010827
76 126.4695 11.2458659070789
76.05 125.9972 11.224847437716
76.1 156.6536 12.5161335882932
76.15 143.4896 11.9787144552327
76.2 114.369 10.6943442996754
76.25 142.4864 11.936766731406
76.3 136.3883 11.6785401484946
76.35 117.3465 10.8326589533687
76.4 135.5392 11.6421303892372
76.45 134.4429 11.5949514876087
76.5 126.5217 11.2481865205019
76.55 120.1068 10.9593247967199
76.6 120.5766 10.9807376801379
76.65 145.6682 12.0693081823276
76.7 123.4316 11.109977497727
76.75 132.025 11.4902132269162
76.8 134.4586 11.5956284866324
76.85 136.5582 11.6858119101755
76.9 126.628 11.2529107345611
76.95 148.2297 12.1749620122611
77 129.3448 11.3729855359092
77.05 148.8755 12.2014548312896
77.1 144.0569 12.0023705991775
77.15 140.0595 11.8346736330158
77.2 146.2951 12.0952511342262
77.25 130.7478 11.4345004263413
77.3 142.2526 11.9269694390486
77.35 131.1366 11.4514889861537
77.4 120.0418 10.9563588842279
77.45 152.4959 12.348923029965
77.5 136.643 11.6894396786159
77.55 148.4037 12.1821057293064
77.6 121.9429 11.0427759191247
77.65 148.0473 12.1674689233217
77.7 115.6233 10.7528275351184
77.75 140.5342 11.8547121432787
77.8 129.3342 11.3725195097656
77.85 131.7128 11.4766197113959
77.9 146.7884 12.1156262735362
77.95 144.3714 12.0154650346959
78 135.6703 11.6477594411973
78.05 143.857 11.9940401866927
78.1 140.3168 11.8455392447959
78.15 154.2194 12.418510377658
78.2 128.7443 11.3465545431201
78.25 128.3831 11.3306266375695
78.3 145.2069 12.050182571231
78.35 122.921 11.0869743392866
78.4 130.3516 11.4171625196456
78.45 129.8261 11.3941256794894
78.5 137.4294 11.7230286189193
78.55 133.5477 11.5562840048175
78.6 133.6435 11.5604281927617
78.65 154.2091 12.4180956672108
78.7 138.3997 11.7643401854928
78.75 127.4306 11.2885162886891
78.8 139.4705 11.8097629104059
78.85 141.7047 11.9039783265932
78.9 110.5504 10.5142950310518
78.95 142.603 11.9416498022677
79 146.1455 12.0890653071278
79.05 162.7425 12.7570568706109
79.1 149.2929 12.2185473768366
79.15 123.7233 11.12309759015
79.2 117.9139 10.8588166942812
79.25 119.1067 10.9136016053363
79.3 133.2259 11.5423524465336
79.35 135.2317 11.6289165445453
79.4 145.4569 12.0605513970133
79.45 150.7084 12.2763349579587
79.5 137.4307 11.7230840652108
79.55 136.4387 11.680697753131
79.6 148.5858 12.1895775152382
79.65 130.2972 11.4147798927531
79.7 140.4381 11.8506582095679
79.75 130.3771 11.4182792048539
79.8 157.9903 12.5694192387715
79.85 151.9145 12.3253600353093
79.9 143.558 11.9815691793688
79.95 138.4102 11.7647864409007
80 147.2255 12.1336515526036
80.05 143.5582 11.9815775255181
80.1 140.6648 11.8602192222572
80.15 138.2114 11.7563344627482
80.2 138.0178 11.7480977183542
80.25 132.3492 11.5043122349839
80.3 140.6289 11.8587056629297
80.35 124.5445 11.1599507167371
80.4 127.06 11.2720894247695
80.45 148.329 12.1790393709849
80.5 138.3241 11.761126646712
80.55 165.6612 12.8709440213218
80.6 150.9717 12.2870541628171
80.65 157.2581 12.5402591679758
80.7 139.5448 11.8129081940054
80.75 148.3839 12.1812930348137
80.8 151.8009 12.3207507888115
80.85 170.1364 13.0436344628328
80.9 134.685 11.6053866803308
80.95 133.0017 11.5326362987827
81 147.0302 12.1256010160322
81.05 132.9988 11.5325105679553
81.1 141.7415 11.9055239279924
81.15 158.257 12.5800238473542
81.2 174.3931 13.205797969074
81.25 171.5514 13.0977631678085
81.3 166.5129 12.9039877557288
81.35 178.0626 13.3440098920827
81.4 179.3004 13.3903099291988
81.45 204.5322 14.3014754483585
81.5 206.215 14.3601880210532
81.55 210.6593 14.5141069308449
81.6 269.8554 16.4272760980024
81.65 306.1568 17.4973369402318
81.7 351.0921 18.7374518011388
81.75 389.4416 19.7342747523186
81.8 460.0765 21.4493939308317
81.85 504.6945 22.4654067401416
81.9 598.3281 24.4607461047287
81.95 664.1218 25.7705607234301
82 711.2662 26.669574424801
82.05 665.2491 25.7924233060796
82.1 605.1312 24.5994146271817
82.15 446.4276 21.1288333800047
82.2 387.7624 19.691683523762
82.25 325.0022 18.0278173942383
82.3 315.3748 17.7587950041662
82.35 214.8394 14.6574008609985
82.4 227.8522 15.0947739300726
82.45 195.3269 13.9759400399401
82.5 198.9297 14.1042440421314
82.55 182.439 13.5069981861256
82.6 169.5578 13.0214361727115
82.65 168.7052 12.9886565895015
82.7 143.7054 11.9877187154187
82.75 143.6256 11.9843898467965
82.8 151.7411 12.3183237496016
82.85 132.8237 11.5249164855976
82.9 159.8093 12.6415703138495
82.95 153.6053 12.3937605269749
83 149.7094 12.2355792670392
83.05 126.656 11.2541547883437
83.1 143.4262 11.9760678020793
83.15 116.8304 10.8088112204812
83.2 151.7667 12.3193628081975
83.25 133.3976 11.54978787684
83.3 163.3226 12.7797730809275
83.35 140.6375 11.8590682601965
83.4 134.3131 11.5893528723566
83.45 130.4704 11.4223640285188
83.5 144.1206 12.005023948331
83.55 137.3607 11.7200981224561
83.6 145.3856 12.0575951167718
83.65 126.4723 11.2459903965814
83.7 161.3923 12.7040269206264
83.75 122.358 11.0615550443868
83.8 128.5884 11.3396825352388
83.85 153.4084 12.3858144665581
83.9 127.0773 11.272856780781
83.95 155.8443 12.4837614523829
84 141.2967 11.886828845407
84.05 145.0825 12.0450197177091
84.1 116.3101 10.7847160370591
84.15 130.3775 11.4182967206147
84.2 127.9188 11.3101193627654
84.25 122.929 11.0873351171506
84.3 116.7226 10.8038233972978
84.35 140.7449 11.8635955763841
84.4 140.5055 11.8535015923566
84.45 135.473 11.6392869197387
84.5 105.0479 10.2492877801338
84.55 134.8435 11.6122133979703
84.6 147.0533 12.1265535087262
84.65 132.0566 11.491588227917
84.7 147.9761 12.1645427369877
84.75 129.4581 11.3779655474957
84.8 128.0955 11.3179282556482
84.85 145.8691 12.0776280783935
84.9 137.7871 11.7382750010383
84.95 129.1254 11.3633357778427
85 152.2137 12.3374916413346
85.05 144.2788 12.0116110493139
85.1 163.7221 12.7953937024228
85.15 145.0764 12.0447664983594
85.2 129.6009 11.3842391050083
85.25 117.0883 10.8207347255166
85.3 116.1929 10.7792810520925
85.35 142.9022 11.9541708202619
85.4 142.6815 11.9449361655892
85.45 132.9139 11.5288290819146
85.5 124.7666 11.1698970451835
85.55 157.5264 12.5509521551156
85.6 138.9335 11.7870055569682
85.65 142.5946 11.9412980868916
85.7 139.8236 11.8247029561
85.75 117.9476 10.8603683178795
85.8 135.7934 11.6530425211616
85.85 148.4989 12.1860124733237
85.9 119.6128 10.9367636895016
85.95 114.1025 10.6818771758526
86 130.3329 11.4163435477389
86.05 127.0064 11.2697116200904
86.1 129.4465 11.3774557788637
86.15 117.5235 10.8408256143155
86.2 154.7265 12.4389107240144
86.25 146.4198 12.1004049519014
86.3 135.9042 11.6577956749979
86.35 148.1597 12.1720869204915
86.4 157.4965 12.5497609538987
86.45 130.6945 11.4321695228858
86.5 120.8306 10.9922973031118
86.55 130.308 11.4152529538333
86.6 150.6193 12.2727054881962
86.65 131.556 11.4697863973136
86.7 140.3439 11.8466830800862
86.75 139.5089 11.811388572052
86.8 163.0038 12.7672941534219
86.85 119.9931 10.9541362051054
86.9 132.5541 11.513214147231
86.95 124.9793 11.1794141170278
87 132.8068 11.5241832682407
87.05 164.8759 12.8404010840783
87.1 127.65 11.2982299498638
87.15 139.5999 11.8152401583717
87.2 118.0267 10.864009388803
87.25 123.902 11.1311275259966
87.3 134.109 11.5805440286715
87.35 153.6154 12.3941679833702
87.4 139.2733 11.8014109325962
87.45 123.7765 11.1254887533088
87.5 142.1382 11.9221726207936
87.55 143.1628 11.9650658167851
87.6 105.558 10.2741422999684
87.65 124.7263 11.1680929437393
87.7 145.8181 12.0755165520983
87.75 152.2824 12.3402755236664
87.8 137.017 11.7054260922019
87.85 143.8506 11.9937733845525
87.9 140.3437 11.8466746389018
87.95 125.7261 11.2127650470346
88 144.8644 12.0359627782741
88.05 127.4146 11.2878075816343
88.1 126.272 11.2370814716278
88.15 145.1945 12.0496680452202
88.2 130.6152 11.4287007135545
88.25 120.4831 10.9764793991516
88.3 124.5562 11.1604749002899
88.35 139.3186 11.803330038595
88.4 125.2296 11.1906032009003
88.45 133.3289 11.5468134132322
88.5 133.2627 11.5439464655723
88.55 111.4656 10.557727028106
88.6 113.0166 10.6309265823822
88.65 110.2334 10.4992094940524
88.7 137.5905 11.7298976977636
88.75 123.4465 11.1106480459062
88.8 150.3223 12.2605994959464
88.85 140.5987 11.8574322684129
88.9 147.2981 12.1366428636588
88.95 139.9784 11.8312467643947
89 124.049 11.1377286732978
89.05 152.2305 12.3381724740741
89.1 128.147 11.3202031783886
89.15 119.0548 10.9112235794158
89.2 131.76 11.4786758818254
89.25 126.5486 11.2493822052591
89.3 144.644 12.0268033990749
89.35 126.7647 11.2589830801898
89.4 146.489 12.1032640225685
89.45 145.5354 12.0638053697828
89.5 152.6456 12.3549828004737
89.55 130.6824 11.4316403022488
89.6 148.9108 12.2029012943644
89.65 135.4648 11.6389346591516
89.7 148.0656 12.1682209052926
89.75 161.051 12.6905870628588
89.8 161.3121 12.7008700489376
89.85 135.4336 11.6375942531092
89.9 145.1485 12.0477591277382
89.95 146.8135 12.1166620816131
90 140.1555 11.8387288168958
90.05 124.6106 11.1629118065136
90.1 122.5663 11.0709665341378
90.15 137.8625 11.741486277299
90.2 138.9453 11.7875060975594
90.25 113.4123 10.6495211159939
90.3 131.4182 11.4637777368545
90.35 155.8339 12.4833449043115
90.4 136.1639 11.668928828303
90.45 134.7091 11.6064249448312
90.5 137.8441 11.7407027046936
90.55 152.4757 12.3481051177903
90.6 142.7048 11.9459114344616
90.65 165.1223 12.8499922178965
90.7 141.1826 11.8820284463554
90.75 126.0753 11.2283257879347
90.8 140.3663 11.847628454674
90.85 153.8539 12.4037857124347
90.9 133.7283 11.5640952953528
90.95 135.5936 11.6444664970105
91 135.506 11.6407044460376
91.05 144.6521 12.0271401421951
91.1 137.991 11.7469570527861
91.15 126.7144 11.2567490866591
91.2 135.818 11.6540979916937
91.25 132.4813 11.5100521284658
91.3 131.7867 11.4798388490431
91.35 121.4471 11.0203039885477
91.4 118.4455 10.8832669727431
91.45 147.9532 12.163601440363
91.5 154.9848 12.4492891363322
91.55 135.9917 11.6615479246968
91.6 140.5966 11.8573437160268
91.65 126.8389 11.2622777447548
91.7 123.5752 11.1164382785135
91.75 141.2521 11.8849526713403
91.8 135.0879 11.622732036832
91.85 133.6437 11.5604368429571
91.9 140.8667 11.8687278172515
91.95 134.8938 11.6143790191297
92 129.1823 11.3658391683148
92.05 129.0621 11.3605501627342
92.1 130.4098 11.4197110296189
92.15 143.5868 11.9827709650147
92.2 135.0084 11.6193115114451
92.25 137.0561 11.7070961386673
92.3 133.336 11.547120853269
92.35 125.8434 11.2179944731668
92.4 144.0748 12.003116262038
92.45 140.8843 11.8694692383442
92.5 129.5269 11.380988533515
92.55 148.718 12.1949989749897
92.6 132.5933 11.5149164130705
92.65 129.7062 11.3888629810003
92.7 138.888 11.7850753073538
92.75 141.4255 11.8922453725106
92.8 131.1817 11.4534579931128
92.85 136.0414 11.6636786649839
92.9 154.144 12.4154742156713
92.95 121.2223 11.0100999087202
93 126.7113 11.2566113906451
93.05 131.5082 11.4677024725967
93.1 138.3531 11.7623594571838
93.15 148.8485 12.2003483556823
93.2 129.7689 11.3916153376069
93.25 118.2723 10.8753068922215
93.3 130.3257 11.4160282059918
93.35 115.4545 10.7449755700048
93.4 140.8711 11.8689131768667
93.45 141.3213 11.8878635591094
93.5 141.7937 11.907715985864
93.55 150.3398 12.2613131433791
93.6 131.1781 11.4533008342573
93.65 125.6937 11.2113201720404
93.7 112.9803 10.6292191622903
93.75 147.6249 12.1500987650307
93.8 133.9987 11.5757807512064
93.85 136.0642 11.6646560172171
93.9 131.583 11.470963342283
93.95 125.0351 11.1819094970403
94 135.3074 11.6321709065849
94.05 135.2984 11.6317840420118
94.1 135.9368 11.6591937971714
94.15 133.815 11.5678433599353
94.2 125.6441 11.2091079038432
94.25 127.5162 11.2923071159086
94.3 140.3374 11.8464087385165
94.35 147.9517 12.1635397808368
94.4 128.4278 11.3325989958173
94.45 134.5529 11.5996939614802
94.5 125.7381 11.2133001386746
94.55 134.3167 11.5895081862864
94.6 143.9952 11.9997999983333
94.65 124.5123 11.1585079647774
94.7 140.6956 11.8615176094798
94.75 142.0535 11.9186198865473
94.8 132.555 11.513253232688
94.85 151.8696 12.3235384528957
94.9 124.8997 11.1758534349731
94.95 113.645 10.6604408914453
95 136.7377 11.6934896416767
95.05 128.2176 11.323321067602
95.1 133.7094 11.5632780819282
95.15 127.7294 11.3017432283697
95.2 129.5409 11.3816035777038
95.25 114.3114 10.6916509482867
95.3 122.2171 11.0551843042077
95.35 128.8376 11.3506651787461
95.4 137.1862 11.7126512797061
95.45 152.8948 12.3650636876645
95.5 125.7572 11.2141517735404
95.55 135.6896 11.6485878972518
95.6 128.6071 11.3405070433381
95.65 123.7056 11.1223019200164
95.7 137.6444 11.7321950205407
95.75 128.2207 11.3234579524101
95.8 168.6348 12.9859462496962
95.85 148.0312 12.1668073051232
95.9 136.0502 11.6640558983571
95.95 138.8643 11.7840697553944
96 130.8427 11.4386493957984
96.05 132.3736 11.5053726580237
96.1 147.3401 12.1383730376027
96.15 123.4409 11.1103960325454
96.2 133.3353 11.5470905426432
96.25 139.7808 11.8228930469661
96.3 120.6771 10.9853129222612
96.35 163.2133 12.7754960764739
96.4 149.2786 12.2179621868788
96.45 150.3803 12.2629645681621
96.5 146.0564 12.0853795968517
96.55 123.7905 11.1261179213596
96.6 127.614 11.2966366676104
96.65 124.4193 11.1543399625437
96.7 115.8785 10.7646876406146
96.75 131.8459 11.4824169929506
96.8 137.8733 11.7419461759965
96.85 116.7567 10.8054014270642
96.9 118.5631 10.8886684218044
96.95 131.6165 11.4724234580144
97 148.7512 12.196360112755
97.05 118.9886 10.9081895839777
97.1 124.7814 11.1705595204538
97.15 141.5246 11.8964112235581
97.2 125.6393 11.2088937902007
97.25 172.5737 13.1367309479946
97.3 149.385 12.2223156562085
97.35 144.1961 12.0081680534543
97.4 156.2615 12.5004599915363
97.45 144.4991 12.0207778450481
97.5 138.676 11.7760774453975
97.55 145.852 12.0769201371873
97.6 144.339 12.0141166966199
97.65 146.781 12.1153208789532
97.7 144.3042 12.0126683130768
97.75 139.3263 11.8036562132248
97.8 167.1568 12.9289133340741
97.85 162.1602 12.7342137566479
97.9 174.8638 13.223607677181
97.95 182.8106 13.5207470207825
98 194.1834 13.9349703982463
98.05 186.2504 13.6473587188144
98.1 219.8441 14.8271406548936
98.15 203.8778 14.2785783606072
98.2 241.1425 15.5287636339794
98.25 260.0289 16.1254116226532
98.3 246.8116 15.7102386996506
98.35 284.4476 16.865574404686
98.4 336.0642 18.3320538947495
98.45 337.3543 18.3672071910783
98.5 365.141 19.1086629568895
98.55 370.9633 19.2604075761652
98.6 374.6498 19.355872493897
98.65 299.1044 17.2946350062671
98.7 317.3305 17.8137727615461
98.75 263.4619 16.2315094800206
98.8 224.1473 14.9715496859878
98.85 198.1042 14.0749493782393
98.9 188.7761 13.739581507455
98.95 190.9216 13.8174382575063
99 187.0313 13.6759387246361
99.05 156.5753 12.513005234555
99.1 170.2154 13.0466624084476
99.15 133.3453 11.5475235440332
99.2 140.4603 11.851594829389
99.25 147.634 12.1504732418124
99.3 138.6407 11.774578548721
99.35 143.3206 11.9716581975932
99.4 138.4345 11.7658191385046
99.45 152.4583 12.3474005361452
99.5 131.8585 11.4829656448149
99.55 144.7023 12.0292269078275
99.6 143.3414 11.9725268844969
99.65 134.8482 11.6124157693393
99.7 132.0532 11.49144029267
99.75 127.3002 11.2827390291542
99.8 160.9294 12.6857952056621
99.85 123.144 11.0970266287867
99.9 137.0494 11.7068099839367
99.95 138.0873 11.7510552717618
100 142.9874 11.9577338990295
100.05 150.6763 12.2750274948776
100.1 130.8635 11.4395585579165
100.15 111.583 10.5632854737529
100.2 141.5732 11.8984536810461
100.25 135.9339 11.6590694311339
100.3 138.7967 11.7812011272196
100.35 132.6414 11.5170048189623
100.4 131.7831 11.4796820513462
100.45 118.3047 10.8767964033533
100.5 136.6081 11.6879467829042
100.55 117.7151 10.8496589808159
100.6 143.0514 11.9604096919796
100.65 131.5706 11.4704228344033
100.7 141.0584 11.8768009160716
100.75 134.4572 11.5955681188978
100.8 135.2075 11.6278759883308
100.85 120.7009 10.9863961334006
100.9 133.1982 11.5411524554526
100.95 111.8781 10.5772444426703
101 127.6142 11.2966455197992
101.05 127.9798 11.31281574145
101.1 135.0217 11.6198838204175
101.15 132.8343 11.5253763496035
101.2 125.4682 11.2012588578249
101.25 128.8937 11.3531361306029
101.3 118.1643 10.8703403810552
101.35 130.1869 11.4099474144275
101.4 125.4741 11.2015222179845
101.45 121.3629 11.0164831048752
101.5 135.3602 11.6344402529731
101.55 138.9854 11.7892069283731
101.6 135.6931 11.6487381290851
101.65 126.5426 11.2491155207865
101.7 124.0121 11.1360720184453
101.75 122.8091 11.0819267277852
101.8 133.1513 11.5391204170855
101.85 113.5169 10.6544310031085
101.9 132.2128 11.4983824949425
101.95 138.0763 11.7505872193691
102 139.763 11.8221402461652
102.05 114.9331 10.7206856124037
102.1 116.5879 10.7975876935545
102.15 132.9622 11.5309236403681
102.2 126.964 11.2678303146613
102.25 126.4671 11.2457592006943
102.3 133.1414 11.5386914336072
102.35 121.0555 11.0025224380594
102.4 128.7449 11.3465809828336
102.45 149.0572 12.2088983942041
102.5 130.7513 11.434653470919
102.55 133.7194 11.5637104771782
102.6 139.6129 11.8157902824991
102.65 125.1 11.1848111293843
102.7 131.795 11.4802003466838
102.75 128.3259 11.328102224115
102.8 130.2675 11.4134788736826
102.85 156.9498 12.5279607279078
102.9 114.1638 10.6847461364321
102.95 127.2176 11.2790779765014
103 118.427 10.8824170109402
103.05 129.7351 11.3901316937075
103.1 150.1777 12.2547011387467
103.15 128.8876 11.3528674791878
103.2 101.7682 10.0880226010849
103.25 137.2728 11.7163475537387
103.3 133.9164 11.572225369392
103.35 119.9467 10.9520180788748
103.4 146.2469 12.0932584525429
103.45 119.5993 10.9361464876802
103.5 147.6352 12.1505226225048
103.55 147.5738 12.1479957194592
103.6 133.2111 11.5417113115863
103.65 123.9021 11.1311320179037
103.7 155.6527 12.4760851231466
103.75 137.6902 11.7341467521077
103.8 133.4667 11.5527788864844
103.85 124.4591 11.1561238788389
103.9 122.2098 11.0548541374366
103.95 107.2394 10.3556458031356
104 125.2661 11.1922339146392
104.05 147.1603 12.1309645123543
104.1 147.6717 12.1520245226876
104.15 134.7731 11.6091817110423
104.2 165.3503 12.8588607582476
104.25 147.5891 12.1486254366492
104.3 123.2861 11.103427398781
104.35 121.7082 11.0321439439485
104.4 135.856 11.6557282054791
104.45 122.9124 11.0865864899887
104.5 121.7732 11.0350894876299
104.55 136.0192 11.6627269538475
104.6 133.9956 11.5756468501765
104.65 131.738 11.4777175431355
104.7 141.3056 11.8872032034453
104.75 126.3237 11.2393816555894
104.8 152.7014 12.3572407923452
104.85 122.817 11.0822831582666
104.9 124.5781 11.161455998211
104.95 101.6429 10.0818103533046
105 123.0976 11.0949357816979
105.05 132.0556 11.4915447177479
105.1 131.7248 11.4771425015114
105.15 136.2022 11.6705698232777
105.2 135.6463 11.6467291545738
105.25 115.5598 10.7498744178711
105.3 143.352 11.9729695564634
105.35 141.1281 11.8797348455258
105.4 145.9242 12.0799089400541
105.45 133.8078 11.5675321482155
105.5 123.9496 11.133265468855
105.55 129.6277 11.3854161100945
105.6 152.6572 12.3554522377775
105.65 120.0701 10.9576502955698
105.7 129.5747 11.383088333137
105.75 133.0525 11.5348385337637
105.8 125.0574 11.1829065989125
105.85 140.7009 11.861741018923
105.9 122.137 11.0515609757174
105.95 133.0273 11.5337461390478
106 128.2472 11.3246280292114
106.05 144.3304 12.013758779
106.1 141.6392 11.9012268275166
106.15 127.5963 11.295853221426
106.2 158.3274 12.5828216231496
106.25 121.9872 11.0447815732137
106.3 125.8072 11.2163808779838
106.35 138.7268 11.7782341630654
106.4 142.8842 11.9534179212475
106.45 130.7417 11.4342336866097
106.5 145.7715 12.0735868738333
106.55 152.3918 12.3447073679371
106.6 146.7894 12.115667542484
106.65 115.3884 10.741899273406
106.7 144.1873 12.0078016306067
106.75 122.0659 11.0483437672802
106.8 149.7082 12.2355302296223
106.85 141.8211 11.9088664447965
106.9 154.8819 12.4451556840403
106.95 123.0463 11.0926236752177
107 127.5527 11.2939231447713
107.05 149.2189 12.2155188182901
107.1 144.0873 12.0036369488585
107.15 146.0796 12.0863393961944
107.2 133.005 11.5327793701258
107.25 143.3051 11.9710108178048
107.3 145.9923 12.0827273411263
107.35 127.0793 11.2729454890902
107.4 128.0636 11.3165188993789
107.45 120.3714 10.9713900668967
107.5 131.5682 11.470318217033
107.55 133.0898 11.5364552614744
107.6 131.5282 11.4685744536974
107.65 121.2886 11.0131103690102
107.7 156.7676 12.5206868821163
107.75 157.8904 12.5654446797557
107.8 140.1513 11.8385514316575
107.85 126.1045 11.229625995553
107.9 136.4752 11.6822600553146
107.95 149.214 12.2153182520964
108 129.0462 11.359850351127
108.05 130.2435 11.4124274367901
108.1 125.1603 11.1875064245792
108.15 125.4722 11.2014374077616
108.2 130.7049 11.4326243706334
108.25 140.8513 11.8680790358002
108.3 141.185 11.8821294387833
108.35 135.3323 11.6332411648689
108.4 125.1593 11.1874617317781
108.45 119.3909 10.9266142972103
108.5 110.7367 10.5231506688824
108.55 132.3144 11.5027996592134
108.6 120.163 10.9618885234251
108.65 128.4293 11.3326651763828
108.7 138.1245 11.7526380017424
108.75 144.8018 12.0333619574913
108.8 139.2502 11.8004321954749
108.85 134.8378 11.6119679641308
108.9 149.1997 12.214732907436
108.95 126.9101 11.2654382959564
109 139.3022 11.8026352989491
109.05 133.2518 11.5434743470066
109.1 154.2342 12.4191062480357
109.15 123.0598 11.0932321710131
109.2 128.3906 11.3309575941312
109.25 126.5187 11.2480531648815
109.3 128.422 11.3323430939943
109.35 137.8168 11.7395400250606
109.4 120.4432 10.9746617259941
109.45 128.0932 11.31782664649
109.5 129.7267 11.3897629474893
109.55 145.6186 12.0672532085807
109.6 115.6864 10.7557612468853
109.65 119.0505 10.9110265328245
109.7 145.2586 12.0523275760328
109.75 137.8694 11.7417801035448
109.8 137.0437 11.7065665333607
109.85 139.3989 11.8067311310117
109.9 125.1942 11.1890214049308
109.95 109.0765 10.4439695518514
110 126.9426 11.266880668579
110.05 141.0423 11.8761231047847
110.1 126.4965 11.2470662841472
110.15 128.7495 11.3467836852564
110.2 109.6557 10.4716617592434
110.25 130.1336 11.4076114940859
110.3 126.0521 11.2272926389223
110.35 121.5032 11.0228489965163
110.4 142.0623 11.9189890510899
110.45 110.3901 10.5066693104904
110.5 115.8414 10.7629642757003
110.55 141.8197 11.9088076649176
110.6 148.6018 12.1902337959532
110.65 144.4658 12.0193926635251
110.7 121.7929 11.0359820587023
110.75 143.5157 11.9798038381269
110.8 143.5722 11.9821617415223
110.85 132.8971 11.528100450638
110.9 136.4313 11.680380986937
110.95 124.5148 11.1586199863603
111 128.4866 11.3351929846827
111.05 134.6214 11.6026462498863
111.1 126.2588 11.2364941151589
111.15 122.6437 11.0744616121959
111.2 132.6689 11.5181986438852
111.25 138.6091 11.7732365983191
111.3 146.9645 12.1228915692585
111.35 131.5357 11.468901429518
111.4 124.1932 11.1442002853502
111.45 126.1721 11.2326354877206
111.5 132.3137 11.5027692317981
111.55 147.7001 12.1531929960813
111.6 133.5253 11.5553147945004
111.65 146.3039 12.0956149078912
111.7 150.6403 12.2735610154511
111.75 152.9981 12.3692400736666
111.8 130.1062 11.4064104783231
111.85 153.1557 12.3756090759203
111.9 120.8017 10.9909826676235
111.95 146.0799 12.0863518068936
112 131.5816 11.4709023184752
112.05 126.5658 11.2501466657106
112.1 132.2767 11.501160810979
112.15 139.8636 11.8263942095636
112.2 136.1819 11.6697000818359
112.25 128.657 11.3427069079651
112.3 107.909 10.3879256832151
112.35 142.4821 11.9365866142713
112.4 141.2624 11.8853859844769
112.45 124.2974 11.1488743826451
112.5 144.6231 12.025934475125
112.55 134.8652 11.6131477214406
112.6 135.1842 11.6268740424931
112.65 125.433 11.1996874956402
112.7 122.6923 11.0766556324551
112.75 142.3698 11.9318816621688
112.8 124.4665 11.1564555303197
112.85 129.1575 11.3647481274334
112.9 151.0035 12.2883481395996
112.95 131.2799 11.4577441060621
113 137.2412 11.7149989329918
113.05 123.2897 11.1035895097036
113.1 122.1296 11.0512261763118
113.15 146.0652 12.0857436676441
113.2 141.3357 11.888469203392
113.25 130.9175 11.4419185454189
113.3 140.45 11.8511602807489
113.35 142.3433 11.9307711402072
113.4 124.249 11.1467035485833
113.45 116.7017 10.8028561038274
113.5 138.8247 11.7823894011359
113.55 132.9529 11.5305203698706
113.6 135.4557 11.6385437233358
113.65 142.6206 11.9423866961341
113.7 158.5126 12.5901787119961
113.75 112.0358 10.5846965001364
113.8 130.4441 11.4212127201974
113.85 136.6122 11.6881221759528
113.9 135.7354 11.6505536349137
113.95 136.7683 11.6947979888496
114 147.7751 12.1562782133349
114.05 139.2889 11.8020718520097
114.1 154.9107 12.4463127069827
114.15 140.6101 11.8579129698274
114.2 141.4837 11.8946920935348
114.25 150.022 12.2483468272253
114.3 142.7886 11.9494183958886
114.35 137.1653 11.7117590480679
114.4 152.4032 12.3451690956422
114.45 151.1539 12.2944662348554
114.5 153.2881 12.3809571520137
114.55 139.6115 11.8157310395929
114.6 163.0782 12.7702075159333
114.65 178.0258 13.3426309249713
114.7 148.6008 12.1901927794436
114.75 172.432 13.1313365656357
114.8 158.8002 12.6015951371245
114.85 175.1116 13.232973966573
114.9 172.0686 13.1174921383624
114.95 159.1107 12.6139089896828
115 160.8828 12.6839583726848
115.05 188.1017 13.7150173167955
115.1 195.1333 13.9690121340058
115.15 203.1488 14.2530277485172
115.2 215.5443 14.6814270423552
115.25 216.4014 14.7105880235972
115.3 206.6615 14.37572606862
115.35 188.0517 13.7131943762203
115.4 209.2919 14.4669243448634
115.45 235.5022 15.3460809329288
115.5 235.7091 15.3528205877617
115.55 212.8104 14.5880224842163
115.6 250.6784 15.8328266585597
115.65 259.0572 16.0952539588538
115.7 256.1037 16.0032402968899
115.75 280.4386 16.74630108412
115.8 267.7306 16.3624753628539
115.85 270.3985 16.4437982230384
115.9 210.8144 14.5194490253591
115.95 200.2958 14.1525898689957
116 199.8515 14.1368843809377
116.05 177.6802 13.3296736644225
116.1 172.6031 13.137849900193
116.15 166.998 12.9227706007651
116.2 156.7071 12.5182706473378
116.25 172.3941 13.1298933735198
116.3 158.0138 12.5703540125169
116.35 179.6355 13.4028168681065
116.4 160.1339 12.6544023960043
116.45 149.813 12.2398120900609
116.5 151.7053 12.3168705440952
116.55 136.5799 11.6867403496441
116.6 171.9732 13.1138552683793
116.65 143.8294 11.9928895600685
116.7 135.1778 11.6265988147867
116.75 174.5944 13.2134174232104
116.8 152.4868 12.3485545712849
116.85 142.01 11.9167948711052
116.9 152.1624 12.3354124373691
116.95 133.5963 11.5583865656068
117 133.8061 11.5674586664487
117.05 146.8784 12.1193399160185
117.1 154.7259 12.4388866061236
117.15 162.6707 12.7542424314422
117.2 118.6487 10.8925984044212
117.25 130.6064 11.4283157114248
117.3 131.7549 11.4784537286169
117.35 152.1705 12.3357407560308
117.4 118.5711 10.8890357699844
117.45 143.9866 11.9994416536771
117.5 145.3334 12.0554303116894
117.55 133.0984 11.5368279869295
117.6 105.5571 10.2740985005985
117.65 134.6971 11.6059079782669
117.7 140.3927 11.8487425493172
117.75 148.5422 12.1877889709332
117.8 132.9423 11.5300607110284
117.85 132.2123 11.4983607527334
117.9 136.0276 11.6630870698971
117.95 136.2159 11.6711567550093
118 142.9614 11.9566466870942
118.05 117.5304 10.8411438510888
118.1 151.6759 12.3156770012858
118.15 150.01 12.2478569554024
118.2 125.3001 11.1937527219427
118.25 134.0886 11.5796632075376
118.3 142.7905 11.9494978974014
118.35 150.7534 12.2781676157316
118.4 125.8491 11.2182485263966
118.45 131.3007 11.4586517531514
118.5 165.7756 12.8753873728133
118.55 141.3737 11.8900672832411
118.6 123.1808 11.0986846067451
118.65 108.6419 10.4231425203726
118.7 112.5383 10.6084070434726
118.75 137.7334 11.7359873892229
118.8 135.3444 11.6337612146717
118.85 158.2413 12.5793998267008
118.9 129.4554 11.3778468964914
118.95 124.3553 11.151470755017
119 144.1744 12.0072644678128
119.05 141.1025 11.8786573315337
119.1 132.9711 11.5313095526918
119.15 133.6804 11.562024044258
119.2 150.9652 12.2867896539332
119.25 126.0059 11.2252349641333
119.3 126.6544 11.2540837032608
119.35 130.072 11.4049112228022
119.4 135.6662 11.6475834403536
119.45 115.25 10.7354552767919
119.5 128.1268 11.3193109330913
119.55 136.9547 11.7027646306332
119.6 126.0609 11.2276845342216
119.65 127.4076 11.2874975083054
119.7 133.1968 11.5410918027715
119.75 153.1645 12.3759646088699
119.8 147.5199 12.1457770438947
119.85 157.5599 12.5522866442732
119.9 151.7517 12.3187539954331
119.95 120.7431 10.9883165225616
120 116.985 10.8159604289217
120.05 118.117 10.8681645184456
120.1 146.0072 12.0833439080413
120.15 133.0161 11.5332605970731
120.2 125.3448 11.1957491933323
120.25 128.8998 11.3534047756609
120.3 129.751 11.3908296449381
120.35 125.0159 11.1810509345052
120.4 138.9364 11.7871285731513
120.45 141.7763 11.9069853447462
120.5 106.8609 10.3373545938988
120.55 118.38 10.8802573498976
120.6 128.7951 11.3487928873515
120.65 131.147 11.4519430665717
120.7 124.7792 11.1704610468861
120.75 143.2552 11.9689264347309
120.8 130.1905 11.410105170418
120.85 120.652 10.9841704283938
120.9 144.5359 12.0223084305802
120.95 147.6119 12.1495637781774
121 153.194 12.3771563777792
121.05 126.0817 11.22861077783
121.1 128.014 11.3143272005011
121.15 131.7684 11.4790417718553
121.2 165.7616 12.8748436883715
121.25 122.4711 11.0666661646586
121.3 145.1561 12.048074534962
121.35 127.4949 11.291363956582
121.4 107.2375 10.3555540653313
121.45 133.4589 11.5524413004352
121.5 132.1658 11.496338547555
121.55 128.1069 11.3184318701841
121.6 137.1962 11.7130781607569
121.65 125.72 11.2124930323278
121.7 116.3984 10.7888090167544
121.75 126.5622 11.2499866666588
121.8 137.1629 11.7116565864954
121.85 139.2578 11.8007542131849
121.9 136.4694 11.6820118130397
121.95 129.7847 11.3923088090167
122 124.3756 11.1523809117157
122.05 136.5839 11.686911482509
122.1 102.6807 10.133148572877
122.15 130.6876 11.431867738913
122.2 137.3701 11.720499136129
122.25 143.5415 11.9808806020259
122.3 128.1903 11.3221155267026
122.35 108.5667 10.4195345385483
122.4 149.1279 12.2117934800749
122.45 132.8512 11.5261094910642
122.5 127.0948 11.2736329548198
122.55 134.247 11.5865007659776
122.6 120.167 10.9620709722205
122.65 144.7362 12.0306358934181
122.7 148.4658 12.1846542831547
122.75 106.9087 10.3396663389106
122.8 134.0483 11.5779229570765
122.85 116.895 10.8117991102314
122.9 116.5749 10.7969856904601
122.95 137.5417 11.7278173587416
123 118.2262 10.873187205231
123.05 123.676 11.1209711806119
123.1 124.5864 11.1618278073083
123.15 141.7949 11.9077663732541
123.2 142.8625 11.9525101966072
123.25 131.4439 11.464898604
123.3 127.1638 11.2766927775833
123.35 135.2727 11.6306792578938
123.4 140.8069 11.8662083244818
123.45 128.6504 11.3424159683905
123.5 132.5459 11.5128580291776
123.55 115.9925 10.7699814298819
123.6 111.6726 10.567525727435
123.65 157.4748 12.5488963658164
123.7 131.9655 11.4876237751765
123.75 108.0615 10.3952633444276
123.8 130.2988 11.4148499771131
123.85 132.567 11.5137743594357
123.9 146.9281 12.1213901842982
123.95 138.7846 11.7806875860452
124 145.7052 12.0708408986284
124.05 111.797 10.5734100459596
124.1 118.3649 10.879563410358
124.15 143.6303 11.9845859336066
124.2 131.2284 11.4554964973152
124.25 131.3191 11.4594546118042
124.3 137.6298 11.7315727845843
124.35 125.4705 11.2013615243862
124.4 109.9032 10.4834727070756
124.45 131.9485 11.4868838246062
124.5 123.9141 11.131671033587
124.55 123.8445 11.1285443792079
124.6 115.5609 10.7499255811378
124.65 123.2158 11.1002612581867
124.7 111.904 10.5784686982569
124.75 153.7667 12.4002701583474
124.8 127.3365 11.2843475664302
124.85 139.5537 11.8132848945583
124.9 144.0276 12.0011499449011
124.95 121.6286 11.0285357142279
125 125.2453 11.1913046603155
125.05 128.8873 11.3528542666591
125.1 125.0348 11.1818960825077
125.15 135.0732 11.6220996381893
125.2 134.191 11.5840839085359
125.25 135.1187 11.6240569509961
125.3 119.6042 10.936370513109
125.35 119.997 10.9543142186081
125.4 144.0873 12.0036369488585
125.45 129.8966 11.3972189590268
125.5 138.7495 11.7791977655526
125.55 154.6972 12.437732912392
125.6 135.4875 11.6399097934649
125.65 107.511 10.3687511301989
125.7 137.0843 11.7083004744497
125.75 128.2476 11.3246456898218
125.8 122.438 11.0651705816042
125.85 126.5182 11.248030938791
125.9 161.9998 12.7279142046134
125.95 140.8762 11.8691280218894
126 127.5088 11.2919794544624
126.05 140.9202 11.8709814253077
126.1 117.7738 10.8523637978092
126.15 141.6932 11.9034952849993
126.2 130.3903 11.418857210772
126.25 140.5533 11.8555177027408
126.3 95.1566 9.75482444742088
126.35 130.077 11.4051304245063
126.4 122.7067 11.0773056290779
126.45 125.7086 11.2119846592831
126.5 142.7659 11.9484685211118
126.55 119.5552 10.9341300522721
126.6 129.7805 11.3921244726346
126.65 137.9218 11.7440112397766
126.7 140.0833 11.8356791102159
126.75 139.4962 11.8108509430947
126.8 120.4593 10.9753952092852
126.85 128.7336 11.3460830245508
126.9 121.4236 11.0192377231821
126.95 153.6975 12.3974795825603
127 125.9155 11.2212075998976
127.05 108.1895 10.4014181725378
127.1 121.2058 11.009350571219
127.15 141.1675 11.8813930159725
127.2 118.6664 10.8934108524374
127.25 144.4462 12.0185772868506
127.3 146.1255 12.0882380850147
127.35 155.6838 12.4773314454654
127.4 121.7232 11.032823754597
127.45 106.971 10.342678569887
127.5 136.6288 11.688832277007
127.55 123.5826 11.1167711139521
127.6 131.8514 11.4826564870678
127.65 126.8207 11.2614697087014
127.7 126.0364 11.2265934281063
127.75 141.1896 11.882323005204
127.8 143.8294 11.9928895600685
127.85 141.2513 11.8849190152899
127.9 114.5686 10.7036722670306
127.95 135.755 11.651394766293
128 140.0644 11.8348806500108
128.05 139.4773 11.8100508042938
128.1 122.8045 11.0817191807048
128.15 120.934 10.9969995907975
128.2 129.862 11.395700943777
128.25 138.8495 11.7834417722497
128.3 133.9008 11.5715513221002
128.35 146.613 12.1083855240903
128.4 136.942 11.702222011225
128.45 119.4933 10.9312990993752
128.5 158.8648 12.6041580440742
128.55 113.5889 10.6578093433876
128.6 127.5249 11.2926923273416
128.65 143.0849 11.9618100636986
128.7 136.2909 11.6743693619827
128.75 149.9621 12.2459013551474
128.8 126.0692 11.2280541502079
128.85 126.1401 11.2312109765599
128.9 130.5452 11.4256378377752
128.95 137.6257 11.7313980411543
129 151.2792 12.2995609677744
129.05 120.4913 10.9768529187559
129.1 123.4338 11.1100765073873
129.15 131.6382 11.4733691651581
129.2 139.8373 11.8252822376466
129.25 118.4756 10.8846497417234
129.3 147.9755 12.1645180751232
129.35 122.299 11.0588878283487
129.4 142.3539 11.9312153613955
129.45 135.7727 11.6521543072515
129.5 111.338 10.5516823303206
129.55 128.2537 11.3249150107186
129.6 141.0348 11.8758073409769
129.65 130.7334 11.4338707356695
129.7 125.0153 11.1810241033637
129.75 130.5395 11.425388396024
129.8 139.2862 11.8019574647598
129.85 128.4629 11.334147519774
129.9 141.6617 11.9021720706768
129.95 118.272 10.8752930994985
130 121.8312 11.0377171552817
130 121.8312 11.0377171552817
