
#Surface 0 of 1 surfaces

#IsoCurve 0, 1801 points
#x y z type
 40  154.645  181.435 i
 40.05  160.046  181.295 i
 40.1  155.925  181.155 i
 40.15  182.16  181.015 i
 40.2  167.123  180.875 i
 40.25  190.707  180.735 i
 40.3  166.193  180.594 i
 40.35  187.989  180.454 i
 40.4  182.778  180.314 i
 40.45  184.839  180.173 i
 40.5  196.45  180.033 i
 40.55  203.181  179.892 i
 40.6  161.02  179.752 i
 40.65  154.809  179.611 i
 40.7  165.742  179.471 i
 40.75  167.974  179.33 i
 40.8  180.293  179.189 i
 40.85  186.602  179.049 i
 40.9  163.216  178.908 i
 40.95  171.588  178.767 i
 41  170.302  178.626 i
 41.05  174.593  178.486 i
 41.1  175.125  178.345 i
 41.15  190.341  178.204 i
 41.2  193.645  178.063 i
 41.25  154.21  177.922 i
 41.3  196.497  177.782 i
 41.35  162.853  177.641 i
 41.4  184.616  177.5 i
 41.45  200.889  177.359 i
 41.5  205.555  177.218 i
 41.55  169.697  177.078 i
 41.6  166.223  176.937 i
 41.65  157.41  176.796 i
 41.7  145.054  176.655 i
 41.75  188.595  176.514 i
 41.8  202.155  176.374 i
 41.85  183.474  176.233 i
 41.9  163.211  176.092 i
 41.95  174.574  175.951 i
 42  176.374  175.811 i
 42.05  184.154  175.67 i
 42.1  185.928  175.529 i
 42.15  168.428  175.389 i
 42.2  161.387  175.248 i
 42.25  173.377  175.108 i
 42.3  170.469  174.967 i
 42.35  192.151  174.827 i
 42.4  193.416  174.686 i
 42.45  189.152  174.546 i
 42.5  177.815  174.406 i
 42.55  180.992  174.265 i
 42.6  166.634  174.125 i
 42.65  184.686  173.985 i
 42.7  184.306  173.845 i
 42.75  175.201  173.705 i
 42.8  197.514  173.565 i
 42.85  174.246  173.425 i
 42.9  150.995  173.285 i
 42.95  180.281  173.145 i
 43  190.444  173.005 i
 43.05  187.615  172.865 i
 43.1  196.794  172.726 i
 43.15  184.055  172.586 i
 43.2  211.195  172.446 i
 43.25  201.238  172.307 i
 43.3  216.036  172.168 i
 43.35  210.025  172.028 i
 43.4  200.555  171.889 i
 43.45  240.819  171.75 i
 43.5  201.208  171.611 i
 43.55  199.209  171.472 i
 43.6  226.276  171.333 i
 43.65  225.213  171.194 i
 43.7  231.504  171.056 i
 43.75  192.415  170.917 i
 43.8  236.631  170.779 i
 43.85  217.608  170.64 i
 43.9  233.704  170.502 i
 43.95  276.652  170.364 i
 44  324.788  170.226 i
 44.05  396.081  170.088 i
 44.1  380.071  169.95 i
 44.15  530.599  169.812 i
 44.2  646.717  169.674 i
 44.25  826.23  169.537 i
 44.3  1249.16  169.399 i
 44.35  1932.44  169.262 i
 44.4  2948.6  169.125 i
 44.45  4458.33  168.988 i
 44.5  5663.88  168.851 i
 44.55  5861.82  168.714 i
 44.6  4549.9  168.578 i
 44.65  2647.93  168.441 i
 44.7  1455.64  168.305 i
 44.75  871.229  168.168 i
 44.8  574.759  168.032 i
 44.85  459.432  167.896 i
 44.9  340.382  167.76 i
 44.95  322.209  167.625 i
 45  272.842  167.489 i
 45.05  213.539  167.354 i
 45.1  212.152  167.219 i
 45.15  172.891  167.083 i
 45.2  195.208  166.948 i
 45.25  191.867  166.814 i
 45.3  183.495  166.679 i
 45.35  193.594  166.545 i
 45.4  196.327  166.41 i
 45.45  176.412  166.276 i
 45.5  174.657  166.142 i
 45.55  182.325  166.008 i
 45.6  172.195  165.875 i
 45.65  178.456  165.741 i
 45.7  172.579  165.608 i
 45.75  166.016  165.475 i
 45.8  176.079  165.342 i
 45.85  159.284  165.209 i
 45.9  161.131  165.077 i
 45.95  179.75  164.944 i
 46  148.12  164.812 i
 46.05  177.722  164.68 i
 46.1  152.182  164.548 i
 46.15  163.504  164.417 i
 46.2  176.104  164.285 i
 46.25  164.283  164.154 i
 46.3  169.63  164.023 i
 46.35  144.033  163.892 i
 46.4  177.661  163.762 i
 46.45  165.735  163.631 i
 46.5  156.939  163.501 i
 46.55  136.717  163.371 i
 46.6  156.981  163.241 i
 46.65  176.639  163.112 i
 46.7  179.261  162.982 i
 46.75  167.697  162.853 i
 46.8  156.378  162.724 i
 46.85  153.629  162.596 i
 46.9  149.374  162.467 i
 46.95  160.999  162.339 i
 47  153.58  162.211 i
 47.05  159.604  162.083 i
 47.1  161.78  161.956 i
 47.15  154.59  161.828 i
 47.2  125.915  161.701 i
 47.25  168.862  161.574 i
 47.3  189.413  161.448 i
 47.35  185.886  161.321 i
 47.4  153.295  161.195 i
 47.45  166.233  161.07 i
 47.5  164.029  160.944 i
 47.55  136.24  160.819 i
 47.6  164.497  160.694 i
 47.65  158.5  160.569 i
 47.7  147.811  160.444 i
 47.75  172.456  160.32 i
 47.8  141.321  160.196 i
 47.85  139.498  160.072 i
 47.9  159.368  159.948 i
 47.95  165.795  159.825 i
 48  176.86  159.702 i
 48.05  156.003  159.579 i
 48.1  142.004  159.457 i
 48.15  158.826  159.335 i
 48.2  190.028  159.213 i
 48.25  142.761  159.091 i
 48.3  190.83  158.97 i
 48.35  164.602  158.849 i
 48.4  156.463  158.728 i
 48.45  150.83  158.608 i
 48.5  171.583  158.488 i
 48.55  158.125  158.368 i
 48.6  129.461  158.248 i
 48.65  130.64  158.129 i
 48.7  179.525  158.01 i
 48.75  175.335  157.891 i
 48.8  139.09  157.773 i
 48.85  159.508  157.655 i
 48.9  143.38  157.537 i
 48.95  141.091  157.419 i
 49  144.225  157.302 i
 49.05  158.648  157.185 i
 49.1  172.9  157.069 i
 49.15  147.739  156.953 i
 49.2  138.144  156.837 i
 49.25  156.41  156.721 i
 49.3  144.108  156.606 i
 49.35  150.429  156.491 i
 49.4  182.963  156.376 i
 49.45  163.824  156.262 i
 49.5  160.342  156.148 i
 49.55  130.799  156.035 i
 49.6  168.523  155.921 i
 49.65  154.24  155.809 i
 49.7  158.713  155.696 i
 49.75  175.642  155.584 i
 49.8  154.545  155.472 i
 49.85  168.213  155.36 i
 49.9  167.939  155.249 i
 49.95  156.21  155.138 i
 50  154.179  155.028 i
 50.05  151.736  154.918 i
 50.1  174.065  154.808 i
 50.15  143.303  154.698 i
 50.2  138.239  154.589 i
 50.25  167.627  154.481 i
 50.3  171.167  154.372 i
 50.35  150.419  154.264 i
 50.4  149.472  154.157 i
 50.45  172.504  154.05 i
 50.5  153.595  153.943 i
 50.55  144.262  153.836 i
 50.6  158.152  153.73 i
 50.65  164.444  153.624 i
 50.7  163.752  153.519 i
 50.75  148.354  153.414 i
 50.8  166.634  153.31 i
 50.85  155.833  153.205 i
 50.9  174.727  153.102 i
 50.95  164.434  152.998 i
 51  141.173  152.895 i
 51.05  148.375  152.793 i
 51.1  131.372  152.69 i
 51.15  156.188  152.589 i
 51.2  150.339  152.487 i
 51.25  154.816  152.386 i
 51.3  145.467  152.285 i
 51.35  129.698  152.185 i
 51.4  141.791  152.086 i
 51.45  154.61  151.986 i
 51.5  158.17  151.887 i
 51.55  145.678  151.789 i
 51.6  147.723  151.691 i
 51.65  154.735  151.593 i
 51.7  146.803  151.496 i
 51.75  142.205  151.399 i
 51.8  147.645  151.302 i
 51.85  148.085  151.206 i
 51.9  141.292  151.111 i
 51.95  158.302  151.016 i
 52  166.483  150.921 i
 52.05  147.783  150.827 i
 52.1  140.942  150.733 i
 52.15  162.488  150.639 i
 52.2  148.469  150.547 i
 52.25  172.846  150.454 i
 52.3  152.53  150.362 i
 52.35  150.206  150.27 i
 52.4  154  150.179 i
 52.45  153.215  150.089 i
 52.5  152.407  149.998 i
 52.55  128.135  149.909 i
 52.6  130.972  149.819 i
 52.65  157.162  149.73 i
 52.7  140.894  149.642 i
 52.75  139.354  149.554 i
 52.8  154.677  149.467 i
 52.85  152.874  149.38 i
 52.9  149.533  149.293 i
 52.95  173.244  149.207 i
 53  167.483  149.122 i
 53.05  163.025  149.037 i
 53.1  166.024  148.952 i
 53.15  127.613  148.868 i
 53.2  160.269  148.784 i
 53.25  143.906  148.701 i
 53.3  141.712  148.618 i
 53.35  159.102  148.536 i
 53.4  144.137  148.455 i
 53.45  150.597  148.373 i
 53.5  160.266  148.293 i
 53.55  148.022  148.212 i
 53.6  142.658  148.133 i
 53.65  140.691  148.054 i
 53.7  171.338  147.975 i
 53.75  168.771  147.897 i
 53.8  156.949  147.819 i
 53.85  159.506  147.742 i
 53.9  147.52  147.665 i
 53.95  152.404  147.589 i
 54  140.387  147.514 i
 54.05  149.654  147.439 i
 54.1  153.862  147.364 i
 54.15  136.351  147.29 i
 54.2  155.765  147.216 i
 54.25  150.459  147.143 i
 54.3  143.15  147.071 i
 54.35  158.637  146.999 i
 54.4  167.853  146.928 i
 54.45  135.99  146.857 i
 54.5  147.605  146.787 i
 54.55  146.825  146.717 i
 54.6  133.914  146.648 i
 54.65  137.255  146.579 i
 54.7  145.943  146.511 i
 54.75  130.756  146.443 i
 54.8  157.768  146.376 i
 54.85  139.501  146.31 i
 54.9  150.48  146.244 i
 54.95  140.582  146.178 i
 55  142.525  146.114 i
 55.05  162.124  146.049 i
 55.1  145.503  145.986 i
 55.15  134.163  145.923 i
 55.2  141.378  145.86 i
 55.25  130.85  145.798 i
 55.3  154.971  145.737 i
 55.35  145.465  145.676 i
 55.4  162.067  145.615 i
 55.45  139.022  145.555 i
 55.5  151.976  145.496 i
 55.55  155.003  145.436 i
 55.6  163.69  145.378 i
 55.65  146.756  145.319 i
 55.7  136.404  145.261 i
 55.75  150.116  145.203 i
 55.8  146.248  145.146 i
 55.85  132.594  145.089 i
 55.9  157.92  145.033 i
 55.95  143.964  144.977 i
 56  146.45  144.921 i
 56.05  137.79  144.866 i
 56.1  145.363  144.811 i
 56.15  163.515  144.756 i
 56.2  165.154  144.702 i
 56.25  159.777  144.648 i
 56.3  124.925  144.595 i
 56.35  143.573  144.542 i
 56.4  149.685  144.489 i
 56.45  141.643  144.437 i
 56.5  142.574  144.385 i
 56.55  135.476  144.333 i
 56.6  157.623  144.282 i
 56.65  129.184  144.231 i
 56.7  171.258  144.181 i
 56.75  155.496  144.13 i
 56.8  137.025  144.081 i
 56.85  133.557  144.031 i
 56.9  137.702  143.982 i
 56.95  155.109  143.934 i
 57  146.212  143.885 i
 57.05  141.38  143.837 i
 57.1  152.76  143.79 i
 57.15  151.461  143.742 i
 57.2  149.886  143.695 i
 57.25  167.165  143.649 i
 57.3  145.124  143.603 i
 57.35  154.615  143.557 i
 57.4  172.079  143.511 i
 57.45  152.976  143.466 i
 57.5  132.32  143.421 i
 57.55  144.005  143.376 i
 57.6  156.042  143.332 i
 57.65  137.234  143.288 i
 57.7  144.924  143.245 i
 57.75  147.158  143.202 i
 57.8  147.7  143.159 i
 57.85  152.202  143.116 i
 57.9  125.961  143.074 i
 57.95  143.236  143.032 i
 58  170.506  142.99 i
 58.05  159.792  142.949 i
 58.1  152.579  142.908 i
 58.15  148.595  142.868 i
 58.2  140.141  142.827 i
 58.25  136.211  142.787 i
 58.3  145.96  142.748 i
 58.35  138.224  142.708 i
 58.4  162.359  142.669 i
 58.45  135.877  142.631 i
 58.5  151.355  142.592 i
 58.55  138.537  142.554 i
 58.6  122.776  142.516 i
 58.65  132.864  142.479 i
 58.7  153.136  142.442 i
 58.75  144.008  142.405 i
 58.8  136.867  142.368 i
 58.85  148.078  142.332 i
 58.9  122.426  142.296 i
 58.95  157.477  142.26 i
 59  141.632  142.225 i
 59.05  128.993  142.19 i
 59.1  158.085  142.155 i
 59.15  149.362  142.12 i
 59.2  132.947  142.086 i
 59.25  124.011  142.052 i
 59.3  146.155  142.018 i
 59.35  151.201  141.985 i
 59.4  141.966  141.952 i
 59.45  142.117  141.919 i
 59.5  165.256  141.887 i
 59.55  132.052  141.854 i
 59.6  133.193  141.822 i
 59.65  149.771  141.791 i
 59.7  146.748  141.759 i
 59.75  157.744  141.728 i
 59.8  151.312  141.697 i
 59.85  153.163  141.666 i
 59.9  133.8  141.636 i
 59.95  155.1  141.606 i
 60  153.297  141.576 i
 60.05  154.725  141.546 i
 60.1  145.74  141.517 i
 60.15  140.177  141.488 i
 60.2  138.161  141.459 i
 60.25  127.122  141.431 i
 60.3  142.869  141.402 i
 60.35  158.978  141.374 i
 60.4  130.772  141.347 i
 60.45  146.013  141.319 i
 60.5  118.207  141.292 i
 60.55  143.872  141.265 i
 60.6  132.641  141.238 i
 60.65  145.076  141.211 i
 60.7  140.183  141.185 i
 60.75  127.136  141.159 i
 60.8  113.829  141.133 i
 60.85  157.775  141.108 i
 60.9  130.931  141.082 i
 60.95  137.998  141.057 i
 61  156.828  141.032 i
 61.05  133.739  141.008 i
 61.1  135.585  140.983 i
 61.15  120.893  140.959 i
 61.2  139.841  140.935 i
 61.25  158.048  140.911 i
 61.3  162.613  140.888 i
 61.35  157.123  140.865 i
 61.4  150.305  140.842 i
 61.45  150.486  140.819 i
 61.5  112.96  140.796 i
 61.55  158.076  140.774 i
 61.6  130.155  140.752 i
 61.65  138.988  140.73 i
 61.7  150.395  140.708 i
 61.75  160.518  140.686 i
 61.8  147.674  140.665 i
 61.85  150.737  140.644 i
 61.9  146.483  140.623 i
 61.95  137.011  140.602 i
 62  129.409  140.582 i
 62.05  124.843  140.561 i
 62.1  141.238  140.541 i
 62.15  134.779  140.521 i
 62.2  148.232  140.502 i
 62.25  147.55  140.482 i
 62.3  151.254  140.463 i
 62.35  120.734  140.444 i
 62.4  119.74  140.425 i
 62.45  122.499  140.406 i
 62.5  142.347  140.387 i
 62.55  136.059  140.369 i
 62.6  147.179  140.351 i
 62.65  139.2  140.333 i
 62.7  134.085  140.315 i
 62.75  130.394  140.297 i
 62.8  135.938  140.28 i
 62.85  150.359  140.263 i
 62.9  134.19  140.245 i
 62.95  146.48  140.229 i
 63  145.593  140.212 i
 63.05  134.049  140.195 i
 63.1  142.501  140.179 i
 63.15  144.749  140.163 i
 63.2  132.906  140.146 i
 63.25  140.395  140.131 i
 63.3  141.22  140.115 i
 63.35  141.622  140.099 i
 63.4  132.745  140.084 i
 63.45  147.916  140.069 i
 63.5  151.829  140.053 i
 63.55  147.064  140.039 i
 63.6  125.399  140.024 i
 63.65  161.233  140.009 i
 63.7  153.555  139.995 i
 63.75  137.597  139.98 i
 63.8  123.499  139.966 i
 63.85  139.721  139.952 i
 63.9  160.843  139.938 i
 63.95  151.88  139.924 i
 64  138.81  139.911 i
 64.05  176.476  139.897 i
 64.1  171.974  139.884 i
 64.15  182.75  139.871 i
 64.2  166.959  139.858 i
 64.25  203.495  139.845 i
 64.3  209.405  139.832 i
 64.35  199.255  139.82 i
 64.4  218.58  139.807 i
 64.45  230.215  139.795 i
 64.5  261.536  139.782 i
 64.55  309.8  139.77 i
 64.6  320.648  139.758 i
 64.65  330.511  139.746 i
 64.7  341.421  139.735 i
 64.75  367.245  139.723 i
 64.8  278.523  139.712 i
 64.85  268.486  139.7 i
 64.9  232.231  139.689 i
 64.95  212.512  139.678 i
 65  218.809  139.667 i
 65.05  200.301  139.656 i
 65.1  163.765  139.645 i
 65.15  159.721  139.634 i
 65.2  159.318  139.624 i
 65.25  164.889  139.613 i
 65.3  163.988  139.603 i
 65.35  168.203  139.593 i
 65.4  142.514  139.582 i
 65.45  139.278  139.572 i
 65.5  130.196  139.562 i
 65.55  142.05  139.552 i
 65.6  131.958  139.543 i
 65.65  152.535  139.533 i
 65.7  151.27  139.523 i
 65.75  153.181  139.514 i
 65.8  141.261  139.504 i
 65.85  154.007  139.495 i
 65.9  121.788  139.486 i
 65.95  139.191  139.477 i
 66  137.541  139.468 i
 66.05  135.601  139.459 i
 66.1  135.443  139.45 i
 66.15  150.471  139.441 i
 66.2  124.43  139.432 i
 66.25  132.905  139.423 i
 66.3  148.197  139.415 i
 66.35  124.944  139.406 i
 66.4  146.006  139.398 i
 66.45  132.958  139.389 i
 66.5  158.006  139.381 i
 66.55  144.465  139.373 i
 66.6  133.469  139.364 i
 66.65  126.189  139.356 i
 66.7  127.496  139.348 i
 66.75  140.725  139.34 i
 66.8  151.493  139.332 i
 66.85  124.967  139.324 i
 66.9  137.204  139.317 i
 66.95  129.905  139.309 i
 67  148.42  139.301 i
 67.05  164.378  139.293 i
 67.1  138.886  139.286 i
 67.15  148.505  139.278 i
 67.2  134.603  139.271 i
 67.25  136.177  139.263 i
 67.3  139.178  139.256 i
 67.35  152.315  139.248 i
 67.4  139.718  139.241 i
 67.45  140.207  139.234 i
 67.5  156.145  139.226 i
 67.55  133.49  139.219 i
 67.6  143.387  139.212 i
 67.65  146.698  139.205 i
 67.7  127.207  139.198 i
 67.75  135.618  139.19 i
 67.8  135.181  139.183 i
 67.85  129.529  139.176 i
 67.9  97.7016  139.169 i
 67.95  142.74  139.162 i
 68  142.417  139.155 i
 68.05  144.525  139.148 i
 68.1  125.233  139.141 i
 68.15  134.321  139.135 i
 68.2  137.131  139.128 i
 68.25  138.864  139.121 i
 68.3  140.009  139.114 i
 68.35  149.248  139.107 i
 68.4  152.433  139.1 i
 68.45  134.782  139.093 i
 68.5  125.763  139.087 i
 68.55  145.072  139.08 i
 68.6  135.7  139.073 i
 68.65  153.486  139.066 i
 68.7  142.428  139.059 i
 68.75  137.416  139.052 i
 68.8  143.082  139.046 i
 68.85  148.769  139.039 i
 68.9  134.889  139.032 i
 68.95  154.422  139.025 i
 69  155.342  139.018 i
 69.05  135.756  139.012 i
 69.1  119.993  139.005 i
 69.15  151.411  138.998 i
 69.2  137.353  138.991 i
 69.25  125.928  138.984 i
 69.3  160.657  138.977 i
 69.35  162.679  138.97 i
 69.4  131.776  138.963 i
 69.45  144.246  138.956 i
 69.5  128.073  138.949 i
 69.55  136.645  138.942 i
 69.6  152.485  138.935 i
 69.65  135.193  138.928 i
 69.7  119.401  138.921 i
 69.75  123.267  138.914 i
 69.8  132.083  138.907 i
 69.85  160.735  138.9 i
 69.9  141.453  138.893 i
 69.95  128.522  138.885 i
 70  130.772  138.878 i
 70.05  148.951  138.871 i
 70.1  140.181  138.863 i
 70.15  152.206  138.856 i
 70.2  144.276  138.849 i
 70.25  137.333  138.841 i
 70.3  152.897  138.834 i
 70.35  145.098  138.826 i
 70.4  120.94  138.818 i
 70.45  113.303  138.811 i
 70.5  141.813  138.803 i
 70.55  143.817  138.795 i
 70.6  136.596  138.787 i
 70.65  137.836  138.779 i
 70.7  151.616  138.772 i
 70.75  142.02  138.764 i
 70.8  150.198  138.755 i
 70.85  152.441  138.747 i
 70.9  164.566  138.739 i
 70.95  138.202  138.731 i
 71  128.648  138.723 i
 71.05  139.184  138.714 i
 71.1  122.133  138.706 i
 71.15  141.234  138.697 i
 71.2  143.619  138.689 i
 71.25  145.084  138.68 i
 71.3  136.647  138.671 i
 71.35  150.327  138.662 i
 71.4  140.64  138.653 i
 71.45  139.695  138.644 i
 71.5  154.661  138.635 i
 71.55  148.881  138.626 i
 71.6  131.287  138.617 i
 71.65  130.726  138.607 i
 71.7  152.124  138.598 i
 71.75  138.65  138.589 i
 71.8  162.199  138.579 i
 71.85  157.138  138.569 i
 71.9  148.392  138.559 i
 71.95  127.696  138.55 i
 72  125.338  138.54 i
 72.05  140.893  138.53 i
 72.1  132.257  138.519 i
 72.15  131.674  138.509 i
 72.2  127.774  138.499 i
 72.25  150.537  138.488 i
 72.3  139.334  138.478 i
 72.35  127.554  138.467 i
 72.4  134.909  138.456 i
 72.45  146.101  138.445 i
 72.5  126.109  138.434 i
 72.55  137.74  138.423 i
 72.6  122.008  138.412 i
 72.65  125.361  138.4 i
 72.7  146.974  138.389 i
 72.75  136.231  138.377 i
 72.8  133.045  138.365 i
 72.85  126.665  138.354 i
 72.9  124.41  138.342 i
 72.95  123.174  138.329 i
 73  125.042  138.317 i
 73.05  141.243  138.305 i
 73.1  145.32  138.292 i
 73.15  138.222  138.28 i
 73.2  145.946  138.267 i
 73.25  142.395  138.254 i
 73.3  139.376  138.241 i
 73.35  140.755  138.228 i
 73.4  118.31  138.215 i
 73.45  115.304  138.201 i
 73.5  148.694  138.188 i
 73.55  143.523  138.174 i
 73.6  121.342  138.16 i
 73.65  132.283  138.146 i
 73.7  143.687  138.132 i
 73.75  129.119  138.117 i
 73.8  153.749  138.103 i
 73.85  154.707  138.088 i
 73.9  122.882  138.074 i
 73.95  147.998  138.06 i
 74  151.77  138.045 i
 74.05  145.276  138.031 i
 74.1  128.069  138.017 i
 74.15  148.283  138.003 i
 74.2  133.82  137.989 i
 74.25  144.548  137.976 i
 74.3  157.02  137.962 i
 74.35  137.326  137.949 i
 74.4  146.524  137.935 i
 74.45  145.119  137.922 i
 74.5  144.071  137.909 i
 74.55  156.316  137.896 i
 74.6  160.839  137.883 i
 74.65  150.397  137.87 i
 74.7  130.723  137.857 i
 74.75  114.394  137.844 i
 74.8  169.68  137.832 i
 74.85  128.572  137.819 i
 74.9  124.218  137.807 i
 74.95  150.256  137.794 i
 75  135.018  137.782 i
 75.05  136.534  137.77 i
 75.1  137.377  137.758 i
 75.15  143.491  137.746 i
 75.2  149.066  137.734 i
 75.25  143.691  137.722 i
 75.3  146.344  137.71 i
 75.35  131.727  137.699 i
 75.4  124.648  137.687 i
 75.45  147.504  137.676 i
 75.5  131.948  137.665 i
 75.55  145.797  137.653 i
 75.6  139.882  137.642 i
 75.65  141.99  137.631 i
 75.7  122.517  137.62 i
 75.75  156.167  137.609 i
 75.8  151.375  137.598 i
 75.85  147.213  137.588 i
 75.9  140.707  137.577 i
 75.95  134.532  137.566 i
 76  126.469  137.556 i
 76.05  125.997  137.545 i
 76.1  156.654  137.535 i
 76.15  143.49  137.525 i
 76.2  114.369  137.515 i
 76.25  142.486  137.505 i
 76.3  136.388  137.495 i
 76.35  117.347  137.485 i
 76.4  135.539  137.475 i
 76.45  134.443  137.465 i
 76.5  126.522  137.455 i
 76.55  120.107  137.446 i
 76.6  120.577  137.436 i
 76.65  145.668  137.427 i
 76.7  123.432  137.417 i
 76.75  132.025  137.408 i
 76.8  134.459  137.399 i
 76.85  136.558  137.389 i
 76.9  126.628  137.38 i
 76.95  148.23  137.371 i
 77  129.345  137.362 i
 77.05  148.875  137.353 i
 77.1  144.057  137.344 i
 77.15  140.06  137.336 i
 77.2  146.295  137.327 i
 77.25  130.748  137.318 i
 77.3  142.253  137.31 i
 77.35  131.137  137.301 i
 77.4  120.042  137.293 i
 77.45  152.496  137.284 i
 77.5  136.643  137.276 i
 77.55  148.404  137.268 i
 77.6  121.943  137.259 i
 77.65  148.047  137.251 i
 77.7  115.623  137.243 i
 77.75  140.534  137.235 i
 77.8  129.334  137.227 i
 77.85  131.713  137.219 i
 77.9  146.788  137.212 i
 77.95  144.371  137.204 i
 78  135.67  137.196 i
 78.05  143.857  137.188 i
 78.1  140.317  137.181 i
 78.15  154.219  137.173 i
 78.2  128.744  137.166 i
 78.25  128.383  137.158 i
 78.3  145.207  137.151 i
 78.35  122.921  137.143 i
 78.4  130.352  137.136 i
 78.45  129.826  137.129 i
 78.5  137.429  137.122 i
 78.55  133.548  137.115 i
 78.6  133.643  137.108 i
 78.65  154.209  137.101 i
 78.7  138.4  137.094 i
 78.75  127.431  137.087 i
 78.8  139.47  137.08 i
 78.85  141.705  137.073 i
 78.9  110.55  137.066 i
 78.95  142.603  137.059 i
 79  146.145  137.053 i
 79.05  162.743  137.046 i
 79.1  149.293  137.039 i
 79.15  123.723  137.033 i
 79.2  117.914  137.026 i
 79.25  119.107  137.02 i
 79.3  133.226  137.013 i
 79.35  135.232  137.007 i
 79.4  145.457  137.001 i
 79.45  150.708  136.994 i
 79.5  137.431  136.988 i
 79.55  136.439  136.982 i
 79.6  148.586  136.975 i
 79.65  130.297  136.969 i
 79.7  140.438  136.963 i
 79.75  130.377  136.957 i
 79.8  157.99  136.951 i
 79.85  151.915  136.945 i
 79.9  143.558  136.939 i
 79.95  138.41  136.933 i
 80  147.226  136.927 i
 80.05  143.558  136.921 i
 80.1  140.665  136.915 i
 80.15  138.211  136.909 i
 80.2  138.018  136.904 i
 80.25  132.349  136.898 i
 80.3  140.629  136.892 i
 80.35  124.544  136.886 i
 80.4  127.06  136.881 i
 80.45  148.329  136.875 i
 80.5  138.324  136.869 i
 80.55  165.661  136.864 i
 80.6  150.972  136.858 i
 80.65  157.258  136.853 i
 80.7  139.545  136.847 i
 80.75  148.384  136.842 i
 80.8  151.801  136.836 i
 80.85  170.136  136.831 i
 80.9  134.685  136.825 i
 80.95  133.002  136.82 i
 81  147.03  136.815 i
 81.05  132.999  136.809 i
 81.1  141.742  136.804 i
 81.15  158.257  136.798 i
 81.2  174.393  136.793 i
 81.25  171.551  136.788 i
 81.3  166.513  136.783 i
 81.35  178.063  136.777 i
 81.4  179.3  136.772 i
 81.45  204.532  136.767 i
 81.5  206.215  136.762 i
 81.55  210.659  136.756 i
 81.6  269.855  136.751 i
 81.65  306.157  136.746 i
 81.7  351.092  136.741 i
 81.75  389.442  136.736 i
 81.8  460.077  136.731 i
 81.85  504.695  136.726 i
 81.9  598.328  136.72 i
 81.95  664.122  136.715 i
 82  711.266  136.71 i
 82.05  665.249  136.705 i
 82.1  605.131  136.7 i
 82.15  446.428  136.695 i
 82.2  387.762  136.69 i
 82.25  325.002  136.685 i
 82.3  315.375  136.68 i
 82.35  214.839  136.675 i
 82.4  227.852  136.67 i
 82.45  195.327  136.665 i
 82.5  198.93  136.66 i
 82.55  182.439  136.655 i
 82.6  169.558  136.65 i
 82.65  168.705  136.645 i
 82.7  143.705  136.64 i
 82.75  143.626  136.635 i
 82.8  151.741  136.629 i
 82.85  132.824  136.624 i
 82.9  159.809  136.619 i
 82.95  153.605  136.614 i
 83  149.709  136.609 i
 83.05  126.656  136.604 i
 83.1  143.426  136.599 i
 83.15  116.83  136.594 i
 83.2  151.767  136.589 i
 83.25  133.398  136.584 i
 83.3  163.323  136.579 i
 83.35  140.637  136.574 i
 83.4  134.313  136.569 i
 83.45  130.47  136.564 i
 83.5  144.121  136.559 i
 83.55  137.361  136.554 i
 83.6  145.386  136.548 i
 83.65  126.472  136.543 i
 83.7  161.392  136.538 i
 83.75  122.358  136.533 i
 83.8  128.588  136.528 i
 83.85  153.408  136.523 i
 83.9  127.077  136.517 i
 83.95  155.844  136.512 i
 84  141.297  136.507 i
 84.05  145.083  136.502 i
 84.1  116.31  136.496 i
 84.15  130.377  136.491 i
 84.2  127.919  136.486 i
 84.25  122.929  136.481 i
 84.3  116.723  136.475 i
 84.35  140.745  136.47 i
 84.4  140.506  136.464 i
 84.45  135.473  136.459 i
 84.5  105.048  136.454 i
 84.55  134.844  136.448 i
 84.6  147.053  136.443 i
 84.65  132.057  136.437 i
 84.7  147.976  136.432 i
 84.75  129.458  136.426 i
 84.8  128.095  136.421 i
 84.85  145.869  136.415 i
 84.9  137.787  136.41 i
 84.95  129.125  136.404 i
 85  152.214  136.398 i
 85.05  144.279  136.393 i
 85.1  163.722  136.387 i
 85.15  145.076  136.381 i
 85.2  129.601  136.375 i
 85.25  117.088  136.37 i
 85.3  116.193  136.364 i
 85.35  142.902  136.358 i
 85.4  142.681  136.352 i
 85.45  132.914  136.346 i
 85.5  124.767  136.34 i
 85.55  157.526  136.334 i
 85.6  138.934  136.328 i
 85.65  142.595  136.322 i
 85.7  139.824  136.316 i
 85.75  117.948  136.31 i
 85.8  135.793  136.303 i
 85.85  148.499  136.297 i
 85.9  119.613  136.291 i
 85.95  114.103  136.285 i
 86  130.333  136.278 i
 86.05  127.006  136.272 i
 86.1  129.446  136.266 i
 86.15  117.523  136.259 i
 86.2  154.726  136.253 i
 86.25  146.42  136.246 i
 86.3  135.904  136.24 i
 86.35  148.16  136.233 i
 86.4  157.496  136.226 i
 86.45  130.695  136.22 i
 86.5  120.831  136.213 i
 86.55  130.308  136.206 i
 86.6  150.619  136.199 i
 86.65  131.556  136.192 i
 86.7  140.344  136.185 i
 86.75  139.509  136.178 i
 86.8  163.004  136.171 i
 86.85  119.993  136.164 i
 86.9  132.554  136.157 i
 86.95  124.979  136.15 i
 87  132.807  136.143 i
 87.05  164.876  136.135 i
 87.1  127.65  136.128 i
 87.15  139.6  136.121 i
 87.2  118.027  136.113 i
 87.25  123.902  136.106 i
 87.3  134.109  136.098 i
 87.35  153.615  136.09 i
 87.4  139.273  136.083 i
 87.45  123.776  136.075 i
 87.5  142.138  136.067 i
 87.55  143.163  136.059 i
 87.6  105.558  136.051 i
 87.65  124.726  136.043 i
 87.7  145.818  136.035 i
 87.75  152.282  136.027 i
 87.8  137.017  136.019 i
 87.85  143.851  136.011 i
 87.9  140.344  136.003 i
 87.95  125.726  135.994 i
 88  144.864  135.986 i
 88.05  127.415  135.977 i
 88.1  126.272  135.969 i
 88.15  145.195  135.96 i
 88.2  130.615  135.952 i
 88.25  120.483  135.943 i
 88.3  124.556  135.934 i
 88.35  139.319  135.925 i
 88.4  125.23  135.916 i
 88.45  133.329  135.907 i
 88.5  133.263  135.898 i
 88.55  111.466  135.889 i
 88.6  113.017  135.88 i
 88.65  110.233  135.871 i
 88.7  137.59  135.861 i
 88.75  123.447  135.852 i
 88.8  150.322  135.842 i
 88.85  140.599  135.833 i
 88.9  147.298  135.823 i
 88.95  139.978  135.813 i
 89  124.049  135.804 i
 89.05  152.231  135.794 i
 89.1  128.147  135.784 i
 89.15  119.055  135.774 i
 89.2  131.76  135.764 i
 89.25  126.549  135.753 i
 89.3  144.644  135.743 i
 89.35  126.765  135.733 i
 89.4  146.489  135.722 i
 89.45  145.535  135.712 i
 89.5  152.646  135.701 i
 89.55  130.682  135.691 i
 89.6  148.911  135.68 i
 89.65  135.465  135.669 i
 89.7  148.066  135.658 i
 89.75  161.051  135.647 i
 89.8  161.312  135.636 i
 89.85  135.434  135.625 i
 89.9  145.149  135.614 i
 89.95  146.814  135.602 i
 90  140.155  135.591 i
 90.05  124.611  135.579 i
 90.1  122.566  135.568 i
 90.15  137.863  135.556 i
 90.2  138.945  135.545 i
 90.25  113.412  135.533 i
 90.3  131.418  135.521 i
 90.35  155.834  135.509 i
 90.4  136.164  135.497 i
 90.45  134.709  135.485 i
 90.5  137.844  135.473 i
 90.55  152.476  135.461 i
 90.6  142.705  135.449 i
 90.65  165.122  135.437 i
 90.7  141.183  135.425 i
 90.75  126.075  135.412 i
 90.8  140.366  135.4 i
 90.85  153.854  135.388 i
 90.9  133.728  135.375 i
 90.95  135.594  135.363 i
 91  135.506  135.35 i
 91.05  144.652  135.337 i
 91.1  137.991  135.325 i
 91.15  126.714  135.312 i
 91.2  135.818  135.299 i
 91.25  132.481  135.286 i
 91.3  131.787  135.273 i
 91.35  121.447  135.261 i
 91.4  118.445  135.248 i
 91.45  147.953  135.234 i
 91.5  154.985  135.221 i
 91.55  135.992  135.208 i
 91.6  140.597  135.195 i
 91.65  126.839  135.182 i
 91.7  123.575  135.169 i
 91.75  141.252  135.155 i
 91.8  135.088  135.142 i
 91.85  133.644  135.128 i
 91.9  140.867  135.115 i
 91.95  134.894  135.101 i
 92  129.182  135.088 i
 92.05  129.062  135.074 i
 92.1  130.41  135.061 i
 92.15  143.587  135.047 i
 92.2  135.008  135.033 i
 92.25  137.056  135.019 i
 92.3  133.336  135.005 i
 92.35  125.843  134.991 i
 92.4  144.075  134.978 i
 92.45  140.884  134.964 i
 92.5  129.527  134.95 i
 92.55  148.718  134.936 i
 92.6  132.593  134.921 i
 92.65  129.706  134.907 i
 92.7  138.888  134.893 i
 92.75  141.425  134.879 i
 92.8  131.182  134.865 i
 92.85  136.041  134.85 i
 92.9  154.144  134.836 i
 92.95  121.222  134.821 i
 93  126.711  134.807 i
 93.05  131.508  134.793 i
 93.1  138.353  134.778 i
 93.15  148.849  134.764 i
 93.2  129.769  134.749 i
 93.25  118.272  134.734 i
 93.3  130.326  134.72 i
 93.35  115.454  134.705 i
 93.4  140.871  134.69 i
 93.45  141.321  134.675 i
 93.5  141.794  134.661 i
 93.55  150.34  134.646 i
 93.6  131.178  134.631 i
 93.65  125.694  134.616 i
 93.7  112.98  134.601 i
 93.75  147.625  134.586 i
 93.8  133.999  134.571 i
 93.85  136.064  134.556 i
 93.9  131.583  134.541 i
 93.95  125.035  134.526 i
 94  135.307  134.511 i
 94.05  135.298  134.495 i
 94.1  135.937  134.48 i
 94.15  133.815  134.465 i
 94.2  125.644  134.45 i
 94.25  127.516  134.434 i
 94.3  140.337  134.419 i
 94.35  147.952  134.404 i
 94.4  128.428  134.388 i
 94.45  134.553  134.373 i
 94.5  125.738  134.357 i
 94.55  134.317  134.342 i
 94.6  143.995  134.326 i
 94.65  124.512  134.311 i
 94.7  140.696  134.295 i
 94.75  142.054  134.28 i
 94.8  132.555  134.264 i
 94.85  151.87  134.248 i
 94.9  124.9  134.233 i
 94.95  113.645  134.217 i
 95  136.738  134.201 i
 95.05  128.218  134.186 i
 95.1  133.709  134.17 i
 95.15  127.729  134.154 i
 95.2  129.541  134.138 i
 95.25  114.311  134.122 i
 95.3  122.217  134.107 i
 95.35  128.838  134.091 i
 95.4  137.186  134.075 i
 95.45  152.895  134.059 i
 95.5  125.757  134.043 i
 95.55  135.69  134.027 i
 95.6  128.607  134.011 i
 95.65  123.706  133.995 i
 95.7  137.644  133.979 i
 95.75  128.221  133.963 i
 95.8  168.635  133.947 i
 95.85  148.031  133.931 i
 95.9  136.05  133.914 i
 95.95  138.864  133.898 i
 96  130.843  133.882 i
 96.05  132.374  133.866 i
 96.1  147.34  133.85 i
 96.15  123.441  133.834 i
 96.2  133.335  133.817 i
 96.25  139.781  133.801 i
 96.3  120.677  133.785 i
 96.35  163.213  133.769 i
 96.4  149.279  133.752 i
 96.45  150.38  133.736 i
 96.5  146.056  133.72 i
 96.55  123.79  133.703 i
 96.6  127.614  133.687 i
 96.65  124.419  133.671 i
 96.7  115.879  133.654 i
 96.75  131.846  133.638 i
 96.8  137.873  133.621 i
 96.85  116.757  133.605 i
 96.9  118.563  133.589 i
 96.95  131.617  133.572 i
 97  148.751  133.556 i
 97.05  118.989  133.539 i
 97.1  124.781  133.523 i
 97.15  141.525  133.506 i
 97.2  125.639  133.49 i
 97.25  172.574  133.473 i
 97.3  149.385  133.457 i
 97.35  144.196  133.44 i
 97.4  156.262  133.424 i
 97.45  144.499  133.407 i
 97.5  138.676  133.391 i
 97.55  145.852  133.374 i
 97.6  144.339  133.358 i
 97.65  146.781  133.341 i
 97.7  144.304  133.324 i
 97.75  139.326  133.308 i
 97.8  167.157  133.291 i
 97.85  162.16  133.275 i
 97.9  174.864  133.258 i
 97.95  182.811  133.242 i
 98  194.183  133.225 i
 98.05  186.25  133.208 i
 98.1  219.844  133.192 i
 98.15  203.878  133.175 i
 98.2  241.143  133.159 i
 98.25  260.029  133.142 i
 98.3  246.812  133.125 i
 98.35  284.448  133.109 i
 98.4  336.064  133.092 i
 98.45  337.354  133.075 i
 98.5  365.141  133.059 i
 98.55  370.963  133.042 i
 98.6  374.65  133.026 i
 98.65  299.104  133.009 i
 98.7  317.33  132.992 i
 98.75  263.462  132.976 i
 98.8  224.147  132.959 i
 98.85  198.104  132.943 i
 98.9  188.776  132.926 i
 98.95  190.922  132.909 i
 99  187.031  132.893 i
 99.05  156.575  132.876 i
 99.1  170.215  132.86 i
 99.15  133.345  132.843 i
 99.2  140.46  132.826 i
 99.25  147.634  132.81 i
 99.3  138.641  132.793 i
 99.35  143.321  132.777 i
 99.4  138.435  132.76 i
 99.45  152.458  132.743 i
 99.5  131.858  132.727 i
 99.55  144.702  132.71 i
 99.6  143.341  132.694 i
 99.65  134.848  132.677 i
 99.7  132.053  132.661 i
 99.75  127.3  132.644 i
 99.8  160.929  132.628 i
 99.85  123.144  132.611 i
 99.9  137.049  132.595 i
 99.95  138.087  132.578 i
 100  142.987  132.562 i
 100.05  150.676  132.545 i
 100.1  130.863  132.529 i
 100.15  111.583  132.513 i
 100.2  141.573  132.496 i
 100.25  135.934  132.48 i
 100.3  138.797  132.463 i
 100.35  132.641  132.447 i
 100.4  131.783  132.431 i
 100.45  118.305  132.414 i
 100.5  136.608  132.398 i
 100.55  117.715  132.381 i
 100.6  143.051  132.365 i
 100.65  131.571  132.349 i
 100.7  141.058  132.333 i
 100.75  134.457  132.316 i
 100.8  135.208  132.3 i
 100.85  120.701  132.284 i
 100.9  133.198  132.268 i
 100.95  111.878  132.251 i
 101  127.614  132.235 i
 101.05  127.98  132.219 i
 101.1  135.022  132.203 i
 101.15  132.834  132.187 i
 101.2  125.468  132.171 i
 101.25  128.894  132.155 i
 101.3  118.164  132.138 i
 101.35  130.187  132.122 i
 101.4  125.474  132.106 i
 101.45  121.363  132.09 i
 101.5  135.36  132.074 i
 101.55  138.985  132.058 i
 101.6  135.693  132.042 i
 101.65  126.543  132.026 i
 101.7  124.012  132.011 i
 101.75  122.809  131.995 i
 101.8  133.151  131.979 i
 101.85  113.517  131.963 i
 101.9  132.213  131.947 i
 101.95  138.076  131.931 i
 102  139.763  131.916 i
 102.05  114.933  131.9 i
 102.1  116.588  131.884 i
 102.15  132.962  131.868 i
 102.2  126.964  131.853 i
 102.25  126.467  131.837 i
 102.3  133.141  131.822 i
 102.35  121.055  131.806 i
 102.4  128.745  131.79 i
 102.45  149.057  131.775 i
 102.5  130.751  131.759 i
 102.55  133.719  131.744 i
 102.6  139.613  131.728 i
 102.65  125.1  131.713 i
 102.7  131.795  131.698 i
 102.75  128.326  131.682 i
 102.8  130.268  131.667 i
 102.85  156.95  131.652 i
 102.9  114.164  131.636 i
 102.95  127.218  131.621 i
 103  118.427  131.606 i
 103.05  129.735  131.591 i
 103.1  150.178  131.576 i
 103.15  128.888  131.56 i
 103.2  101.768  131.545 i
 103.25  137.273  131.53 i
 103.3  133.916  131.515 i
 103.35  119.947  131.5 i
 103.4  146.247  131.485 i
 103.45  119.599  131.47 i
 103.5  147.635  131.456 i
 103.55  147.574  131.441 i
 103.6  133.211  131.426 i
 103.65  123.902  131.411 i
 103.7  155.653  131.396 i
 103.75  137.69  131.382 i
 103.8  133.467  131.367 i
 103.85  124.459  131.353 i
 103.9  122.21  131.338 i
 103.95  107.239  131.323 i
 104  125.266  131.309 i
 104.05  147.16  131.294 i
 104.1  147.672  131.28 i
 104.15  134.773  131.266 i
 104.2  165.35  131.251 i
 104.25  147.589  131.237 i
 104.3  123.286  131.223 i
 104.35  121.708  131.208 i
 104.4  135.856  131.194 i
 104.45  122.912  131.18 i
 104.5  121.773  131.166 i
 104.55  136.019  131.152 i
 104.6  133.996  131.138 i
 104.65  131.738  131.124 i
 104.7  141.306  131.11 i
 104.75  126.324  131.096 i
 104.8  152.701  131.082 i
 104.85  122.817  131.069 i
 104.9  124.578  131.055 i
 104.95  101.643  131.041 i
 105  123.098  131.027 i
 105.05  132.056  131.014 i
 105.1  131.725  131 i
 105.15  136.202  130.987 i
 105.2  135.646  130.973 i
 105.25  115.56  130.96 i
 105.3  143.352  130.947 i
 105.35  141.128  130.933 i
 105.4  145.924  130.92 i
 105.45  133.808  130.907 i
 105.5  123.95  130.894 i
 105.55  129.628  130.88 i
 105.6  152.657  130.867 i
 105.65  120.07  130.854 i
 105.7  129.575  130.841 i
 105.75  133.053  130.828 i
 105.8  125.057  130.815 i
 105.85  140.701  130.803 i
 105.9  122.137  130.79 i
 105.95  133.027  130.777 i
 106  128.247  130.764 i
 106.05  144.33  130.752 i
 106.1  141.639  130.739 i
 106.15  127.596  130.727 i
 106.2  158.327  130.714 i
 106.25  121.987  130.702 i
 106.3  125.807  130.69 i
 106.35  138.727  130.677 i
 106.4  142.884  130.665 i
 106.45  130.742  130.653 i
 106.5  145.772  130.641 i
 106.55  152.392  130.629 i
 106.6  146.789  130.617 i
 106.65  115.388  130.605 i
 106.7  144.187  130.593 i
 106.75  122.066  130.581 i
 106.8  149.708  130.569 i
 106.85  141.821  130.557 i
 106.9  154.882  130.546 i
 106.95  123.046  130.534 i
 107  127.553  130.522 i
 107.05  149.219  130.51 i
 107.1  144.087  130.499 i
 107.15  146.08  130.487 i
 107.2  133.005  130.475 i
 107.25  143.305  130.464 i
 107.3  145.992  130.452 i
 107.35  127.079  130.44 i
 107.4  128.064  130.429 i
 107.45  120.371  130.417 i
 107.5  131.568  130.406 i
 107.55  133.09  130.394 i
 107.6  131.528  130.383 i
 107.65  121.289  130.371 i
 107.7  156.768  130.36 i
 107.75  157.89  130.348 i
 107.8  140.151  130.337 i
 107.85  126.105  130.326 i
 107.9  136.475  130.314 i
 107.95  149.214  130.303 i
 108  129.046  130.292 i
 108.05  130.244  130.28 i
 108.1  125.16  130.269 i
 108.15  125.472  130.258 i
 108.2  130.705  130.247 i
 108.25  140.851  130.235 i
 108.3  141.185  130.224 i
 108.35  135.332  130.213 i
 108.4  125.159  130.202 i
 108.45  119.391  130.191 i
 108.5  110.737  130.18 i
 108.55  132.314  130.169 i
 108.6  120.163  130.157 i
 108.65  128.429  130.146 i
 108.7  138.125  130.135 i
 108.75  144.802  130.124 i
 108.8  139.25  130.113 i
 108.85  134.838  130.102 i
 108.9  149.2  130.092 i
 108.95  126.91  130.081 i
 109  139.302  130.07 i
 109.05  133.252  130.059 i
 109.1  154.234  130.048 i
 109.15  123.06  130.037 i
 109.2  128.391  130.026 i
 109.25  126.519  130.016 i
 109.3  128.422  130.005 i
 109.35  137.817  129.994 i
 109.4  120.443  129.983 i
 109.45  128.093  129.973 i
 109.5  129.727  129.962 i
 109.55  145.619  129.951 i
 109.6  115.686  129.941 i
 109.65  119.05  129.93 i
 109.7  145.259  129.919 i
 109.75  137.869  129.909 i
 109.8  137.044  129.898 i
 109.85  139.399  129.888 i
 109.9  125.194  129.877 i
 109.95  109.076  129.867 i
 110  126.943  129.856 i
 110.05  141.042  129.846 i
 110.1  126.496  129.835 i
 110.15  128.75  129.825 i
 110.2  109.656  129.814 i
 110.25  130.134  129.804 i
 110.3  126.052  129.793 i
 110.35  121.503  129.783 i
 110.4  142.062  129.773 i
 110.45  110.39  129.762 i
 110.5  115.841  129.752 i
 110.55  141.82  129.742 i
 110.6  148.602  129.731 i
 110.65  144.466  129.721 i
 110.7  121.793  129.711 i
 110.75  143.516  129.701 i
 110.8  143.572  129.691 i
 110.85  132.897  129.68 i
 110.9  136.431  129.67 i
 110.95  124.515  129.66 i
 111  128.487  129.65 i
 111.05  134.621  129.64 i
 111.1  126.259  129.63 i
 111.15  122.644  129.62 i
 111.2  132.669  129.61 i
 111.25  138.609  129.6 i
 111.3  146.964  129.589 i
 111.35  131.536  129.579 i
 111.4  124.193  129.569 i
 111.45  126.172  129.56 i
 111.5  132.314  129.55 i
 111.55  147.7  129.54 i
 111.6  133.525  129.53 i
 111.65  146.304  129.52 i
 111.7  150.64  129.51 i
 111.75  152.998  129.5 i
 111.8  130.106  129.49 i
 111.85  153.156  129.48 i
 111.9  120.802  129.47 i
 111.95  146.08  129.461 i
 112  131.582  129.451 i
 112.05  126.566  129.441 i
 112.1  132.277  129.431 i
 112.15  139.864  129.422 i
 112.2  136.182  129.412 i
 112.25  128.657  129.402 i
 112.3  107.909  129.392 i
 112.35  142.482  129.383 i
 112.4  141.262  129.373 i
 112.45  124.297  129.364 i
 112.5  144.623  129.354 i
 112.55  134.865  129.344 i
 112.6  135.184  129.335 i
 112.65  125.433  129.325 i
 112.7  122.692  129.316 i
 112.75  142.37  129.306 i
 112.8  124.466  129.296 i
 112.85  129.157  129.287 i
 112.9  151.004  129.277 i
 112.95  131.28  129.268 i
 113  137.241  129.258 i
 113.05  123.29  129.249 i
 113.1  122.13  129.24 i
 113.15  146.065  129.23 i
 113.2  141.336  129.221 i
 113.25  130.917  129.211 i
 113.3  140.45  129.202 i
 113.35  142.343  129.193 i
 113.4  124.249  129.183 i
 113.45  116.702  129.174 i
 113.5  138.825  129.165 i
 113.55  132.953  129.155 i
 113.6  135.456  129.146 i
 113.65  142.621  129.137 i
 113.7  158.513  129.127 i
 113.75  112.036  129.118 i
 113.8  130.444  129.109 i
 113.85  136.612  129.1 i
 113.9  135.735  129.09 i
 113.95  136.768  129.081 i
 114  147.775  129.072 i
 114.05  139.289  129.063 i
 114.1  154.911  129.054 i
 114.15  140.61  129.045 i
 114.2  141.484  129.035 i
 114.25  150.022  129.026 i
 114.3  142.789  129.017 i
 114.35  137.165  129.008 i
 114.4  152.403  128.999 i
 114.45  151.154  128.99 i
 114.5  153.288  128.981 i
 114.55  139.612  128.972 i
 114.6  163.078  128.963 i
 114.65  178.026  128.954 i
 114.7  148.601  128.945 i
 114.75  172.432  128.936 i
 114.8  158.8  128.927 i
 114.85  175.112  128.918 i
 114.9  172.069  128.909 i
 114.95  159.111  128.9 i
 115  160.883  128.891 i
 115.05  188.102  128.882 i
 115.1  195.133  128.873 i
 115.15  203.149  128.865 i
 115.2  215.544  128.856 i
 115.25  216.401  128.847 i
 115.3  206.661  128.838 i
 115.35  188.052  128.829 i
 115.4  209.292  128.82 i
 115.45  235.502  128.812 i
 115.5  235.709  128.803 i
 115.55  212.81  128.794 i
 115.6  250.678  128.785 i
 115.65  259.057  128.776 i
 115.7  256.104  128.768 i
 115.75  280.439  128.759 i
 115.8  267.731  128.75 i
 115.85  270.399  128.741 i
 115.9  210.814  128.733 i
 115.95  200.296  128.724 i
 116  199.851  128.715 i
 116.05  177.68  128.707 i
 116.1  172.603  128.698 i
 116.15  166.998  128.689 i
 116.2  156.707  128.681 i
 116.25  172.394  128.672 i
 116.3  158.014  128.664 i
 116.35  179.636  128.655 i
 116.4  160.134  128.646 i
 116.45  149.813  128.638 i
 116.5  151.705  128.629 i
 116.55  136.58  128.621 i
 116.6  171.973  128.612 i
 116.65  143.829  128.604 i
 116.7  135.178  128.595 i
 116.75  174.594  128.587 i
 116.8  152.487  128.578 i
 116.85  142.01  128.57 i
 116.9  152.162  128.561 i
 116.95  133.596  128.553 i
 117  133.806  128.544 i
 117.05  146.878  128.536 i
 117.1  154.726  128.527 i
 117.15  162.671  128.519 i
 117.2  118.649  128.51 i
 117.25  130.606  128.502 i
 117.3  131.755  128.494 i
 117.35  152.171  128.485 i
 117.4  118.571  128.477 i
 117.45  143.987  128.468 i
 117.5  145.333  128.46 i
 117.55  133.098  128.452 i
 117.6  105.557  128.443 i
 117.65  134.697  128.435 i
 117.7  140.393  128.427 i
 117.75  148.542  128.418 i
 117.8  132.942  128.41 i
 117.85  132.212  128.402 i
 117.9  136.028  128.393 i
 117.95  136.216  128.385 i
 118  142.961  128.377 i
 118.05  117.53  128.369 i
 118.1  151.676  128.36 i
 118.15  150.01  128.352 i
 118.2  125.3  128.344 i
 118.25  134.089  128.336 i
 118.3  142.791  128.327 i
 118.35  150.753  128.319 i
 118.4  125.849  128.311 i
 118.45  131.301  128.303 i
 118.5  165.776  128.295 i
 118.55  141.374  128.286 i
 118.6  123.181  128.278 i
 118.65  108.642  128.27 i
 118.7  112.538  128.262 i
 118.75  137.733  128.254 i
 118.8  135.344  128.246 i
 118.85  158.241  128.237 i
 118.9  129.455  128.229 i
 118.95  124.355  128.221 i
 119  144.174  128.213 i
 119.05  141.102  128.205 i
 119.1  132.971  128.197 i
 119.15  133.68  128.189 i
 119.2  150.965  128.181 i
 119.25  126.006  128.173 i
 119.3  126.654  128.165 i
 119.35  130.072  128.157 i
 119.4  135.666  128.148 i
 119.45  115.25  128.14 i
 119.5  128.127  128.132 i
 119.55  136.955  128.124 i
 119.6  126.061  128.116 i
 119.65  127.408  128.108 i
 119.7  133.197  128.1 i
 119.75  153.165  128.092 i
 119.8  147.52  128.084 i
 119.85  157.56  128.076 i
 119.9  151.752  128.068 i
 119.95  120.743  128.06 i
 120  116.985  128.052 i
 120.05  118.117  128.044 i
 120.1  146.007  128.036 i
 120.15  133.016  128.028 i
 120.2  125.345  128.021 i
 120.25  128.9  128.013 i
 120.3  129.751  128.005 i
 120.35  125.016  127.997 i
 120.4  138.936  127.989 i
 120.45  141.776  127.981 i
 120.5  106.861  127.973 i
 120.55  118.38  127.965 i
 120.6  128.795  127.957 i
 120.65  131.147  127.949 i
 120.7  124.779  127.941 i
 120.75  143.255  127.933 i
 120.8  130.19  127.926 i
 120.85  120.652  127.918 i
 120.9  144.536  127.91 i
 120.95  147.612  127.902 i
 121  153.194  127.894 i
 121.05  126.082  127.886 i
 121.1  128.014  127.878 i
 121.15  131.768  127.871 i
 121.2  165.762  127.863 i
 121.25  122.471  127.855 i
 121.3  145.156  127.847 i
 121.35  127.495  127.839 i
 121.4  107.237  127.831 i
 121.45  133.459  127.824 i
 121.5  132.166  127.816 i
 121.55  128.107  127.808 i
 121.6  137.196  127.8 i
 121.65  125.72  127.792 i
 121.7  116.398  127.784 i
 121.75  126.562  127.777 i
 121.8  137.163  127.769 i
 121.85  139.258  127.761 i
 121.9  136.469  127.753 i
 121.95  129.785  127.746 i
 122  124.376  127.738 i
 122.05  136.584  127.73 i
 122.1  102.681  127.722 i
 122.15  130.688  127.714 i
 122.2  137.37  127.707 i
 122.25  143.542  127.699 i
 122.3  128.19  127.691 i
 122.35  108.567  127.683 i
 122.4  149.128  127.676 i
 122.45  132.851  127.668 i
 122.5  127.095  127.66 i
 122.55  134.247  127.652 i
 122.6  120.167  127.645 i
 122.65  144.736  127.637 i
 122.7  148.466  127.629 i
 122.75  106.909  127.621 i
 122.8  134.048  127.614 i
 122.85  116.895  127.606 i
 122.9  116.575  127.598 i
 122.95  137.542  127.591 i
 123  118.226  127.583 i
 123.05  123.676  127.575 i
 123.1  124.586  127.567 i
 123.15  141.795  127.56 i
 123.2  142.863  127.552 i
 123.25  131.444  127.544 i
 123.3  127.164  127.537 i
 123.35  135.273  127.529 i
 123.4  140.807  127.521 i
 123.45  128.65  127.514 i
 123.5  132.546  127.506 i
 123.55  115.993  127.498 i
 123.6  111.673  127.49 i
 123.65  157.475  127.483 i
 123.7  131.965  127.475 i
 123.75  108.061  127.467 i
 123.8  130.299  127.46 i
 123.85  132.567  127.452 i
 123.9  146.928  127.444 i
 123.95  138.785  127.437 i
 124  145.705  127.429 i
 124.05  111.797  127.421 i
 124.1  118.365  127.414 i
 124.15  143.63  127.406 i
 124.2  131.228  127.398 i
 124.25  131.319  127.391 i
 124.3  137.63  127.383 i
 124.35  125.471  127.375 i
 124.4  109.903  127.368 i
 124.45  131.948  127.36 i
 124.5  123.914  127.352 i
 124.55  123.844  127.345 i
 124.6  115.561  127.337 i
 124.65  123.216  127.329 i
 124.7  111.904  127.321 i
 124.75  153.767  127.314 i
 124.8  127.337  127.306 i
 124.85  139.554  127.298 i
 124.9  144.028  127.291 i
 124.95  121.629  127.283 i
 125  125.245  127.275 i
 125.05  128.887  127.268 i
 125.1  125.035  127.26 i
 125.15  135.073  127.252 i
 125.2  134.191  127.245 i
 125.25  135.119  127.237 i
 125.3  119.604  127.229 i
 125.35  119.997  127.222 i
 125.4  144.087  127.214 i
 125.45  129.897  127.206 i
 125.5  138.75  127.199 i
 125.55  154.697  127.191 i
 125.6  135.488  127.183 i
 125.65  107.511  127.176 i
 125.7  137.084  127.168 i
 125.75  128.248  127.16 i
 125.8  122.438  127.153 i
 125.85  126.518  127.145 i
 125.9  162  127.137 i
 125.95  140.876  127.13 i
 126  127.509  127.122 i
 126.05  140.92  127.114 i
 126.1  117.774  127.106 i
 126.15  141.693  127.099 i
 126.2  130.39  127.091 i
 126.25  140.553  127.083 i
 126.3  95.1566  127.076 i
 126.35  130.077  127.068 i
 126.4  122.707  127.06 i
 126.45  125.709  127.053 i
 126.5  142.766  127.045 i
 126.55  119.555  127.037 i
 126.6  129.78  127.029 i
 126.65  137.922  127.022 i
 126.7  140.083  127.014 i
 126.75  139.496  127.006 i
 126.8  120.459  126.999 i
 126.85  128.734  126.991 i
 126.9  121.424  126.983 i
 126.95  153.697  126.975 i
 127  125.915  126.968 i
 127.05  108.189  126.96 i
 127.1  121.206  126.952 i
 127.15  141.167  126.944 i
 127.2  118.666  126.937 i
 127.25  144.446  126.929 i
 127.3  146.125  126.921 i
 127.35  155.684  126.913 i
 127.4  121.723  126.906 i
 127.45  106.971  126.898 i
 127.5  136.629  126.89 i
 127.55  123.583  126.882 i
 127.6  131.851  126.875 i
 127.65  126.821  126.867 i
 127.7  126.036  126.859 i
 127.75  141.19  126.851 i
 127.8  143.829  126.844 i
 127.85  141.251  126.836 i
 127.9  114.569  126.828 i
 127.95  135.755  126.82 i
 128  140.064  126.812 i
 128.05  139.477  126.805 i
 128.1  122.805  126.797 i
 128.15  120.934  126.789 i
 128.2  129.862  126.781 i
 128.25  138.85  126.773 i
 128.3  133.901  126.766 i
 128.35  146.613  126.758 i
 128.4  136.942  126.75 i
 128.45  119.493  126.742 i
 128.5  158.865  126.734 i
 128.55  113.589  126.726 i
 128.6  127.525  126.719 i
 128.65  143.085  126.711 i
 128.7  136.291  126.703 i
 128.75  149.962  126.695 i
 128.8  126.069  126.687 i
 128.85  126.14  126.679 i
 128.9  130.545  126.671 i
 128.95  137.626  126.663 i
 129  151.279  126.656 i
 129.05  120.491  126.648 i
 129.1  123.434  126.64 i
 129.15  131.638  126.632 i
 129.2  139.837  126.624 i
 129.25  118.476  126.616 i
 129.3  147.976  126.608 i
 129.35  122.299  126.6 i
 129.4  142.354  126.592 i
 129.45  135.773  126.584 i
 129.5  111.338  126.576 i
 129.55  128.254  126.568 i
 129.6  141.035  126.56 i
 129.65  130.733  126.552 i
 129.7  125.015  126.544 i
 129.75  130.54  126.536 i
 129.8  139.286  126.528 i
 129.85  128.463  126.52 i
 129.9  141.662  126.513 i
 129.95  118.272  126.504 i
 130  121.831  126.496 i

