
#Surface 0 of 1 surfaces

#IsoCurve 0, 1801 points
#x y z type
 40  154.645  182.218 i
 40.05  160.046  182.082 i
 40.1  155.925  181.945 i
 40.15  182.16  181.829 i
 40.2  167.123  181.712 i
 40.25  190.707  181.611 i
 40.3  166.193  181.51 i
 40.35  187.989  181.404 i
 40.4  182.778  181.299 i
 40.45  184.839  181.174 i
 40.5  196.45  181.049 i
 40.55  203.181  180.914 i
 40.6  161.02  180.778 i
 40.65  154.809  180.654 i
 40.7  165.742  180.53 i
 40.75  167.974  180.431 i
 40.8  180.293  180.331 i
 40.85  186.602  180.245 i
 40.9  163.216  180.159 i
 40.95  171.588  180.063 i
 41  170.302  179.966 i
 41.05  174.593  179.85 i
 41.1  175.125  179.734 i
 41.15  190.341  179.614 i
 41.2  193.645  179.493 i
 41.25  154.21  179.393 i
 41.3  196.497  179.293 i
 41.35  162.853  179.222 i
 41.4  184.616  179.151 i
 41.45  200.889  179.091 i
 41.5  205.555  179.031 i
 41.55  169.697  178.958 i
 41.6  166.223  178.885 i
 41.65  157.41  178.795 i
 41.7  145.054  178.705 i
 41.75  188.595  178.621 i
 41.8  202.155  178.537 i
 41.85  183.474  178.485 i
 41.9  163.211  178.434 i
 41.95  174.574  178.419 i
 42  176.374  178.404 i
 42.05  184.154  178.403 i
 42.1  185.928  178.402 i
 42.15  168.428  178.393 i
 42.2  161.387  178.383 i
 42.25  173.377  178.368 i
 42.3  170.469  178.353 i
 42.35  192.151  178.366 i
 42.4  193.416  178.378 i
 42.45  189.152  178.449 i
 42.5  177.815  178.52 i
 42.55  180.992  178.653 i
 42.6  166.634  178.786 i
 42.65  184.686  178.96 i
 42.7  184.306  179.133 i
 42.75  175.201  179.333 i
 42.8  197.514  179.534 i
 42.85  174.246  179.786 i
 42.9  150.995  180.037 i
 42.95  180.281  180.4 i
 43  190.444  180.763 i
 43.05  187.615  181.304 i
 43.1  196.794  181.844 i
 43.15  184.055  182.631 i
 43.2  211.195  183.418 i
 43.25  201.238  184.625 i
 43.3  216.036  185.831 i
 43.35  210.025  187.546 i
 43.4  200.555  189.506 i
 43.45  240.819  191.591 i
 43.5  201.208  193.875 i
 43.55  199.209  196.78 i
 43.6  226.276  199.685 i
 43.65  225.213  203.534 i
 43.7  231.504  208.275 i
 43.75  192.415  214.182 i
 43.8  236.631  221.638 i
 43.85  217.608  231.2 i
 43.9  233.704  243.697 i
 43.95  276.652  260.407 i
 44  324.788  283.35 i
 44.05  396.081  315.859 i
 44.1  380.071  363.693 i
 44.15  530.599  437.466 i
 44.2  646.717  558.178 i
 44.25  826.23  769.87 i
 44.3  1249.16  1161.01 i
 44.35  1932.44  1880.83 i
 44.4  2948.6  3067.02 i
 44.45  4458.33  4599.93 i
 44.5  5663.88  5813.12 i
 44.55  5861.82  5757.32 i
 44.6  4549.9  4324.46 i
 44.65  2647.93  2612.02 i
 44.7  1455.64  1487.29 i
 44.75  871.229  919.234 i
 44.8  574.759  634.532 i
 44.85  459.432  478.943 i
 44.9  340.382  386.067 i
 44.95  322.209  328.064 i
 45  272.842  288.934 i
 45.05  213.539  262.15 i
 45.1  212.152  242.991 i
 45.15  172.891  230.596 i
 45.2  195.208  218.2 i
 45.25  191.867  210.82 i
 45.3  183.495  203.441 i
 45.35  193.594  198.722 i
 45.4  196.327  194.003 i
 45.45  176.412  190.826 i
 45.5  174.657  187.65 i
 45.55  182.325  185.404 i
 45.6  172.195  183.158 i
 45.65  178.456  181.442 i
 45.7  172.579  179.726 i
 45.75  166.016  178.305 i
 45.8  176.079  176.884 i
 45.85  159.284  175.775 i
 45.9  161.131  174.665 i
 45.95  179.75  173.804 i
 46  148.12  172.943 i
 46.05  177.722  172.267 i
 46.1  152.182  171.591 i
 46.15  163.504  171.046 i
 46.2  176.104  170.5 i
 46.25  164.283  170.025 i
 46.3  169.63  169.55 i
 46.35  144.033  169.104 i
 46.4  177.661  168.659 i
 46.45  165.735  168.241 i
 46.5  156.939  167.824 i
 46.55  136.717  167.458 i
 46.6  156.981  167.091 i
 46.65  176.639  166.787 i
 46.7  179.261  166.483 i
 46.75  167.697  166.223 i
 46.8  156.378  165.964 i
 46.85  153.629  165.714 i
 46.9  149.374  165.464 i
 46.95  160.999  165.204 i
 47  153.58  164.943 i
 47.05  159.604  164.682 i
 47.1  161.78  164.42 i
 47.15  154.59  164.184 i
 47.2  125.915  163.947 i
 47.25  168.862  163.748 i
 47.3  189.413  163.549 i
 47.35  185.886  163.374 i
 47.4  153.295  163.199 i
 47.45  166.233  163.019 i
 47.5  164.029  162.84 i
 47.55  136.24  162.643 i
 47.6  164.497  162.446 i
 47.65  158.5  162.244 i
 47.7  147.811  162.041 i
 47.75  172.456  161.856 i
 47.8  141.321  161.671 i
 47.85  139.498  161.515 i
 47.9  159.368  161.359 i
 47.95  165.795  161.218 i
 48  176.86  161.076 i
 48.05  156.003  160.926 i
 48.1  142.004  160.777 i
 48.15  158.826  160.608 i
 48.2  190.028  160.44 i
 48.25  142.761  160.266 i
 48.3  190.83  160.092 i
 48.35  164.602  159.935 i
 48.4  156.463  159.777 i
 48.45  150.83  159.642 i
 48.5  171.583  159.508 i
 48.55  158.125  159.384 i
 48.6  129.461  159.259 i
 48.65  130.64  159.124 i
 48.7  179.525  158.989 i
 48.75  175.335  158.837 i
 48.8  139.09  158.685 i
 48.85  159.508  158.529 i
 48.9  143.38  158.373 i
 48.95  141.091  158.232 i
 49  144.225  158.09 i
 49.05  158.648  157.974 i
 49.1  172.9  157.858 i
 49.15  147.739  157.744 i
 49.2  138.144  157.63 i
 49.25  156.41  157.505 i
 49.3  144.108  157.38 i
 49.35  150.429  157.239 i
 49.4  182.963  157.097 i
 49.45  163.824  156.953 i
 49.5  160.342  156.809 i
 49.55  130.799  156.679 i
 49.6  168.523  156.549 i
 49.65  154.24  156.438 i
 49.7  158.713  156.326 i
 49.75  175.642  156.219 i
 49.8  154.545  156.113 i
 49.85  168.213  155.994 i
 49.9  167.939  155.876 i
 49.95  156.21  155.743 i
 50  154.179  155.61 i
 50.05  151.736  155.475 i
 50.1  174.065  155.341 i
 50.15  143.303  155.221 i
 50.2  138.239  155.101 i
 50.25  167.627  154.997 i
 50.3  171.167  154.893 i
 50.35  150.419  154.792 i
 50.4  149.472  154.69 i
 50.45  172.504  154.578 i
 50.5  153.595  154.465 i
 50.55  144.262  154.339 i
 50.6  158.152  154.213 i
 50.65  164.444  154.087 i
 50.7  163.752  153.962 i
 50.75  148.354  153.85 i
 50.8  166.634  153.738 i
 50.85  155.833  153.64 i
 50.9  174.727  153.543 i
 50.95  164.434  153.447 i
 51  141.173  153.351 i
 51.05  148.375  153.243 i
 51.1  131.372  153.136 i
 51.15  156.188  153.017 i
 51.2  150.339  152.898 i
 51.25  154.816  152.78 i
 51.3  145.467  152.662 i
 51.35  129.698  152.557 i
 51.4  141.791  152.453 i
 51.45  154.61  152.361 i
 51.5  158.17  152.27 i
 51.55  145.678  152.179 i
 51.6  147.723  152.088 i
 51.65  154.735  151.986 i
 51.7  146.803  151.884 i
 51.75  142.205  151.771 i
 51.8  147.645  151.659 i
 51.85  148.085  151.548 i
 51.9  141.292  151.437 i
 51.95  158.302  151.34 i
 52  166.483  151.242 i
 52.05  147.783  151.156 i
 52.1  140.942  151.071 i
 52.15  162.488  150.985 i
 52.2  148.469  150.899 i
 52.25  172.846  150.803 i
 52.3  152.53  150.706 i
 52.35  150.206  150.6 i
 52.4  154  150.494 i
 52.45  153.215  150.391 i
 52.5  152.407  150.287 i
 52.55  128.135  150.196 i
 52.6  130.972  150.105 i
 52.65  157.162  150.025 i
 52.7  140.894  149.945 i
 52.75  139.354  149.865 i
 52.8  154.677  149.785 i
 52.85  152.874  149.694 i
 52.9  149.533  149.603 i
 52.95  173.244  149.504 i
 53  167.483  149.405 i
 53.05  163.025  149.308 i
 53.1  166.024  149.211 i
 53.15  127.613  149.127 i
 53.2  160.269  149.042 i
 53.25  143.906  148.969 i
 53.3  141.712  148.895 i
 53.35  159.102  148.82 i
 53.4  144.137  148.746 i
 53.45  150.597  148.661 i
 53.5  160.266  148.576 i
 53.55  148.022  148.484 i
 53.6  142.658  148.391 i
 53.65  140.691  148.301 i
 53.7  171.338  148.211 i
 53.75  168.771  148.134 i
 53.8  156.949  148.056 i
 53.85  159.506  147.988 i
 53.9  147.52  147.92 i
 53.95  152.404  147.852 i
 54  140.387  147.783 i
 54.05  149.654  147.705 i
 54.1  153.862  147.627 i
 54.15  136.351  147.541 i
 54.2  155.765  147.456 i
 54.25  150.459  147.373 i
 54.3  143.15  147.29 i
 54.35  158.637  147.219 i
 54.4  167.853  147.147 i
 54.45  135.99  147.086 i
 54.5  147.605  147.024 i
 54.55  146.825  146.962 i
 54.6  133.914  146.9 i
 54.65  137.255  146.829 i
 54.7  145.943  146.758 i
 54.75  130.756  146.679 i
 54.8  157.768  146.601 i
 54.85  139.501  146.525 i
 54.9  150.48  146.449 i
 54.95  140.582  146.384 i
 55  142.525  146.32 i
 55.05  162.124  146.265 i
 55.1  145.503  146.21 i
 55.15  134.163  146.154 i
 55.2  141.378  146.099 i
 55.25  130.85  146.035 i
 55.3  154.971  145.972 i
 55.35  145.465  145.9 i
 55.4  162.067  145.829 i
 55.45  139.022  145.76 i
 55.5  151.976  145.691 i
 55.55  155.003  145.632 i
 55.6  163.69  145.573 i
 55.65  146.756  145.524 i
 55.7  136.404  145.474 i
 55.75  150.116  145.425 i
 55.8  146.248  145.375 i
 55.85  132.594  145.317 i
 55.9  157.92  145.259 i
 55.95  143.964  145.193 i
 56  146.45  145.128 i
 56.05  137.79  145.063 i
 56.1  145.363  144.999 i
 56.15  163.515  144.944 i
 56.2  165.154  144.89 i
 56.25  159.777  144.845 i
 56.3  124.925  144.8 i
 56.35  143.573  144.755 i
 56.4  149.685  144.711 i
 56.45  141.643  144.658 i
 56.5  142.574  144.605 i
 56.55  135.476  144.545 i
 56.6  157.623  144.484 i
 56.65  129.184  144.424 i
 56.7  171.258  144.364 i
 56.75  155.496  144.314 i
 56.8  137.025  144.263 i
 56.85  133.557  144.222 i
 56.9  137.702  144.181 i
 56.95  155.109  144.142 i
 57  146.212  144.102 i
 57.05  141.38  144.055 i
 57.1  152.76  144.007 i
 57.15  151.461  143.952 i
 57.2  149.886  143.896 i
 57.25  167.165  143.84 i
 57.3  145.124  143.785 i
 57.35  154.615  143.738 i
 57.4  172.079  143.691 i
 57.45  152.976  143.654 i
 57.5  132.32  143.617 i
 57.55  144.005  143.581 i
 57.6  156.042  143.546 i
 57.65  137.234  143.504 i
 57.7  144.924  143.462 i
 57.75  147.158  143.411 i
 57.8  147.7  143.361 i
 57.85  152.202  143.309 i
 57.9  125.961  143.257 i
 57.95  143.236  143.214 i
 58  170.506  143.17 i
 58.05  159.792  143.136 i
 58.1  152.579  143.103 i
 58.15  148.595  143.072 i
 58.2  140.141  143.041 i
 58.25  136.211  143.005 i
 58.3  145.96  142.968 i
 58.35  138.224  142.922 i
 58.4  162.359  142.876 i
 58.45  135.877  142.828 i
 58.5  151.355  142.781 i
 58.55  138.537  142.74 i
 58.6  122.776  142.699 i
 58.65  132.864  142.668 i
 58.7  153.136  142.638 i
 58.75  144.008  142.611 i
 58.8  136.867  142.585 i
 58.85  148.078  142.553 i
 58.9  122.426  142.522 i
 58.95  157.477  142.481 i
 59  141.632  142.44 i
 59.05  128.993  142.396 i
 59.1  158.085  142.352 i
 59.15  149.362  142.314 i
 59.2  132.947  142.276 i
 59.25  124.011  142.248 i
 59.3  146.155  142.22 i
 59.35  151.201  142.198 i
 59.4  141.966  142.175 i
 59.45  142.117  142.149 i
 59.5  165.256  142.123 i
 59.55  132.052  142.087 i
 59.6  133.193  142.052 i
 59.65  149.771  142.011 i
 59.7  146.748  141.971 i
 59.75  157.744  141.936 i
 59.8  151.312  141.9 i
 59.85  153.163  141.799 i
 59.9  133.8  141.698 i
 59.95  155.1  141.67 i
 60  153.297  141.643 i
 60.05  154.725  141.616 i
 60.1  145.74  141.59 i
 60.15  140.177  141.563 i
 60.2  138.161  141.537 i
 60.25  127.122  141.51 i
 60.3  142.869  141.482 i
 60.35  158.978  141.455 i
 60.4  130.772  141.428 i
 60.45  146.013  141.402 i
 60.5  118.207  141.376 i
 60.55  143.872  141.352 i
 60.6  132.641  141.328 i
 60.65  145.076  141.306 i
 60.7  140.183  141.284 i
 60.75  127.136  141.262 i
 60.8  113.829  141.24 i
 60.85  157.775  141.217 i
 60.9  130.931  141.194 i
 60.95  137.998  141.171 i
 61  156.828  141.148 i
 61.05  133.739  141.126 i
 61.1  135.585  141.104 i
 61.15  120.893  141.084 i
 61.2  139.841  141.065 i
 61.25  158.048  141.048 i
 61.3  162.613  141.03 i
 61.35  157.123  141.014 i
 61.4  150.305  140.997 i
 61.45  150.486  140.98 i
 61.5  112.96  140.963 i
 61.55  158.076  140.946 i
 61.6  130.155  140.928 i
 61.65  138.988  140.912 i
 61.7  150.395  140.896 i
 61.75  160.518  140.883 i
 61.8  147.674  140.869 i
 61.85  150.737  140.859 i
 61.9  146.483  140.849 i
 61.95  137.011  140.841 i
 62  129.409  140.833 i
 62.05  124.843  140.825 i
 62.1  141.238  140.818 i
 62.15  134.779  140.811 i
 62.2  148.232  140.804 i
 62.25  147.55  140.799 i
 62.3  151.254  140.793 i
 62.35  120.734  140.793 i
 62.4  119.74  140.792 i
 62.45  122.499  140.797 i
 62.5  142.347  140.802 i
 62.55  136.059  140.814 i
 62.6  147.179  140.825 i
 62.65  139.2  140.841 i
 62.7  134.085  140.857 i
 62.75  130.394  140.879 i
 62.8  135.938  140.9 i
 62.85  150.359  140.93 i
 62.9  134.19  140.96 i
 62.95  146.48  141.004 i
 63  145.593  141.048 i
 63.05  134.049  141.113 i
 63.1  142.501  141.178 i
 63.15  144.749  141.271 i
 63.2  132.906  141.364 i
 63.25  140.395  141.496 i
 63.3  141.22  141.628 i
 63.35  141.622  141.813 i
 63.4  132.745  141.998 i
 63.45  147.916  142.255 i
 63.5  151.829  142.513 i
 63.55  147.064  142.872 i
 63.6  125.399  143.23 i
 63.65  161.233  143.742 i
 63.7  153.555  144.254 i
 63.75  137.597  145.016 i
 63.8  123.499  145.777 i
 63.85  139.721  146.958 i
 63.9  160.843  148.138 i
 63.95  151.88  150.043 i
 64  138.81  151.947 i
 64.05  176.476  155.146 i
 64.1  171.974  158.345 i
 64.15  182.75  163.131 i
 64.2  166.959  169.489 i
 64.25  203.495  177.97 i
 64.3  209.405  189.266 i
 64.35  199.255  204.161 i
 64.4  218.58  223.352 i
 64.45  230.215  247.226 i
 64.5  261.536  274.177 i
 64.55  309.8  301.807 i
 64.6  320.648  325.24 i
 64.65  330.511  338.531 i
 64.7  341.421  337.844 i
 64.75  367.245  323.244 i
 64.8  278.523  298.82 i
 64.85  268.486  270.444 i
 64.9  232.231  243.131 i
 64.95  212.512  219.923 i
 65  218.809  200.871 i
 65.05  200.301  186.436 i
 65.1  163.765  175.571 i
 65.15  159.721  168.484 i
 65.2  159.318  161.397 i
 65.25  164.889  157.401 i
 65.3  163.988  153.406 i
 65.35  168.203  151.077 i
 65.4  142.514  148.748 i
 65.45  139.278  147.334 i
 65.5  130.196  145.92 i
 65.55  142.05  145.025 i
 65.6  131.958  144.129 i
 65.65  152.535  143.539 i
 65.7  151.27  142.949 i
 65.75  153.181  142.542 i
 65.8  141.261  142.135 i
 65.85  154.007  141.841 i
 65.9  121.788  141.548 i
 65.95  139.191  141.33 i
 66  137.541  141.111 i
 66.05  135.601  140.947 i
 66.1  135.443  140.782 i
 66.15  150.471  140.657 i
 66.2  124.43  140.531 i
 66.25  132.905  140.436 i
 66.3  148.197  140.34 i
 66.35  124.944  140.266 i
 66.4  146.006  140.192 i
 66.45  132.958  140.132 i
 66.5  158.006  140.073 i
 66.55  144.465  140.022 i
 66.6  133.469  139.971 i
 66.65  126.189  139.926 i
 66.7  127.496  139.881 i
 66.75  140.725  139.841 i
 66.8  151.493  139.802 i
 66.85  124.967  139.769 i
 66.9  137.204  139.736 i
 66.95  129.905  139.709 i
 67  148.42  139.681 i
 67.05  164.378  139.658 i
 67.1  138.886  139.635 i
 67.15  148.505  139.613 i
 67.2  134.603  139.591 i
 67.25  136.177  139.57 i
 67.3  139.178  139.549 i
 67.35  152.315  139.528 i
 67.4  139.718  139.508 i
 67.45  140.207  139.489 i
 67.5  156.145  139.471 i
 67.55  133.49  139.455 i
 67.6  143.387  139.44 i
 67.65  146.698  139.426 i
 67.7  127.207  139.413 i
 67.75  135.618  139.4 i
 67.8  135.181  139.388 i
 67.85  129.529  139.374 i
 67.9  97.7016  139.361 i
 67.95  142.74  139.347 i
 68  142.417  139.333 i
 68.05  144.525  139.32 i
 68.1  125.233  139.307 i
 68.15  134.321  139.296 i
 68.2  137.131  139.284 i
 68.25  138.864  139.275 i
 68.3  140.009  139.265 i
 68.35  149.248  139.256 i
 68.4  152.433  139.247 i
 68.45  134.782  139.237 i
 68.5  125.763  139.227 i
 68.55  145.072  139.216 i
 68.6  135.7  139.205 i
 68.65  153.486  139.195 i
 68.7  142.428  139.184 i
 68.75  137.416  139.174 i
 68.8  143.082  139.164 i
 68.85  148.769  139.156 i
 68.9  134.889  139.148 i
 68.95  154.422  139.14 i
 69  155.342  139.132 i
 69.05  135.756  139.124 i
 69.1  119.993  139.116 i
 69.15  151.411  139.107 i
 69.2  137.353  139.098 i
 69.25  125.928  139.088 i
 69.3  160.657  139.078 i
 69.35  162.679  139.069 i
 69.4  131.776  139.06 i
 69.45  144.246  139.052 i
 69.5  128.073  139.044 i
 69.55  136.645  139.037 i
 69.6  152.485  139.03 i
 69.65  135.193  139.022 i
 69.7  119.401  139.015 i
 69.75  123.267  139.007 i
 69.8  132.083  138.998 i
 69.85  160.735  138.989 i
 69.9  141.453  138.98 i
 69.95  128.522  138.971 i
 70  130.772  138.961 i
 70.05  148.951  138.953 i
 70.1  140.181  138.945 i
 70.15  152.206  138.937 i
 70.2  144.276  138.93 i
 70.25  137.333  138.923 i
 70.3  152.897  138.916 i
 70.35  145.098  138.908 i
 70.4  120.94  138.901 i
 70.45  113.303  138.891 i
 70.5  141.813  138.882 i
 70.55  143.817  138.873 i
 70.6  136.596  138.863 i
 70.65  137.836  138.854 i
 70.7  151.616  138.845 i
 70.75  142.02  138.837 i
 70.8  150.198  138.829 i
 70.85  152.441  138.822 i
 70.9  164.566  138.814 i
 70.95  138.202  138.807 i
 71  128.648  138.799 i
 71.05  139.184  138.79 i
 71.1  122.133  138.781 i
 71.15  141.234  138.771 i
 71.2  143.619  138.76 i
 71.25  145.084  138.75 i
 71.3  136.647  138.74 i
 71.35  150.327  138.731 i
 71.4  140.64  138.722 i
 71.45  139.695  138.714 i
 71.5  154.661  138.706 i
 71.55  148.881  138.698 i
 71.6  131.287  138.69 i
 71.65  130.726  138.681 i
 71.7  152.124  138.671 i
 71.75  138.65  138.661 i
 71.8  162.199  138.65 i
 71.85  157.138  138.639 i
 71.9  148.392  138.627 i
 71.95  127.696  138.617 i
 72  125.338  138.606 i
 72.05  140.893  138.597 i
 72.1  132.257  138.587 i
 72.15  131.674  138.578 i
 72.2  127.774  138.57 i
 72.25  150.537  138.56 i
 72.3  139.334  138.551 i
 72.35  127.554  138.54 i
 72.4  134.909  138.529 i
 72.45  146.101  138.516 i
 72.5  126.109  138.504 i
 72.55  137.74  138.491 i
 72.6  122.008  138.479 i
 72.65  125.361  138.468 i
 72.7  146.974  138.456 i
 72.75  136.231  138.446 i
 72.8  133.045  138.436 i
 72.85  126.665  138.426 i
 72.9  124.41  138.415 i
 72.95  123.174  138.404 i
 73  125.042  138.393 i
 73.05  141.243  138.38 i
 73.1  145.32  138.366 i
 73.15  138.222  138.352 i
 73.2  145.946  138.338 i
 73.25  142.395  138.324 i
 73.3  139.376  138.311 i
 73.35  140.755  138.298 i
 73.4  118.31  138.286 i
 73.45  115.304  138.275 i
 73.5  148.694  138.263 i
 73.55  143.523  138.251 i
 73.6  121.342  138.239 i
 73.65  132.283  138.225 i
 73.7  143.687  138.212 i
 73.75  129.119  138.196 i
 73.8  153.749  138.181 i
 73.85  154.707  138.165 i
 73.9  122.882  138.149 i
 73.95  147.998  138.135 i
 74  151.77  138.121 i
 74.05  145.276  138.108 i
 74.1  128.069  138.096 i
 74.15  148.283  138.085 i
 74.2  133.82  138.073 i
 74.25  144.548  138.061 i
 74.3  157.02  138.049 i
 74.35  137.326  138.036 i
 74.4  146.524  138.023 i
 74.45  145.119  138.008 i
 74.5  144.071  137.994 i
 74.55  156.316  137.98 i
 74.6  160.839  137.966 i
 74.65  150.397  137.954 i
 74.7  130.723  137.942 i
 74.75  114.394  137.931 i
 74.8  169.68  137.921 i
 74.85  128.572  137.912 i
 74.9  124.218  137.902 i
 74.95  150.256  137.892 i
 75  135.018  137.881 i
 75.05  136.534  137.869 i
 75.1  137.377  137.856 i
 75.15  143.491  137.843 i
 75.2  149.066  137.83 i
 75.25  143.691  137.818 i
 75.3  146.344  137.806 i
 75.35  131.727  137.796 i
 75.4  124.648  137.787 i
 75.45  147.504  137.779 i
 75.5  131.948  137.771 i
 75.55  145.797  137.763 i
 75.6  139.882  137.755 i
 75.65  141.99  137.746 i
 75.7  122.517  137.736 i
 75.75  156.167  137.725 i
 75.8  151.375  137.714 i
 75.85  147.213  137.702 i
 75.9  140.707  137.691 i
 75.95  134.532  137.681 i
 76  126.469  137.671 i
 76.05  125.997  137.663 i
 76.1  156.654  137.656 i
 76.15  143.49  137.65 i
 76.2  114.369  137.645 i
 76.25  142.486  137.639 i
 76.3  136.388  137.632 i
 76.35  117.347  137.624 i
 76.4  135.539  137.616 i
 76.45  134.443  137.606 i
 76.5  126.522  137.597 i
 76.55  120.107  137.587 i
 76.6  120.577  137.577 i
 76.65  145.668  137.57 i
 76.7  123.432  137.562 i
 76.75  132.025  137.557 i
 76.8  134.459  137.553 i
 76.85  136.558  137.549 i
 76.9  126.628  137.546 i
 76.95  148.23  137.542 i
 77  129.345  137.538 i
 77.05  148.875  137.532 i
 77.1  144.057  137.525 i
 77.15  140.06  137.517 i
 77.2  146.295  137.509 i
 77.25  130.748  137.502 i
 77.3  142.253  137.495 i
 77.35  131.137  137.49 i
 77.4  120.042  137.485 i
 77.45  152.496  137.484 i
 77.5  136.643  137.483 i
 77.55  148.404  137.483 i
 77.6  121.943  137.483 i
 77.65  148.047  137.482 i
 77.7  115.623  137.48 i
 77.75  140.534  137.477 i
 77.8  129.334  137.473 i
 77.85  131.713  137.468 i
 77.9  146.788  137.463 i
 77.95  144.371  137.459 i
 78  135.67  137.456 i
 78.05  143.857  137.455 i
 78.1  140.317  137.455 i
 78.15  154.219  137.459 i
 78.2  128.744  137.462 i
 78.25  128.383  137.468 i
 78.3  145.207  137.473 i
 78.35  122.921  137.477 i
 78.4  130.352  137.481 i
 78.45  129.826  137.483 i
 78.5  137.429  137.485 i
 78.55  133.548  137.486 i
 78.6  133.643  137.486 i
 78.65  154.209  137.489 i
 78.7  138.4  137.492 i
 78.75  127.431  137.5 i
 78.8  139.47  137.508 i
 78.85  141.705  137.521 i
 78.9  110.55  137.535 i
 78.95  142.603  137.551 i
 79  146.145  137.567 i
 79.05  162.743  137.583 i
 79.1  149.293  137.599 i
 79.15  123.723  137.614 i
 79.2  117.914  137.629 i
 79.25  119.107  137.649 i
 79.3  133.226  137.67 i
 79.35  135.232  137.69 i
 79.4  145.457  137.711 i
 79.45  150.708  137.741 i
 79.5  137.431  137.771 i
 79.55  136.439  137.809 i
 79.6  148.586  137.848 i
 79.65  130.297  137.895 i
 79.7  140.438  137.941 i
 79.75  130.377  137.993 i
 79.8  157.99  138.045 i
 79.85  151.915  138.103 i
 79.9  143.558  138.16 i
 79.95  138.41  138.229 i
 80  147.226  138.297 i
 80.05  143.558  138.383 i
 80.1  140.665  138.47 i
 80.15  138.211  138.583 i
 80.2  138.018  138.696 i
 80.25  132.349  138.844 i
 80.3  140.629  138.991 i
 80.35  124.544  139.181 i
 80.4  127.06  139.371 i
 80.45  148.329  139.616 i
 80.5  138.324  139.861 i
 80.55  165.661  140.187 i
 80.6  150.972  140.512 i
 80.65  157.258  140.96 i
 80.7  139.545  141.409 i
 80.75  148.384  142.037 i
 80.8  151.801  142.666 i
 80.85  170.136  143.532 i
 80.9  134.685  144.399 i
 80.95  133.002  145.6 i
 81  147.03  146.8 i
 81.05  132.999  148.533 i
 81.1  141.742  150.266 i
 81.15  158.257  152.893 i
 81.2  174.393  155.521 i
 81.25  171.551  159.702 i
 81.3  166.513  163.884 i
 81.35  178.063  169.94 i
 81.4  179.3  177.862 i
 81.45  204.532  188.349 i
 81.5  206.215  202.395 i
 81.55  210.659  221.781 i
 81.6  269.855  247.292 i
 81.65  306.157  282.822 i
 81.7  351.092  330.106 i
 81.75  389.442  392.114 i
 81.8  460.077  467.986 i
 81.85  504.695  550.987 i
 81.9  598.328  626.244 i
 81.95  664.122  673.392 i
 82  711.266  676.858 i
 82.05  665.249  634.675 i
 82.1  605.131  561.191 i
 82.15  446.428  476.914 i
 82.2  387.762  398.558 i
 82.25  325.002  334.157 i
 82.3  315.375  284.82 i
 82.35  214.839  248.325 i
 82.4  227.852  221.673 i
 82.45  195.327  202.21 i
 82.5  198.93  187.899 i
 82.55  182.439  177.267 i
 82.6  169.558  169.275 i
 82.65  168.705  163.889 i
 82.7  143.705  158.503 i
 82.75  143.626  155.23 i
 82.8  151.741  151.956 i
 82.85  132.824  149.869 i
 82.9  159.809  147.781 i
 82.95  153.605  146.388 i
 83  149.709  144.995 i
 83.05  126.656  144.025 i
 83.1  143.426  143.054 i
 83.15  116.83  142.355 i
 83.2  151.767  141.656 i
 83.25  133.398  141.147 i
 83.3  163.323  140.638 i
 83.35  140.637  140.264 i
 83.4  134.313  139.889 i
 83.45  130.47  139.605 i
 83.5  144.121  139.321 i
 83.55  137.361  139.098 i
 83.6  145.386  138.875 i
 83.65  126.472  138.697 i
 83.7  161.392  138.519 i
 83.75  122.358  138.377 i
 83.8  128.588  138.235 i
 83.85  153.408  138.122 i
 83.9  127.077  138.01 i
 83.95  155.844  137.92 i
 84  141.297  137.831 i
 84.05  145.083  137.756 i
 84.1  116.31  137.682 i
 84.15  130.377  137.617 i
 84.2  127.919  137.551 i
 84.25  122.929  137.491 i
 84.3  116.723  137.431 i
 84.35  140.745  137.376 i
 84.4  140.506  137.321 i
 84.45  135.473  137.273 i
 84.5  105.048  137.225 i
 84.55  134.844  137.185 i
 84.6  147.053  137.146 i
 84.65  132.057  137.114 i
 84.7  147.976  137.081 i
 84.75  129.458  137.054 i
 84.8  128.095  137.027 i
 84.85  145.869  137.002 i
 84.9  137.787  136.976 i
 84.95  129.125  136.95 i
 85  152.214  136.924 i
 85.05  144.279  136.897 i
 85.1  163.722  136.87 i
 85.15  145.076  136.844 i
 85.2  129.601  136.819 i
 85.25  117.088  136.797 i
 85.3  116.193  136.775 i
 85.35  142.902  136.757 i
 85.4  142.681  136.74 i
 85.45  132.914  136.725 i
 85.5  124.767  136.711 i
 85.55  157.526  136.698 i
 85.6  138.934  136.684 i
 85.65  142.595  136.669 i
 85.7  139.824  136.654 i
 85.75  117.948  136.637 i
 85.8  135.793  136.62 i
 85.85  148.499  136.603 i
 85.9  119.613  136.585 i
 85.95  114.103  136.569 i
 86  130.333  136.553 i
 86.05  127.006  136.54 i
 86.1  129.446  136.527 i
 86.15  117.523  136.517 i
 86.2  154.726  136.506 i
 86.25  146.42  136.497 i
 86.3  135.904  136.487 i
 86.35  148.16  136.477 i
 86.4  157.496  136.467 i
 86.45  130.695  136.454 i
 86.5  120.831  136.442 i
 86.55  130.308  136.428 i
 86.6  150.619  136.414 i
 86.65  131.556  136.4 i
 86.7  140.344  136.387 i
 86.75  139.509  136.375 i
 86.8  163.004  136.363 i
 86.85  119.993  136.354 i
 86.9  132.554  136.344 i
 86.95  124.979  136.336 i
 87  132.807  136.328 i
 87.05  164.876  136.32 i
 87.1  127.65  136.311 i
 87.15  139.6  136.301 i
 87.2  118.027  136.291 i
 87.25  123.902  136.279 i
 87.3  134.109  136.267 i
 87.35  153.615  136.254 i
 87.4  139.273  136.242 i
 87.45  123.776  136.23 i
 87.5  142.138  136.218 i
 87.55  143.163  136.208 i
 87.6  105.558  136.199 i
 87.65  124.726  136.19 i
 87.7  145.818  136.182 i
 87.75  152.282  136.174 i
 87.8  137.017  136.166 i
 87.85  143.851  136.157 i
 87.9  140.344  136.148 i
 87.95  125.726  136.137 i
 88  144.864  136.126 i
 88.05  127.415  136.114 i
 88.1  126.272  136.102 i
 88.15  145.195  136.09 i
 88.2  130.615  136.078 i
 88.25  120.483  136.067 i
 88.3  124.556  136.057 i
 88.35  139.319  136.047 i
 88.4  125.23  136.038 i
 88.45  133.329  136.03 i
 88.5  133.263  136.021 i
 88.55  111.466  136.013 i
 88.6  113.017  136.004 i
 88.65  110.233  135.993 i
 88.7  137.59  135.983 i
 88.75  123.447  135.971 i
 88.8  150.322  135.959 i
 88.85  140.599  135.947 i
 88.9  147.298  135.935 i
 88.95  139.978  135.923 i
 89  124.049  135.911 i
 89.05  152.231  135.901 i
 89.1  128.147  135.89 i
 89.15  119.055  135.881 i
 89.2  131.76  135.871 i
 89.25  126.549  135.862 i
 89.3  144.644  135.852 i
 89.35  126.765  135.842 i
 89.4  146.489  135.832 i
 89.45  145.535  135.82 i
 89.5  152.646  135.809 i
 89.55  130.682  135.796 i
 89.6  148.911  135.783 i
 89.65  135.465  135.77 i
 89.7  148.066  135.758 i
 89.75  161.051  135.745 i
 89.8  161.312  135.733 i
 89.85  135.434  135.722 i
 89.9  145.149  135.712 i
 89.95  146.814  135.701 i
 90  140.155  135.691 i
 90.05  124.611  135.68 i
 90.1  122.566  135.669 i
 90.15  137.863  135.658 i
 90.2  138.945  135.646 i
 90.25  113.412  135.633 i
 90.3  131.418  135.621 i
 90.35  155.834  135.607 i
 90.4  136.164  135.594 i
 90.45  134.709  135.581 i
 90.5  137.844  135.567 i
 90.55  152.476  135.555 i
 90.6  142.705  135.543 i
 90.65  165.122  135.531 i
 90.7  141.183  135.52 i
 90.75  126.075  135.509 i
 90.8  140.366  135.498 i
 90.85  153.854  135.486 i
 90.9  133.728  135.475 i
 90.95  135.594  135.462 i
 91  135.506  135.449 i
 91.05  144.652  135.436 i
 91.1  137.991  135.422 i
 91.15  126.714  135.409 i
 91.2  135.818  135.395 i
 91.25  132.481  135.382 i
 91.3  131.787  135.368 i
 91.35  121.447  135.356 i
 91.4  118.445  135.343 i
 91.45  147.953  135.332 i
 91.5  154.985  135.32 i
 91.55  135.992  135.308 i
 91.6  140.597  135.296 i
 91.65  126.839  135.284 i
 91.7  123.575  135.271 i
 91.75  141.252  135.258 i
 91.8  135.088  135.245 i
 91.85  133.644  135.231 i
 91.9  140.867  135.217 i
 91.95  134.894  135.203 i
 92  129.182  135.19 i
 92.05  129.062  135.176 i
 92.1  130.41  135.163 i
 92.15  143.587  135.15 i
 92.2  135.008  135.137 i
 92.25  137.056  135.125 i
 92.3  133.336  135.113 i
 92.35  125.843  135.1 i
 92.4  144.075  135.088 i
 92.45  140.884  135.075 i
 92.5  129.527  135.063 i
 92.55  148.718  135.049 i
 92.6  132.593  135.036 i
 92.65  129.706  135.022 i
 92.7  138.888  135.008 i
 92.75  141.425  134.994 i
 92.8  131.182  134.981 i
 92.85  136.041  134.967 i
 92.9  154.144  134.954 i
 92.95  121.222  134.941 i
 93  126.711  134.929 i
 93.05  131.508  134.916 i
 93.1  138.353  134.904 i
 93.15  148.849  134.896 i
 93.2  129.769  134.888 i
 93.25  118.272  134.875 i
 93.3  130.326  134.863 i
 93.35  115.454  134.85 i
 93.4  140.871  134.837 i
 93.45  141.321  134.824 i
 93.5  141.794  134.811 i
 93.55  150.34  134.798 i
 93.6  131.178  134.785 i
 93.65  125.694  134.772 i
 93.7  112.98  134.759 i
 93.75  147.625  134.747 i
 93.8  133.999  134.735 i
 93.85  136.064  134.723 i
 93.9  131.583  134.711 i
 93.95  125.035  134.699 i
 94  135.307  134.687 i
 94.05  135.298  134.676 i
 94.1  135.937  134.664 i
 94.15  133.815  134.653 i
 94.2  125.644  134.641 i
 94.25  127.516  134.63 i
 94.3  140.337  134.618 i
 94.35  147.952  134.607 i
 94.4  128.428  134.596 i
 94.45  134.553  134.585 i
 94.5  125.738  134.574 i
 94.55  134.317  134.563 i
 94.6  143.995  134.553 i
 94.65  124.512  134.543 i
 94.7  140.696  134.533 i
 94.75  142.054  134.524 i
 94.8  132.555  134.515 i
 94.85  151.87  134.507 i
 94.9  124.9  134.499 i
 94.95  113.645  134.491 i
 95  136.738  134.484 i
 95.05  128.218  134.477 i
 95.1  133.709  134.47 i
 95.15  127.729  134.464 i
 95.2  129.541  134.458 i
 95.25  114.311  134.452 i
 95.3  122.217  134.447 i
 95.35  128.838  134.443 i
 95.4  137.186  134.439 i
 95.45  152.895  134.436 i
 95.5  125.757  134.434 i
 95.55  135.69  134.433 i
 95.6  128.607  134.433 i
 95.65  123.706  134.435 i
 95.7  137.644  134.437 i
 95.75  128.221  134.442 i
 95.8  168.635  134.447 i
 95.85  148.031  134.455 i
 95.9  136.05  134.463 i
 95.95  138.864  134.474 i
 96  130.843  134.485 i
 96.05  132.374  134.5 i
 96.1  147.34  134.515 i
 96.15  123.441  134.535 i
 96.2  133.335  134.556 i
 96.25  139.781  134.583 i
 96.3  120.677  134.61 i
 96.35  163.213  134.646 i
 96.4  149.279  134.682 i
 96.45  150.38  134.729 i
 96.5  146.056  134.777 i
 96.55  123.79  134.839 i
 96.6  127.614  134.902 i
 96.65  124.419  134.983 i
 96.7  115.879  135.063 i
 96.75  131.846  135.169 i
 96.8  137.873  135.274 i
 96.85  116.757  135.411 i
 96.9  118.563  135.549 i
 96.95  131.617  135.732 i
 97  148.751  135.915 i
 97.05  118.989  136.162 i
 97.1  124.781  136.409 i
 97.15  141.525  136.747 i
 97.2  125.639  137.086 i
 97.25  172.574  137.554 i
 97.3  149.385  138.023 i
 97.35  144.196  138.677 i
 97.4  156.262  139.331 i
 97.45  144.499  140.258 i
 97.5  138.676  141.185 i
 97.55  145.852  142.53 i
 97.6  144.339  143.875 i
 97.65  146.781  145.88 i
 97.7  144.304  147.886 i
 97.75  139.326  150.954 i
 97.8  167.157  154.022 i
 97.85  162.16  158.822 i
 97.9  174.864  163.621 i
 97.95  182.811  170.354 i
 98  194.183  178.84 i
 98.05  186.25  189.505 i
 98.1  219.844  202.799 i
 98.15  203.878  219.295 i
 98.2  241.143  238.623 i
 98.25  260.029  261.009 i
 98.3  246.812  285.17 i
 98.35  284.448  308.927 i
 98.4  336.064  329.471 i
 98.45  337.354  343.3 i
 98.5  365.141  347.904 i
 98.55  370.963  342.308 i
 98.6  374.65  327.953 i
 98.65  299.104  307.289 i
 98.7  317.33  283.685 i
 98.75  263.462  260.003 i
 98.8  224.147  238.18 i
 98.85  198.104  219.184 i
 98.9  188.776  203.26 i
 98.95  190.922  190.224 i
 99  187.031  179.698 i
 99.05  156.575  172.101 i
 99.1  170.215  164.505 i
 99.15  133.345  159.629 i
 99.2  140.46  154.752 i
 99.25  147.634  151.576 i
 99.3  138.641  148.399 i
 99.35  143.321  146.279 i
 99.4  138.435  144.159 i
 99.45  152.458  142.701 i
 99.5  131.858  141.243 i
 99.55  144.702  140.208 i
 99.6  143.341  139.173 i
 99.65  134.848  138.418 i
 99.7  132.053  137.664 i
 99.75  127.3  137.106 i
 99.8  160.929  136.548 i
 99.85  123.144  136.135 i
 99.9  137.049  135.722 i
 99.95  138.087  135.413 i
 100  142.987  135.104 i
 100.05  150.676  134.87 i
 100.1  130.863  134.636 i
 100.15  111.583  134.453 i
 100.2  141.573  134.27 i
 100.25  135.934  134.124 i
 100.3  138.797  133.977 i
 100.35  132.641  133.856 i
 100.4  131.783  133.735 i
 100.45  118.305  133.633 i
 100.5  136.608  133.531 i
 100.55  117.715  133.444 i
 100.6  143.051  133.358 i
 100.65  131.571  133.284 i
 100.7  141.058  133.21 i
 100.75  134.457  133.147 i
 100.8  135.208  133.085 i
 100.85  120.701  133.031 i
 100.9  133.198  132.977 i
 100.95  111.878  132.929 i
 101  127.614  132.881 i
 101.05  127.98  132.838 i
 101.1  135.022  132.794 i
 101.15  132.834  132.753 i
 101.2  125.468  132.713 i
 101.25  128.894  132.673 i
 101.3  118.164  132.634 i
 101.35  130.187  132.597 i
 101.4  125.474  132.56 i
 101.45  121.363  132.526 i
 101.5  135.36  132.491 i
 101.55  138.985  132.46 i
 101.6  135.693  132.429 i
 101.65  126.543  132.4 i
 101.7  124.012  132.372 i
 101.75  122.809  132.337 i
 101.8  133.151  132.301 i
 101.85  113.517  132.275 i
 101.9  132.213  132.25 i
 101.95  138.076  132.225 i
 102  139.763  132.199 i
 102.05  114.933  132.174 i
 102.1  116.588  132.149 i
 102.15  132.962  132.124 i
 102.2  126.964  132.099 i
 102.25  126.467  132.075 i
 102.3  133.141  132.052 i
 102.35  121.055  132.03 i
 102.4  128.745  132.008 i
 102.45  149.057  131.988 i
 102.5  130.751  131.967 i
 102.55  133.719  131.948 i
 102.6  139.613  131.929 i
 102.65  125.1  131.91 i
 102.7  131.795  131.891 i
 102.75  128.326  131.872 i
 102.8  130.268  131.853 i
 102.85  156.95  131.833 i
 102.9  114.164  131.813 i
 102.95  127.218  131.793 i
 103  118.427  131.772 i
 103.05  129.735  131.753 i
 103.1  150.178  131.733 i
 103.15  128.888  131.714 i
 103.2  101.768  131.695 i
 103.25  137.273  131.678 i
 103.3  133.916  131.66 i
 103.35  119.947  131.643 i
 103.4  146.247  131.627 i
 103.45  119.599  131.611 i
 103.5  147.635  131.594 i
 103.55  147.574  131.578 i
 103.6  133.211  131.562 i
 103.65  123.902  131.545 i
 103.7  155.653  131.528 i
 103.75  137.69  131.511 i
 103.8  133.467  131.493 i
 103.85  124.459  131.476 i
 103.9  122.21  131.458 i
 103.95  107.239  131.441 i
 104  125.266  131.424 i
 104.05  147.16  131.407 i
 104.1  147.672  131.391 i
 104.15  134.773  131.376 i
 104.2  165.35  131.36 i
 104.25  147.589  131.346 i
 104.3  123.286  131.331 i
 104.35  121.708  131.317 i
 104.4  135.856  131.302 i
 104.45  122.912  131.288 i
 104.5  121.773  131.273 i
 104.55  136.019  131.257 i
 104.6  133.996  131.242 i
 104.65  131.738  131.226 i
 104.7  141.306  131.211 i
 104.75  126.324  131.195 i
 104.8  152.701  131.179 i
 104.85  122.817  131.164 i
 104.9  124.578  131.148 i
 104.95  101.643  131.134 i
 105  123.098  131.119 i
 105.05  132.056  131.105 i
 105.1  131.725  131.092 i
 105.15  136.202  131.078 i
 105.2  135.646  131.065 i
 105.25  115.56  131.052 i
 105.3  143.352  131.039 i
 105.35  141.128  131.025 i
 105.4  145.924  131.012 i
 105.45  133.808  130.998 i
 105.5  123.95  130.984 i
 105.55  129.628  130.969 i
 105.6  152.657  130.955 i
 105.65  120.07  130.941 i
 105.7  129.575  130.926 i
 105.75  133.053  130.913 i
 105.8  125.057  130.899 i
 105.85  140.701  130.886 i
 105.9  122.137  130.873 i
 105.95  133.027  130.86 i
 106  128.247  130.848 i
 106.05  144.33  130.836 i
 106.1  141.639  130.824 i
 106.15  127.596  130.812 i
 106.2  158.327  130.8 i
 106.25  121.987  130.788 i
 106.3  125.807  130.776 i
 106.35  138.727  130.763 i
 106.4  142.884  130.75 i
 106.45  130.742  130.737 i
 106.5  145.772  130.724 i
 106.55  152.392  130.711 i
 106.6  146.789  130.699 i
 106.65  115.388  130.686 i
 106.7  144.187  130.674 i
 106.75  122.066  130.662 i
 106.8  149.708  130.651 i
 106.85  141.821  130.64 i
 106.9  154.882  130.628 i
 106.95  123.046  130.618 i
 107  127.553  130.607 i
 107.05  149.219  130.596 i
 107.1  144.087  130.585 i
 107.15  146.08  130.574 i
 107.2  133.005  130.562 i
 107.25  143.305  130.551 i
 107.3  145.992  130.539 i
 107.35  127.079  130.527 i
 107.4  128.064  130.515 i
 107.45  120.371  130.503 i
 107.5  131.568  130.491 i
 107.55  133.09  130.48 i
 107.6  131.528  130.468 i
 107.65  121.289  130.458 i
 107.7  156.768  130.447 i
 107.75  157.89  130.436 i
 107.8  140.151  130.426 i
 107.85  126.105  130.416 i
 107.9  136.475  130.406 i
 107.95  149.214  130.396 i
 108  129.046  130.386 i
 108.05  130.244  130.375 i
 108.1  125.16  130.365 i
 108.15  125.472  130.354 i
 108.2  130.705  130.343 i
 108.25  140.851  130.332 i
 108.3  141.185  130.321 i
 108.35  135.332  130.31 i
 108.4  125.159  130.299 i
 108.45  119.391  130.289 i
 108.5  110.737  130.278 i
 108.55  132.314  130.268 i
 108.6  120.163  130.258 i
 108.65  128.429  130.249 i
 108.7  138.125  130.24 i
 108.75  144.802  130.23 i
 108.8  139.25  130.221 i
 108.85  134.838  130.212 i
 108.9  149.2  130.203 i
 108.95  126.91  130.194 i
 109  139.302  130.184 i
 109.05  133.252  130.174 i
 109.1  154.234  130.165 i
 109.15  123.06  130.155 i
 109.2  128.391  130.145 i
 109.25  126.519  130.135 i
 109.3  128.422  130.126 i
 109.35  137.817  130.116 i
 109.4  120.443  130.107 i
 109.45  128.093  130.099 i
 109.5  129.727  130.09 i
 109.55  145.619  130.082 i
 109.6  115.686  130.074 i
 109.65  119.05  130.066 i
 109.7  145.259  130.058 i
 109.75  137.869  130.05 i
 109.8  137.044  130.043 i
 109.85  139.399  130.035 i
 109.9  125.194  130.027 i
 109.95  109.076  130.019 i
 110  126.943  130.011 i
 110.05  141.042  130.003 i
 110.1  126.496  129.995 i
 110.15  128.75  129.987 i
 110.2  109.656  129.98 i
 110.25  130.134  129.972 i
 110.3  126.052  129.965 i
 110.35  121.503  129.959 i
 110.4  142.062  129.952 i
 110.45  110.39  129.946 i
 110.5  115.841  129.94 i
 110.55  141.82  129.935 i
 110.6  148.602  129.93 i
 110.65  144.466  129.925 i
 110.7  121.793  129.92 i
 110.75  143.516  129.915 i
 110.8  143.572  129.91 i
 110.85  132.897  129.906 i
 110.9  136.431  129.901 i
 110.95  124.515  129.896 i
 111  128.487  129.892 i
 111.05  134.621  129.888 i
 111.1  126.259  129.884 i
 111.15  122.644  129.881 i
 111.2  132.669  129.878 i
 111.25  138.609  129.876 i
 111.3  146.964  129.874 i
 111.35  131.536  129.873 i
 111.4  124.193  129.872 i
 111.45  126.172  129.873 i
 111.5  132.314  129.873 i
 111.55  147.7  129.875 i
 111.6  133.525  129.876 i
 111.65  146.304  129.879 i
 111.7  150.64  129.881 i
 111.75  152.998  129.885 i
 111.8  130.106  129.888 i
 111.85  153.156  129.893 i
 111.9  120.802  129.897 i
 111.95  146.08  129.904 i
 112  131.582  129.91 i
 112.05  126.566  129.918 i
 112.1  132.277  129.927 i
 112.15  139.864  129.938 i
 112.2  136.182  129.949 i
 112.25  128.657  129.964 i
 112.3  107.909  129.978 i
 112.35  142.482  129.996 i
 112.4  141.262  130.014 i
 112.45  124.297  130.036 i
 112.5  144.623  130.058 i
 112.55  134.865  130.085 i
 112.6  135.184  130.111 i
 112.65  125.433  130.143 i
 112.7  122.692  130.174 i
 112.75  142.37  130.212 i
 112.8  124.466  130.25 i
 112.85  129.157  130.295 i
 112.9  151.004  130.34 i
 112.95  131.28  130.395 i
 113  137.241  130.45 i
 113.05  123.29  130.517 i
 113.1  122.13  130.584 i
 113.15  146.065  130.667 i
 113.2  141.336  130.749 i
 113.25  130.917  130.85 i
 113.3  140.45  130.951 i
 113.35  142.343  131.075 i
 113.4  124.249  131.199 i
 113.45  116.702  131.352 i
 113.5  138.825  131.505 i
 113.55  132.953  131.694 i
 113.6  135.456  131.883 i
 113.65  142.621  132.119 i
 113.7  158.513  132.355 i
 113.75  112.036  132.651 i
 113.8  130.444  132.946 i
 113.85  136.612  133.32 i
 113.9  135.735  133.694 i
 113.95  136.768  134.169 i
 114  147.775  134.644 i
 114.05  139.289  135.252 i
 114.1  154.911  135.86 i
 114.15  140.61  136.641 i
 114.2  141.484  137.422 i
 114.25  150.022  138.429 i
 114.3  142.789  139.435 i
 114.35  137.165  140.734 i
 114.4  152.403  142.033 i
 114.45  151.154  143.708 i
 114.5  153.288  145.384 i
 114.55  139.612  147.539 i
 114.6  163.078  149.695 i
 114.65  178.026  152.283 i
 114.7  148.601  155.202 i
 114.75  172.432  158.677 i
 114.8  158.8  162.153 i
 114.85  175.112  166.239 i
 114.9  172.069  170.756 i
 114.95  159.111  175.922 i
 115  160.883  181.088 i
 115.05  188.102  186.858 i
 115.1  195.133  192.96 i
 115.15  203.149  199.312 i
 115.2  215.544  205.767 i
 115.25  216.401  212.174 i
 115.3  206.661  218.374 i
 115.35  188.052  224.114 i
 115.4  209.292  229.181 i
 115.45  235.502  233.296 i
 115.5  235.709  236.443 i
 115.55  212.81  238.215 i
 115.6  250.678  238.8 i
 115.65  259.057  237.952 i
 115.7  256.104  235.792 i
 115.75  280.439  232.412 i
 115.8  267.731  228.043 i
 115.85  270.399  222.825 i
 115.9  210.814  217.002 i
 115.95  200.296  210.783 i
 116  199.851  204.405 i
 116.05  177.68  198.017 i
 116.1  172.603  191.776 i
 116.15  166.998  185.796 i
 116.2  156.707  180.155 i
 116.25  172.394  174.906 i
 116.3  158.014  170.075 i
 116.35  179.636  165.67 i
 116.4  160.134  161.683 i
 116.45  149.813  158.284 i
 116.5  151.705  154.885 i
 116.55  136.58  152.179 i
 116.6  171.973  149.474 i
 116.65  143.829  147.344 i
 116.7  135.178  145.213 i
 116.75  174.594  143.544 i
 116.8  152.487  141.875 i
 116.85  142.01  140.569 i
 116.9  152.162  139.263 i
 116.95  133.596  138.241 i
 117  133.806  137.218 i
 117.05  146.878  136.415 i
 117.1  154.726  135.612 i
 117.15  162.671  134.979 i
 117.2  118.649  134.346 i
 117.25  130.606  133.844 i
 117.3  131.755  133.342 i
 117.35  152.171  132.941 i
 117.4  118.571  132.541 i
 117.45  143.987  132.219 i
 117.5  145.333  131.897 i
 117.55  133.098  131.636 i
 117.6  105.557  131.375 i
 117.65  134.697  131.161 i
 117.7  140.393  130.947 i
 117.75  148.542  130.77 i
 117.8  132.942  130.593 i
 117.85  132.212  130.444 i
 117.9  136.028  130.296 i
 117.95  136.216  130.171 i
 118  142.961  130.045 i
 118.05  117.53  129.939 i
 118.1  151.676  129.832 i
 118.15  150.01  129.741 i
 118.2  125.3  129.65 i
 118.25  134.089  129.572 i
 118.3  142.791  129.494 i
 118.35  150.753  129.426 i
 118.4  125.849  129.359 i
 118.45  131.301  129.3 i
 118.5  165.776  129.242 i
 118.55  141.374  129.19 i
 118.6  123.181  129.139 i
 118.65  108.642  129.093 i
 118.7  112.538  129.047 i
 118.75  137.733  129.005 i
 118.8  135.344  128.964 i
 118.85  158.241  128.926 i
 118.9  129.455  128.888 i
 118.95  124.355  128.853 i
 119  144.174  128.818 i
 119.05  141.102  128.786 i
 119.1  132.971  128.754 i
 119.15  133.68  128.724 i
 119.2  150.965  128.695 i
 119.25  126.006  128.668 i
 119.3  126.654  128.641 i
 119.35  130.072  128.616 i
 119.4  135.666  128.591 i
 119.45  115.25  128.569 i
 119.5  128.127  128.547 i
 119.55  136.955  128.526 i
 119.6  126.061  128.505 i
 119.65  127.408  128.486 i
 119.7  133.197  128.467 i
 119.75  153.165  128.448 i
 119.8  147.52  128.43 i
 119.85  157.56  128.412 i
 119.9  151.752  128.394 i
 119.95  120.743  128.377 i
 120  116.985  128.359 i
 120.05  118.117  128.342 i
 120.1  146.007  128.325 i
 120.15  133.016  128.309 i
 120.2  125.345  128.292 i
 120.25  128.9  128.277 i
 120.3  129.751  128.261 i
 120.35  125.016  128.246 i
 120.4  138.936  128.231 i
 120.45  141.776  128.217 i
 120.5  106.861  128.203 i
 120.55  118.38  128.19 i
 120.6  128.795  128.178 i
 120.65  131.147  128.165 i
 120.7  124.779  128.153 i
 120.75  143.255  128.141 i
 120.8  130.19  128.129 i
 120.85  120.652  128.117 i
 120.9  144.536  128.106 i
 120.95  147.612  128.094 i
 121  153.194  128.082 i
 121.05  126.082  128.07 i
 121.1  128.014  128.058 i
 121.15  131.768  128.046 i
 121.2  165.762  128.033 i
 121.25  122.471  128.021 i
 121.3  145.156  128.009 i
 121.35  127.495  127.998 i
 121.4  107.237  127.986 i
 121.45  133.459  127.975 i
 121.5  132.166  127.964 i
 121.55  128.107  127.953 i
 121.6  137.196  127.943 i
 121.65  125.72  127.933 i
 121.7  116.398  127.923 i
 121.75  126.562  127.914 i
 121.8  137.163  127.904 i
 121.85  139.258  127.895 i
 121.9  136.469  127.885 i
 121.95  129.785  127.876 i
 122  124.376  127.866 i
 122.05  136.584  127.857 i
 122.1  102.681  127.847 i
 122.15  130.688  127.837 i
 122.2  137.37  127.827 i
 122.25  143.542  127.817 i
 122.3  128.19  127.806 i
 122.35  108.567  127.796 i
 122.4  149.128  127.786 i
 122.45  132.851  127.776 i
 122.5  127.095  127.766 i
 122.55  134.247  127.756 i
 122.6  120.167  127.747 i
 122.65  144.736  127.732 i
 122.7  148.466  127.718 i
 122.75  106.909  127.71 i
 122.8  134.048  127.701 i
 122.85  116.895  127.692 i
 122.9  116.575  127.683 i
 122.95  137.542  127.674 i
 123  118.226  127.665 i
 123.05  123.676  127.657 i
 123.1  124.586  127.648 i
 123.15  141.795  127.639 i
 123.2  142.863  127.63 i
 123.25  131.444  127.621 i
 123.3  127.164  127.612 i
 123.35  135.273  127.603 i
 123.4  140.807  127.594 i
 123.45  128.65  127.586 i
 123.5  132.546  127.577 i
 123.55  115.993  127.568 i
 123.6  111.673  127.559 i
 123.65  157.475  127.55 i
 123.7  131.965  127.541 i
 123.75  108.061  127.533 i
 123.8  130.299  127.524 i
 123.85  132.567  127.516 i
 123.9  146.928  127.507 i
 123.95  138.785  127.499 i
 124  145.705  127.491 i
 124.05  111.797  127.482 i
 124.1  118.365  127.474 i
 124.15  143.63  127.466 i
 124.2  131.228  127.458 i
 124.25  131.319  127.449 i
 124.3  137.63  127.441 i
 124.35  125.471  127.433 i
 124.4  109.903  127.424 i
 124.45  131.948  127.416 i
 124.5  123.914  127.407 i
 124.55  123.844  127.399 i
 124.6  115.561  127.39 i
 124.65  123.216  127.382 i
 124.7  111.904  127.373 i
 124.75  153.767  127.365 i
 124.8  127.337  127.356 i
 124.85  139.554  127.348 i
 124.9  144.028  127.34 i
 124.95  121.629  127.332 i
 125  125.245  127.323 i
 125.05  128.887  127.315 i
 125.1  125.035  127.307 i
 125.15  135.073  127.299 i
 125.2  134.191  127.291 i
 125.25  135.119  127.283 i
 125.3  119.604  127.275 i
 125.35  119.997  127.267 i
 125.4  144.087  127.259 i
 125.45  129.897  127.251 i
 125.5  138.75  127.243 i
 125.55  154.697  127.235 i
 125.6  135.488  127.227 i
 125.65  107.511  127.219 i
 125.7  137.084  127.21 i
 125.75  128.248  127.202 i
 125.8  122.438  127.194 i
 125.85  126.518  127.185 i
 125.9  162  127.177 i
 125.95  140.876  127.169 i
 126  127.509  127.161 i
 126.05  140.92  127.153 i
 126.1  117.774  127.145 i
 126.15  141.693  127.137 i
 126.2  130.39  127.129 i
 126.25  140.553  127.121 i
 126.3  95.1566  127.113 i
 126.35  130.077  127.105 i
 126.4  122.707  127.097 i
 126.45  125.709  127.089 i
 126.5  142.766  127.081 i
 126.55  119.555  127.074 i
 126.6  129.78  127.066 i
 126.65  137.922  127.058 i
 126.7  140.083  127.05 i
 126.75  139.496  127.041 i
 126.8  120.459  127.033 i
 126.85  128.734  127.025 i
 126.9  121.424  127.017 i
 126.95  153.697  127.009 i
 127  125.915  127.001 i
 127.05  108.189  126.992 i
 127.1  121.206  126.984 i
 127.15  141.167  126.976 i
 127.2  118.666  126.968 i
 127.25  144.446  126.96 i
 127.3  146.125  126.952 i
 127.35  155.684  126.944 i
 127.4  121.723  126.936 i
 127.45  106.971  126.928 i
 127.5  136.629  126.92 i
 127.55  123.583  126.913 i
 127.6  131.851  126.905 i
 127.65  126.821  126.897 i
 127.7  126.036  126.889 i
 127.75  141.19  126.881 i
 127.8  143.829  126.873 i
 127.85  141.251  126.865 i
 127.9  114.569  126.857 i
 127.95  135.755  126.849 i
 128  140.064  126.841 i
 128.05  139.477  126.833 i
 128.1  122.805  126.825 i
 128.15  120.934  126.817 i
 128.2  129.862  126.808 i
 128.25  138.85  126.8 i
 128.3  133.901  126.792 i
 128.35  146.613  126.784 i
 128.4  136.942  126.776 i
 128.45  119.493  126.768 i
 128.5  158.865  126.76 i
 128.55  113.589  126.752 i
 128.6  127.525  126.744 i
 128.65  143.085  126.736 i
 128.7  136.291  126.728 i
 128.75  149.962  126.72 i
 128.8  126.069  126.712 i
 128.85  126.14  126.704 i
 128.9  130.545  126.696 i
 128.95  137.626  126.689 i
 129  151.279  126.681 i
 129.05  120.491  126.673 i
 129.1  123.434  126.665 i
 129.15  131.638  126.656 i
 129.2  139.837  126.648 i
 129.25  118.476  126.64 i
 129.3  147.976  126.632 i
 129.35  122.299  126.624 i
 129.4  142.354  126.616 i
 129.45  135.773  126.607 i
 129.5  111.338  126.599 i
 129.55  128.254  126.591 i
 129.6  141.035  126.583 i
 129.65  130.733  126.574 i
 129.7  125.015  126.566 i
 129.75  130.54  126.558 i
 129.8  139.286  126.55 i
 129.85  128.463  126.542 i
 129.9  141.662  126.534 i
 129.95  118.272  126.583 i
 130  121.831  126.631 i

