40 154.645 182.218 -27.573
40.05 160.046 182.082 -22.036
40.1 155.925 181.945 -26.02
40.15 182.16 181.829 0.331
40.2 167.123 181.712 -14.589
40.25 190.707 181.611 9.096
40.3 166.193 181.51 -15.317
40.35 187.989 181.404 6.585
40.4 182.778 181.299 1.479
40.45 184.839 181.174 3.665
40.5 196.45 181.049 15.401
40.55 203.181 180.914 22.267
40.6 161.02 180.778 -19.758
40.65 154.809 180.654 -25.845
40.7 165.742 180.53 -14.788
40.75 167.974 180.431 -12.457
40.8 180.293 180.331 -0.038
40.85 186.602 180.245 6.357
40.9 163.216 180.159 -16.943
40.95 171.588 180.063 -8.475
41 170.302 179.966 -9.664
41.05 174.593 179.85 -5.257
41.1 175.125 179.734 -4.609
41.15 190.341 179.614 10.727
41.2 193.645 179.493 14.152
41.25 154.21 179.393 -25.183
41.3 196.497 179.293 17.204
41.35 162.853 179.222 -16.369
41.4 184.616 179.151 5.465
41.45 200.889 179.091 21.798
41.5 205.555 179.031 26.524
41.55 169.697 178.958 -9.261
41.6 166.223 178.885 -12.662
41.65 157.41 178.795 -21.385
41.7 145.054 178.705 -33.651
41.75 188.595 178.621 9.974
41.8 202.155 178.537 23.618
41.85 183.474 178.485 4.989
41.9 163.211 178.434 -15.223
41.95 174.574 178.419 -3.845
42 176.374 178.404 -2.03
42.05 184.154 178.403 5.751
42.1 185.928 178.402 7.526
42.15 168.428 178.393 -9.965
42.2 161.387 178.383 -16.996
42.25 173.377 178.368 -4.991
42.3 170.469 178.353 -7.884
42.35 192.151 178.366 13.785
42.4 193.416 178.378 15.038
42.45 189.152 178.449 10.703
42.5 177.815 178.52 -0.705
42.55 180.992 178.653 2.339
42.6 166.634 178.786 -12.152
42.65 184.686 178.96 5.726
42.7 184.306 179.133 5.173
42.75 175.201 179.333 -4.132
42.8 197.514 179.534 17.98
42.85 174.246 179.786 -5.54
42.9 150.995 180.037 -29.042
42.95 180.281 180.4 -0.119
43 190.444 180.763 9.681
43.05 187.615 181.304 6.311
43.1 196.794 181.844 14.95
43.15 184.055 182.631 1.424
43.2 211.195 183.418 27.777
43.25 201.238 184.625 16.613
43.3 216.036 185.831 30.205
43.35 210.025 187.546 22.479
43.4 200.555 189.506 11.049
43.45 240.819 191.591 49.228
43.5 201.208 193.875 7.333
43.55 199.209 196.78 2.429
43.6 226.276 199.685 26.591
43.65 225.213 203.534 21.679
43.7 231.504 208.275 23.229
43.75 192.415 214.182 -21.767
43.8 236.631 221.638 14.993
43.85 217.608 231.2 -13.592
43.9 233.704 243.697 -9.993
43.95 276.652 260.407 16.245
44 324.788 283.35 41.438
44.05 396.081 315.859 80.222
44.1 380.071 363.693 16.378
44.15 530.599 437.466 93.133
44.2 646.717 558.178 88.539
44.25 826.23 769.87 56.36
44.3 1249.16 1161.01 88.15
44.35 1932.44 1880.83 51.61
44.4 2948.6 3067.02 -118.42
44.45 4458.33 4599.93 -141.6
44.5 5663.88 5813.12 -149.24
44.55 5861.82 5757.32 104.5
44.6 4549.9 4324.46 225.44
44.65 2647.93 2612.02 35.91
44.7 1455.64 1487.29 -31.65
44.75 871.229 919.234 -48.005
44.8 574.759 634.532 -59.773
44.85 459.432 478.943 -19.511
44.9 340.382 386.067 -45.685
44.95 322.209 328.064 -5.855
45 272.842 288.934 -16.092
45.05 213.539 262.15 -48.611
45.1 212.152 242.991 -30.839
45.15 172.891 230.596 -57.705
45.2 195.208 218.2 -22.992
45.25 191.867 210.82 -18.953
45.3 183.495 203.441 -19.946
45.35 193.594 198.722 -5.128
45.4 196.327 194.003 2.324
45.45 176.412 190.826 -14.414
45.5 174.657 187.65 -12.993
45.55 182.325 185.404 -3.079
45.6 172.195 183.158 -10.963
45.65 178.456 181.442 -2.986
45.7 172.579 179.726 -7.147
45.75 166.016 178.305 -12.289
45.8 176.079 176.884 -0.805
45.85 159.284 175.775 -16.491
45.9 161.131 174.665 -13.534
45.95 179.75 173.804 5.946
46 148.12 172.943 -24.823
46.05 177.722 172.267 5.455
46.1 152.182 171.591 -19.409
46.15 163.504 171.046 -7.542
46.2 176.104 170.5 5.604
46.25 164.283 170.025 -5.742
46.3 169.63 169.55 0.08
46.35 144.033 169.104 -25.071
46.4 177.661 168.659 9.002
46.45 165.735 168.241 -2.506
46.5 156.939 167.824 -10.885
46.55 136.717 167.458 -30.741
46.6 156.981 167.091 -10.11
46.65 176.639 166.787 9.852
46.7 179.261 166.483 12.778
46.75 167.697 166.223 1.474
46.8 156.378 165.964 -9.586
46.85 153.629 165.714 -12.085
46.9 149.374 165.464 -16.09
46.95 160.999 165.204 -4.205
47 153.58 164.943 -11.363
47.05 159.604 164.682 -5.078
47.1 161.78 164.42 -2.64
47.15 154.59 164.184 -9.594
47.2 125.915 163.947 -38.032
47.25 168.862 163.748 5.114
47.3 189.413 163.549 25.864
47.35 185.886 163.374 22.512
47.4 153.295 163.199 -9.904
47.45 166.233 163.019 3.214
47.5 164.029 162.84 1.189
47.55 136.24 162.643 -26.403
47.6 164.497 162.446 2.051
47.65 158.5 162.244 -3.744
47.7 147.811 162.041 -14.23
47.75 172.456 161.856 10.6
47.8 141.321 161.671 -20.35
47.85 139.498 161.515 -22.017
47.9 159.368 161.359 -1.991
47.95 165.795 161.218 4.577
48 176.86 161.076 15.784
48.05 156.003 160.926 -4.923
48.1 142.004 160.777 -18.773
48.15 158.826 160.608 -1.782
48.2 190.028 160.44 29.588
48.25 142.761 160.266 -17.505
48.3 190.83 160.092 30.738
48.35 164.602 159.935 4.667
48.4 156.463 159.777 -3.314
48.45 150.83 159.642 -8.812
48.5 171.583 159.508 12.075
48.55 158.125 159.384 -1.259
48.6 129.461 159.259 -29.798
48.65 130.64 159.124 -28.484
48.7 179.525 158.989 20.536
48.75 175.335 158.837 16.498
48.8 139.09 158.685 -19.595
48.85 159.508 158.529 0.979
48.9 143.38 158.373 -14.993
48.95 141.091 158.232 -17.141
49 144.225 158.09 -13.865
49.05 158.648 157.974 0.674
49.1 172.9 157.858 15.042
49.15 147.739 157.744 -10.005
49.2 138.144 157.63 -19.486
49.25 156.41 157.505 -1.095
49.3 144.108 157.38 -13.272
49.35 150.429 157.239 -6.81
49.4 182.963 157.097 25.866
49.45 163.824 156.953 6.871
49.5 160.342 156.809 3.533
49.55 130.799 156.679 -25.88
49.6 168.523 156.549 11.974
49.65 154.24 156.438 -2.198
49.7 158.713 156.326 2.387
49.75 175.642 156.219 19.423
49.8 154.545 156.113 -1.568
49.85 168.213 155.994 12.219
49.9 167.939 155.876 12.063
49.95 156.21 155.743 0.467
50 154.179 155.61 -1.431
50.05 151.736 155.475 -3.739
50.1 174.065 155.341 18.724
50.15 143.303 155.221 -11.918
50.2 138.239 155.101 -16.862
50.25 167.627 154.997 12.63
50.3 171.167 154.893 16.274
50.35 150.419 154.792 -4.373
50.4 149.472 154.69 -5.218
50.45 172.504 154.578 17.926
50.5 153.595 154.465 -0.87
50.55 144.262 154.339 -10.077
50.6 158.152 154.213 3.939
50.65 164.444 154.087 10.357
50.7 163.752 153.962 9.79
50.75 148.354 153.85 -5.496
50.8 166.634 153.738 12.896
50.85 155.833 153.64 2.193
50.9 174.727 153.543 21.184
50.95 164.434 153.447 10.987
51 141.173 153.351 -12.178
51.05 148.375 153.243 -4.868
51.1 131.372 153.136 -21.764
51.15 156.188 153.017 3.171
51.2 150.339 152.898 -2.559
51.25 154.816 152.78 2.036
51.3 145.467 152.662 -7.195
51.35 129.698 152.557 -22.859
51.4 141.791 152.453 -10.662
51.45 154.61 152.361 2.249
51.5 158.17 152.27 5.9
51.55 145.678 152.179 -6.501
51.6 147.723 152.088 -4.365
51.65 154.735 151.986 2.749
51.7 146.803 151.884 -5.081
51.75 142.205 151.771 -9.566
51.8 147.645 151.659 -4.014
51.85 148.085 151.548 -3.463
51.9 141.292 151.437 -10.145
51.95 158.302 151.34 6.962
52 166.483 151.242 15.241
52.05 147.783 151.156 -3.373
52.1 140.942 151.071 -10.129
52.15 162.488 150.985 11.503
52.2 148.469 150.899 -2.43
52.25 172.846 150.803 22.043
52.3 152.53 150.706 1.824
52.35 150.206 150.6 -0.394
52.4 154 150.494 3.506
52.45 153.215 150.391 2.824
52.5 152.407 150.287 2.12
52.55 128.135 150.196 -22.061
52.6 130.972 150.105 -19.133
52.65 157.162 150.025 7.137
52.7 140.894 149.945 -9.051
52.75 139.354 149.865 -10.511
52.8 154.677 149.785 4.892
52.85 152.874 149.694 3.18
52.9 149.533 149.603 -0.07
52.95 173.244 149.504 23.74
53 167.483 149.405 18.078
53.05 163.025 149.308 13.717
53.1 166.024 149.211 16.813
53.15 127.613 149.127 -21.514
53.2 160.269 149.042 11.227
53.25 143.906 148.969 -5.063
53.3 141.712 148.895 -7.183
53.35 159.102 148.82 10.282
53.4 144.137 148.746 -4.609
53.45 150.597 148.661 1.936
53.5 160.266 148.576 11.69
53.55 148.022 148.484 -0.462
53.6 142.658 148.391 -5.733
53.65 140.691 148.301 -7.61
53.7 171.338 148.211 23.127
53.75 168.771 148.134 20.637
53.8 156.949 148.056 8.893
53.85 159.506 147.988 11.518
53.9 147.52 147.92 -0.4
53.95 152.404 147.852 4.552
54 140.387 147.783 -7.396
54.05 149.654 147.705 1.949
54.1 153.862 147.627 6.235
54.15 136.351 147.541 -11.19
54.2 155.765 147.456 8.309
54.25 150.459 147.373 3.086
54.3 143.15 147.29 -4.14
54.35 158.637 147.219 11.418
54.4 167.853 147.147 20.706
54.45 135.99 147.086 -11.096
54.5 147.605 147.024 0.581
54.55 146.825 146.962 -0.137
54.6 133.914 146.9 -12.986
54.65 137.255 146.829 -9.574
54.7 145.943 146.758 -0.815
54.75 130.756 146.679 -15.923
54.8 157.768 146.601 11.167
54.85 139.501 146.525 -7.024
54.9 150.48 146.449 4.031
54.95 140.582 146.384 -5.802
55 142.525 146.32 -3.795
55.05 162.124 146.265 15.859
55.1 145.503 146.21 -0.707
55.15 134.163 146.154 -11.991
55.2 141.378 146.099 -4.721
55.25 130.85 146.035 -15.185
55.3 154.971 145.972 8.999
55.35 145.465 145.9 -0.435
55.4 162.067 145.829 16.238
55.45 139.022 145.76 -6.738
55.5 151.976 145.691 6.285
55.55 155.003 145.632 9.371
55.6 163.69 145.573 18.117
55.65 146.756 145.524 1.232
55.7 136.404 145.474 -9.07
55.75 150.116 145.425 4.691
55.8 146.248 145.375 0.873
55.85 132.594 145.317 -12.723
55.9 157.92 145.259 12.661
55.95 143.964 145.193 -1.229
56 146.45 145.128 1.322
56.05 137.79 145.063 -7.273
56.1 145.363 144.999 0.364
56.15 163.515 144.944 18.571
56.2 165.154 144.89 20.264
56.25 159.777 144.845 14.932
56.3 124.925 144.8 -19.875
56.35 143.573 144.755 -1.182
56.4 149.685 144.711 4.974
56.45 141.643 144.658 -3.015
56.5 142.574 144.605 -2.031
56.55 135.476 144.545 -9.069
56.6 157.623 144.484 13.139
56.65 129.184 144.424 -15.24
56.7 171.258 144.364 26.894
56.75 155.496 144.314 11.182
56.8 137.025 144.263 -7.238
56.85 133.557 144.222 -10.665
56.9 137.702 144.181 -6.479
56.95 155.109 144.142 10.967
57 146.212 144.102 2.11
57.05 141.38 144.055 -2.675
57.1 152.76 144.007 8.753
57.15 151.461 143.952 7.509
57.2 149.886 143.896 5.99
57.25 167.165 143.84 23.325
57.3 145.124 143.785 1.339
57.35 154.615 143.738 10.877
57.4 172.079 143.691 28.388
57.45 152.976 143.654 9.322
57.5 132.32 143.617 -11.297
57.55 144.005 143.581 0.424
57.6 156.042 143.546 12.496
57.65 137.234 143.504 -6.27
57.7 144.924 143.462 1.462
57.75 147.158 143.411 3.747
57.8 147.7 143.361 4.339
57.85 152.202 143.309 8.893
57.9 125.961 143.257 -17.296
57.95 143.236 143.214 0.022
58 170.506 143.17 27.336
58.05 159.792 143.136 16.656
58.1 152.579 143.103 9.476
58.15 148.595 143.072 5.523
58.2 140.141 143.041 -2.9
58.25 136.211 143.005 -6.794
58.3 145.96 142.968 2.992
58.35 138.224 142.922 -4.698
58.4 162.359 142.876 19.483
58.45 135.877 142.828 -6.951
58.5 151.355 142.781 8.574
58.55 138.537 142.74 -4.203
58.6 122.776 142.699 -19.923
58.65 132.864 142.668 -9.804
58.7 153.136 142.638 10.498
58.75 144.008 142.611 1.397
58.8 136.867 142.585 -5.718
58.85 148.078 142.553 5.525
58.9 122.426 142.522 -20.096
58.95 157.477 142.481 14.996
59 141.632 142.44 -0.808
59.05 128.993 142.396 -13.403
59.1 158.085 142.352 15.733
59.15 149.362 142.314 7.048
59.2 132.947 142.276 -9.329
59.25 124.011 142.248 -18.237
59.3 146.155 142.22 3.935
59.35 151.201 142.198 9.003
59.4 141.966 142.175 -0.209
59.45 142.117 142.149 -0.032
59.5 165.256 142.123 23.133
59.55 132.052 142.087 -10.035
59.6 133.193 142.052 -8.859
59.65 149.771 142.011 7.76
59.7 146.748 141.971 4.777
59.75 157.744 141.936 15.808
59.8 151.312 141.9 9.412
59.85 153.163 141.799 11.364
59.9 133.8 141.698 -7.898
59.95 155.1 141.67 13.43
60 153.297 141.643 11.654
60.05 154.725 141.616 13.109
60.1 145.74 141.59 4.15
60.15 140.177 141.563 -1.386
60.2 138.161 141.537 -3.376
60.25 127.122 141.51 -14.388
60.3 142.869 141.482 1.387
60.35 158.978 141.455 17.523
60.4 130.772 141.428 -10.656
60.45 146.013 141.402 4.611
60.5 118.207 141.376 -23.169
60.55 143.872 141.352 2.52
60.6 132.641 141.328 -8.687
60.65 145.076 141.306 3.77
60.7 140.183 141.284 -1.101
60.75 127.136 141.262 -14.126
60.8 113.829 141.24 -27.411
60.85 157.775 141.217 16.558
60.9 130.931 141.194 -10.263
60.95 137.998 141.171 -3.173
61 156.828 141.148 15.68
61.05 133.739 141.126 -7.387
61.1 135.585 141.104 -5.519
61.15 120.893 141.084 -20.191
61.2 139.841 141.065 -1.224
61.25 158.048 141.048 17
61.3 162.613 141.03 21.583
61.35 157.123 141.014 16.109
61.4 150.305 140.997 9.308
61.45 150.486 140.98 9.506
61.5 112.96 140.963 -28.003
61.55 158.076 140.946 17.13
61.6 130.155 140.928 -10.773
61.65 138.988 140.912 -1.924
61.7 150.395 140.896 9.499
61.75 160.518 140.883 19.635
61.8 147.674 140.869 6.805
61.85 150.737 140.859 9.878
61.9 146.483 140.849 5.634
61.95 137.011 140.841 -3.83
62 129.409 140.833 -11.424
62.05 124.843 140.825 -15.982
62.1 141.238 140.818 0.42
62.15 134.779 140.811 -6.032
62.2 148.232 140.804 7.428
62.25 147.55 140.799 6.751
62.3 151.254 140.793 10.461
62.35 120.734 140.793 -20.059
62.4 119.74 140.792 -21.052
62.45 122.499 140.797 -18.298
62.5 142.347 140.802 1.545
62.55 136.059 140.814 -4.755
62.6 147.179 140.825 6.354
62.65 139.2 140.841 -1.641
62.7 134.085 140.857 -6.772
62.75 130.394 140.879 -10.485
62.8 135.938 140.9 -4.962
62.85 150.359 140.93 9.429
62.9 134.19 140.96 -6.77
62.95 146.48 141.004 5.476
63 145.593 141.048 4.545
63.05 134.049 141.113 -7.064
63.1 142.501 141.178 1.323
63.15 144.749 141.271 3.478
63.2 132.906 141.364 -8.458
63.25 140.395 141.496 -1.101
63.3 141.22 141.628 -0.408
63.35 141.622 141.813 -0.191
63.4 132.745 141.998 -9.253
63.45 147.916 142.255 5.661
63.5 151.829 142.513 9.316
63.55 147.064 142.872 4.192
63.6 125.399 143.23 -17.831
63.65 161.233 143.742 17.491
63.7 153.555 144.254 9.301
63.75 137.597 145.016 -7.419
63.8 123.499 145.777 -22.278
63.85 139.721 146.958 -7.237
63.9 160.843 148.138 12.705
63.95 151.88 150.043 1.837
64 138.81 151.947 -13.137
64.05 176.476 155.146 21.33
64.1 171.974 158.345 13.629
64.15 182.75 163.131 19.619
64.2 166.959 169.489 -2.53
64.25 203.495 177.97 25.525
64.3 209.405 189.266 20.139
64.35 199.255 204.161 -4.906
64.4 218.58 223.352 -4.772
64.45 230.215 247.226 -17.011
64.5 261.536 274.177 -12.641
64.55 309.8 301.807 7.993
64.6 320.648 325.24 -4.592
64.65 330.511 338.531 -8.02
64.7 341.421 337.844 3.577
64.75 367.245 323.244 44.001
64.8 278.523 298.82 -20.297
64.85 268.486 270.444 -1.958
64.9 232.231 243.131 -10.9
64.95 212.512 219.923 -7.411
65 218.809 200.871 17.938
65.05 200.301 186.436 13.865
65.1 163.765 175.571 -11.806
65.15 159.721 168.484 -8.763
65.2 159.318 161.397 -2.079
65.25 164.889 157.401 7.488
65.3 163.988 153.406 10.582
65.35 168.203 151.077 17.126
65.4 142.514 148.748 -6.234
65.45 139.278 147.334 -8.056
65.5 130.196 145.92 -15.724
65.55 142.05 145.025 -2.975
65.6 131.958 144.129 -12.171
65.65 152.535 143.539 8.996
65.7 151.27 142.949 8.321
65.75 153.181 142.542 10.639
65.8 141.261 142.135 -0.874
65.85 154.007 141.841 12.166
65.9 121.788 141.548 -19.76
65.95 139.191 141.33 -2.139
66 137.541 141.111 -3.57
66.05 135.601 140.947 -5.346
66.1 135.443 140.782 -5.339
66.15 150.471 140.657 9.814
66.2 124.43 140.531 -16.101
66.25 132.905 140.436 -7.531
66.3 148.197 140.34 7.857
66.35 124.944 140.266 -15.322
66.4 146.006 140.192 5.814
66.45 132.958 140.132 -7.174
66.5 158.006 140.073 17.933
66.55 144.465 140.022 4.443
66.6 133.469 139.971 -6.502
66.65 126.189 139.926 -13.737
66.7 127.496 139.881 -12.385
66.75 140.725 139.841 0.884
66.8 151.493 139.802 11.691
66.85 124.967 139.769 -14.802
66.9 137.204 139.736 -2.532
66.95 129.905 139.709 -9.804
67 148.42 139.681 8.739
67.05 164.378 139.658 24.72
67.1 138.886 139.635 -0.749
67.15 148.505 139.613 8.892
67.2 134.603 139.591 -4.988
67.25 136.177 139.57 -3.393
67.3 139.178 139.549 -0.371
67.35 152.315 139.528 12.787
67.4 139.718 139.508 0.21
67.45 140.207 139.489 0.718
67.5 156.145 139.471 16.674
67.55 133.49 139.455 -5.965
67.6 143.387 139.44 3.947
67.65 146.698 139.426 7.272
67.7 127.207 139.413 -12.206
67.75 135.618 139.4 -3.782
67.8 135.181 139.388 -4.207
67.85 129.529 139.374 -9.845
67.9 97.7016 139.361 -41.6594
67.95 142.74 139.347 3.393
68 142.417 139.333 3.084
68.05 144.525 139.32 5.205
68.1 125.233 139.307 -14.074
68.15 134.321 139.296 -4.975
68.2 137.131 139.284 -2.153
68.25 138.864 139.275 -0.411
68.3 140.009 139.265 0.744
68.35 149.248 139.256 9.992
68.4 152.433 139.247 13.186
68.45 134.782 139.237 -4.455
68.5 125.763 139.227 -13.464
68.55 145.072 139.216 5.856
68.6 135.7 139.205 -3.505
68.65 153.486 139.195 14.291
68.7 142.428 139.184 3.244
68.75 137.416 139.174 -1.758
68.8 143.082 139.164 3.918
68.85 148.769 139.156 9.613
68.9 134.889 139.148 -4.259
68.95 154.422 139.14 15.282
69 155.342 139.132 16.21
69.05 135.756 139.124 -3.368
69.1 119.993 139.116 -19.123
69.15 151.411 139.107 12.304
69.2 137.353 139.098 -1.745
69.25 125.928 139.088 -13.16
69.3 160.657 139.078 21.579
69.35 162.679 139.069 23.61
69.4 131.776 139.06 -7.284
69.45 144.246 139.052 5.194
69.5 128.073 139.044 -10.971
69.55 136.645 139.037 -2.392
69.6 152.485 139.03 13.455
69.65 135.193 139.022 -3.829
69.7 119.401 139.015 -19.614
69.75 123.267 139.007 -15.74
69.8 132.083 138.998 -6.915
69.85 160.735 138.989 21.746
69.9 141.453 138.98 2.473
69.95 128.522 138.971 -10.449
70 130.772 138.961 -8.189
70.05 148.951 138.953 9.998
70.1 140.181 138.945 1.236
70.15 152.206 138.937 13.269
70.2 144.276 138.93 5.346
70.25 137.333 138.923 -1.59
70.3 152.897 138.916 13.981
70.35 145.098 138.908 6.19
70.4 120.94 138.901 -17.961
70.45 113.303 138.891 -25.588
70.5 141.813 138.882 2.931
70.55 143.817 138.873 4.944
70.6 136.596 138.863 -2.267
70.65 137.836 138.854 -1.018
70.7 151.616 138.845 12.771
70.75 142.02 138.837 3.183
70.8 150.198 138.829 11.369
70.85 152.441 138.822 13.619
70.9 164.566 138.814 25.752
70.95 138.202 138.807 -0.605
71 128.648 138.799 -10.151
71.05 139.184 138.79 0.394
71.1 122.133 138.781 -16.648
71.15 141.234 138.771 2.463
71.2 143.619 138.76 4.859
71.25 145.084 138.75 6.334
71.3 136.647 138.74 -2.093
71.35 150.327 138.731 11.596
71.4 140.64 138.722 1.918
71.45 139.695 138.714 0.981
71.5 154.661 138.706 15.955
71.55 148.881 138.698 10.183
71.6 131.287 138.69 -7.403
71.65 130.726 138.681 -7.955
71.7 152.124 138.671 13.453
71.75 138.65 138.661 -0.011
71.8 162.199 138.65 23.549
71.85 157.138 138.639 18.499
71.9 148.392 138.627 9.765
71.95 127.696 138.617 -10.921
72 125.338 138.606 -13.268
72.05 140.893 138.597 2.296
72.1 132.257 138.587 -6.33
72.15 131.674 138.578 -6.904
72.2 127.774 138.57 -10.796
72.25 150.537 138.56 11.977
72.3 139.334 138.551 0.783
72.35 127.554 138.54 -10.986
72.4 134.909 138.529 -3.62
72.45 146.101 138.516 7.585
72.5 126.109 138.504 -12.395
72.55 137.74 138.491 -0.751
72.6 122.008 138.479 -16.471
72.65 125.361 138.468 -13.107
72.7 146.974 138.456 8.518
72.75 136.231 138.446 -2.215
72.8 133.045 138.436 -5.391
72.85 126.665 138.426 -11.761
72.9 124.41 138.415 -14.005
72.95 123.174 138.404 -15.23
73 125.042 138.393 -13.351
73.05 141.243 138.38 2.863
73.1 145.32 138.366 6.954
73.15 138.222 138.352 -0.13
73.2 145.946 138.338 7.608
73.25 142.395 138.324 4.071
73.3 139.376 138.311 1.065
73.35 140.755 138.298 2.457
73.4 118.31 138.286 -19.976
73.45 115.304 138.275 -22.971
73.5 148.694 138.263 10.431
73.55 143.523 138.251 5.272
73.6 121.342 138.239 -16.897
73.65 132.283 138.225 -5.942
73.7 143.687 138.212 5.475
73.75 129.119 138.196 -9.077
73.8 153.749 138.181 15.568
73.85 154.707 138.165 16.542
73.9 122.882 138.149 -15.267
73.95 147.998 138.135 9.863
74 151.77 138.121 13.649
74.05 145.276 138.108 7.168
74.1 128.069 138.096 -10.027
74.15 148.283 138.085 10.198
74.2 133.82 138.073 -4.253
74.25 144.548 138.061 6.487
74.3 157.02 138.049 18.971
74.35 137.326 138.036 -0.71
74.4 146.524 138.023 8.501
74.45 145.119 138.008 7.111
74.5 144.071 137.994 6.077
74.55 156.316 137.98 18.336
74.6 160.839 137.966 22.873
74.65 150.397 137.954 12.443
74.7 130.723 137.942 -7.219
74.75 114.394 137.931 -23.537
74.8 169.68 137.921 31.759
74.85 128.572 137.912 -9.34
74.9 124.218 137.902 -13.684
74.95 150.256 137.892 12.364
75 135.018 137.881 -2.863
75.05 136.534 137.869 -1.335
75.1 137.377 137.856 -0.479
75.15 143.491 137.843 5.648
75.2 149.066 137.83 11.236
75.25 143.691 137.818 5.873
75.3 146.344 137.806 8.538
75.35 131.727 137.796 -6.069
75.4 124.648 137.787 -13.139
75.45 147.504 137.779 9.725
75.5 131.948 137.771 -5.823
75.55 145.797 137.763 8.034
75.6 139.882 137.755 2.127
75.65 141.99 137.746 4.244
75.7 122.517 137.736 -15.219
75.75 156.167 137.725 18.442
75.8 151.375 137.714 13.661
75.85 147.213 137.702 9.511
75.9 140.707 137.691 3.016
75.95 134.532 137.681 -3.149
76 126.469 137.671 -11.202
76.05 125.997 137.663 -11.666
76.1 156.654 137.656 18.998
76.15 143.49 137.65 5.84
76.2 114.369 137.645 -23.276
76.25 142.486 137.639 4.847
76.3 136.388 137.632 -1.244
76.35 117.347 137.624 -20.277
76.4 135.539 137.616 -2.077
76.45 134.443 137.606 -3.163
76.5 126.522 137.597 -11.075
76.55 120.107 137.587 -17.48
76.6 120.577 137.577 -17
76.65 145.668 137.57 8.098
76.7 123.432 137.562 -14.13
76.75 132.025 137.557 -5.532
76.8 134.459 137.553 -3.094
76.85 136.558 137.549 -0.991
76.9 126.628 137.546 -10.918
76.95 148.23 137.542 10.688
77 129.345 137.538 -8.193
77.05 148.875 137.532 11.343
77.1 144.057 137.525 6.532
77.15 140.06 137.517 2.543
77.2 146.295 137.509 8.786
77.25 130.748 137.502 -6.754
77.3 142.253 137.495 4.758
77.35 131.137 137.49 -6.353
77.4 120.042 137.485 -17.443
77.45 152.496 137.484 15.012
77.5 136.643 137.483 -0.84
77.55 148.404 137.483 10.921
77.6 121.943 137.483 -15.54
77.65 148.047 137.482 10.565
77.7 115.623 137.48 -21.857
77.75 140.534 137.477 3.057
77.8 129.334 137.473 -8.139
77.85 131.713 137.468 -5.755
77.9 146.788 137.463 9.325
77.95 144.371 137.459 6.912
78 135.67 137.456 -1.786
78.05 143.857 137.455 6.402
78.1 140.317 137.455 2.862
78.15 154.219 137.459 16.76
78.2 128.744 137.462 -8.718
78.25 128.383 137.468 -9.085
78.3 145.207 137.473 7.734
78.35 122.921 137.477 -14.556
78.4 130.352 137.481 -7.129
78.45 129.826 137.483 -7.657
78.5 137.429 137.485 -0.056
78.55 133.548 137.486 -3.938
78.6 133.643 137.486 -3.843
78.65 154.209 137.489 16.72
78.7 138.4 137.492 0.908
78.75 127.431 137.5 -10.069
78.8 139.47 137.508 1.962
78.85 141.705 137.521 4.184
78.9 110.55 137.535 -26.985
78.95 142.603 137.551 5.052
79 146.145 137.567 8.578
79.05 162.743 137.583 25.16
79.1 149.293 137.599 11.694
79.15 123.723 137.614 -13.891
79.2 117.914 137.629 -19.715
79.25 119.107 137.649 -18.542
79.3 133.226 137.67 -4.444
79.35 135.232 137.69 -2.458
79.4 145.457 137.711 7.746
79.45 150.708 137.741 12.967
79.5 137.431 137.771 -0.34
79.55 136.439 137.809 -1.37
79.6 148.586 137.848 10.738
79.65 130.297 137.895 -7.598
79.7 140.438 137.941 2.497
79.75 130.377 137.993 -7.616
79.8 157.99 138.045 19.945
79.85 151.915 138.103 13.812
79.9 143.558 138.16 5.398
79.95 138.41 138.229 0.181
80 147.226 138.297 8.929
80.05 143.558 138.383 5.175
80.1 140.665 138.47 2.195
80.15 138.211 138.583 -0.372
80.2 138.018 138.696 -0.678
80.25 132.349 138.844 -6.495
80.3 140.629 138.991 1.638
80.35 124.544 139.181 -14.637
80.4 127.06 139.371 -12.311
80.45 148.329 139.616 8.713
80.5 138.324 139.861 -1.537
80.55 165.661 140.187 25.474
80.6 150.972 140.512 10.46
80.65 157.258 140.96 16.298
80.7 139.545 141.409 -1.864
80.75 148.384 142.037 6.347
80.8 151.801 142.666 9.135
80.85 170.136 143.532 26.604
80.9 134.685 144.399 -9.714
80.95 133.002 145.6 -12.598
81 147.03 146.8 0.23
81.05 132.999 148.533 -15.534
81.1 141.742 150.266 -8.524
81.15 158.257 152.893 5.364
81.2 174.393 155.521 18.872
81.25 171.551 159.702 11.849
81.3 166.513 163.884 2.629
81.35 178.063 169.94 8.123
81.4 179.3 177.862 1.438
81.45 204.532 188.349 16.183
81.5 206.215 202.395 3.82
81.55 210.659 221.781 -11.122
81.6 269.855 247.292 22.563
81.65 306.157 282.822 23.335
81.7 351.092 330.106 20.986
81.75 389.442 392.114 -2.672
81.8 460.077 467.986 -7.909
81.85 504.695 550.987 -46.292
81.9 598.328 626.244 -27.916
81.95 664.122 673.392 -9.27
82 711.266 676.858 34.408
82.05 665.249 634.675 30.574
82.1 605.131 561.191 43.94
82.15 446.428 476.914 -30.486
82.2 387.762 398.558 -10.796
82.25 325.002 334.157 -9.155
82.3 315.375 284.82 30.555
82.35 214.839 248.325 -33.486
82.4 227.852 221.673 6.179
82.45 195.327 202.21 -6.883
82.5 198.93 187.899 11.031
82.55 182.439 177.267 5.172
82.6 169.558 169.275 0.283
82.65 168.705 163.889 4.816
82.7 143.705 158.503 -14.798
82.75 143.626 155.23 -11.604
82.8 151.741 151.956 -0.215
82.85 132.824 149.869 -17.045
82.9 159.809 147.781 12.028
82.95 153.605 146.388 7.217
83 149.709 144.995 4.714
83.05 126.656 144.025 -17.369
83.1 143.426 143.054 0.372
83.15 116.83 142.355 -25.525
83.2 151.767 141.656 10.111
83.25 133.398 141.147 -7.749
83.3 163.323 140.638 22.685
83.35 140.637 140.264 0.373
83.4 134.313 139.889 -5.576
83.45 130.47 139.605 -9.135
83.5 144.121 139.321 4.8
83.55 137.361 139.098 -1.737
83.6 145.386 138.875 6.511
83.65 126.472 138.697 -12.225
83.7 161.392 138.519 22.873
83.75 122.358 138.377 -16.019
83.8 128.588 138.235 -9.647
83.85 153.408 138.122 15.286
83.9 127.077 138.01 -10.933
83.95 155.844 137.92 17.924
84 141.297 137.831 3.466
84.05 145.083 137.756 7.327
84.1 116.31 137.682 -21.372
84.15 130.377 137.617 -7.24
84.2 127.919 137.551 -9.632
84.25 122.929 137.491 -14.562
84.3 116.723 137.431 -20.708
84.35 140.745 137.376 3.369
84.4 140.506 137.321 3.185
84.45 135.473 137.273 -1.8
84.5 105.048 137.225 -32.177
84.55 134.844 137.185 -2.341
84.6 147.053 137.146 9.907
84.65 132.057 137.114 -5.057
84.7 147.976 137.081 10.895
84.75 129.458 137.054 -7.596
84.8 128.095 137.027 -8.932
84.85 145.869 137.002 8.867
84.9 137.787 136.976 0.811
84.95 129.125 136.95 -7.825
85 152.214 136.924 15.29
85.05 144.279 136.897 7.382
85.1 163.722 136.87 26.852
85.15 145.076 136.844 8.232
85.2 129.601 136.819 -7.218
85.25 117.088 136.797 -19.709
85.3 116.193 136.775 -20.582
85.35 142.902 136.757 6.145
85.4 142.681 136.74 5.941
85.45 132.914 136.725 -3.811
85.5 124.767 136.711 -11.944
85.55 157.526 136.698 20.828
85.6 138.934 136.684 2.25
85.65 142.595 136.669 5.926
85.7 139.824 136.654 3.17
85.75 117.948 136.637 -18.689
85.8 135.793 136.62 -0.827
85.85 148.499 136.603 11.896
85.9 119.613 136.585 -16.972
85.95 114.103 136.569 -22.466
86 130.333 136.553 -6.22
86.05 127.006 136.54 -9.534
86.1 129.446 136.527 -7.081
86.15 117.523 136.517 -18.994
86.2 154.726 136.506 18.22
86.25 146.42 136.497 9.923
86.3 135.904 136.487 -0.583
86.35 148.16 136.477 11.683
86.4 157.496 136.467 21.029
86.45 130.695 136.454 -5.759
86.5 120.831 136.442 -15.611
86.55 130.308 136.428 -6.12
86.6 150.619 136.414 14.205
86.65 131.556 136.4 -4.844
86.7 140.344 136.387 3.957
86.75 139.509 136.375 3.134
86.8 163.004 136.363 26.641
86.85 119.993 136.354 -16.361
86.9 132.554 136.344 -3.79
86.95 124.979 136.336 -11.357
87 132.807 136.328 -3.521
87.05 164.876 136.32 28.556
87.1 127.65 136.311 -8.661
87.15 139.6 136.301 3.299
87.2 118.027 136.291 -18.264
87.25 123.902 136.279 -12.377
87.3 134.109 136.267 -2.158
87.35 153.615 136.254 17.361
87.4 139.273 136.242 3.031
87.45 123.776 136.23 -12.454
87.5 142.138 136.218 5.92
87.55 143.163 136.208 6.955
87.6 105.558 136.199 -30.641
87.65 124.726 136.19 -11.464
87.7 145.818 136.182 9.636
87.75 152.282 136.174 16.108
87.8 137.017 136.166 0.851
87.85 143.851 136.157 7.694
87.9 140.344 136.148 4.196
87.95 125.726 136.137 -10.411
88 144.864 136.126 8.738
88.05 127.415 136.114 -8.699
88.1 126.272 136.102 -9.83
88.15 145.195 136.09 9.105
88.2 130.615 136.078 -5.463
88.25 120.483 136.067 -15.584
88.3 124.556 136.057 -11.501
88.35 139.319 136.047 3.272
88.4 125.23 136.038 -10.808
88.45 133.329 136.03 -2.701
88.5 133.263 136.021 -2.758
88.55 111.466 136.013 -24.547
88.6 113.017 136.004 -22.987
88.65 110.233 135.993 -25.76
88.7 137.59 135.983 1.607
88.75 123.447 135.971 -12.524
88.8 150.322 135.959 14.363
88.85 140.599 135.947 4.652
88.9 147.298 135.935 11.363
88.95 139.978 135.923 4.055
89 124.049 135.911 -11.862
89.05 152.231 135.901 16.33
89.1 128.147 135.89 -7.743
89.15 119.055 135.881 -16.826
89.2 131.76 135.871 -4.111
89.25 126.549 135.862 -9.313
89.3 144.644 135.852 8.792
89.35 126.765 135.842 -9.077
89.4 146.489 135.832 10.657
89.45 145.535 135.82 9.715
89.5 152.646 135.809 16.837
89.55 130.682 135.796 -5.114
89.6 148.911 135.783 13.128
89.65 135.465 135.77 -0.305
89.7 148.066 135.758 12.308
89.75 161.051 135.745 25.306
89.8 161.312 135.733 25.579
89.85 135.434 135.722 -0.288
89.9 145.149 135.712 9.437
89.95 146.814 135.701 11.113
90 140.155 135.691 4.464
90.05 124.611 135.68 -11.069
90.1 122.566 135.669 -13.103
90.15 137.863 135.658 2.205
90.2 138.945 135.646 3.299
90.25 113.412 135.633 -22.221
90.3 131.418 135.621 -4.203
90.35 155.834 135.607 20.227
90.4 136.164 135.594 0.57
90.45 134.709 135.581 -0.872
90.5 137.844 135.567 2.277
90.55 152.476 135.555 16.921
90.6 142.705 135.543 7.162
90.65 165.122 135.531 29.591
90.7 141.183 135.52 5.663
90.75 126.075 135.509 -9.434
90.8 140.366 135.498 4.868
90.85 153.854 135.486 18.368
90.9 133.728 135.475 -1.747
90.95 135.594 135.462 0.132
91 135.506 135.449 0.057
91.05 144.652 135.436 9.216
91.1 137.991 135.422 2.569
91.15 126.714 135.409 -8.695
91.2 135.818 135.395 0.423
91.25 132.481 135.382 -2.901
91.3 131.787 135.368 -3.581
91.35 121.447 135.356 -13.909
91.4 118.445 135.343 -16.898
91.45 147.953 135.332 12.621
91.5 154.985 135.32 19.665
91.55 135.992 135.308 0.684
91.6 140.597 135.296 5.301
91.65 126.839 135.284 -8.445
91.7 123.575 135.271 -11.696
91.75 141.252 135.258 5.994
91.8 135.088 135.245 -0.157
91.85 133.644 135.231 -1.587
91.9 140.867 135.217 5.65
91.95 134.894 135.203 -0.309
92 129.182 135.19 -6.008
92.05 129.062 135.176 -6.114
92.1 130.41 135.163 -4.753
92.15 143.587 135.15 8.437
92.2 135.008 135.137 -0.129
92.25 137.056 135.125 1.931
92.3 133.336 135.113 -1.777
92.35 125.843 135.1 -9.257
92.4 144.075 135.088 8.987
92.45 140.884 135.075 5.809
92.5 129.527 135.063 -5.536
92.55 148.718 135.049 13.669
92.6 132.593 135.036 -2.443
92.65 129.706 135.022 -5.316
92.7 138.888 135.008 3.88
92.75 141.425 134.994 6.431
92.8 131.182 134.981 -3.799
92.85 136.041 134.967 1.074
92.9 154.144 134.954 19.19
92.95 121.222 134.941 -13.719
93 126.711 134.929 -8.218
93.05 131.508 134.916 -3.408
93.1 138.353 134.904 3.449
93.15 148.849 134.896 13.953
93.2 129.769 134.888 -5.119
93.25 118.272 134.875 -16.603
93.3 130.326 134.863 -4.537
93.35 115.454 134.85 -19.396
93.4 140.871 134.837 6.034
93.45 141.321 134.824 6.497
93.5 141.794 134.811 6.983
93.55 150.34 134.798 15.542
93.6 131.178 134.785 -3.607
93.65 125.694 134.772 -9.078
93.7 112.98 134.759 -21.779
93.75 147.625 134.747 12.878
93.8 133.999 134.735 -0.736
93.85 136.064 134.723 1.341
93.9 131.583 134.711 -3.128
93.95 125.035 134.699 -9.664
94 135.307 134.687 0.62
94.05 135.298 134.676 0.622
94.1 135.937 134.664 1.273
94.15 133.815 134.653 -0.838
94.2 125.644 134.641 -8.997
94.25 127.516 134.63 -7.114
94.3 140.337 134.618 5.719
94.35 147.952 134.607 13.345
94.4 128.428 134.596 -6.168
94.45 134.553 134.585 -0.032
94.5 125.738 134.574 -8.836
94.55 134.317 134.563 -0.246
94.6 143.995 134.553 9.442
94.65 124.512 134.543 -10.031
94.7 140.696 134.533 6.163
94.75 142.054 134.524 7.53
94.8 132.555 134.515 -1.96
94.85 151.87 134.507 17.363
94.9 124.9 134.499 -9.599
94.95 113.645 134.491 -20.846
95 136.738 134.484 2.254
95.05 128.218 134.477 -6.259
95.1 133.709 134.47 -0.761
95.15 127.729 134.464 -6.735
95.2 129.541 134.458 -4.917
95.25 114.311 134.452 -20.141
95.3 122.217 134.447 -12.23
95.35 128.838 134.443 -5.605
95.4 137.186 134.439 2.747
95.45 152.895 134.436 18.459
95.5 125.757 134.434 -8.677
95.55 135.69 134.433 1.257
95.6 128.607 134.433 -5.826
95.65 123.706 134.435 -10.729
95.7 137.644 134.437 3.207
95.75 128.221 134.442 -6.221
95.8 168.635 134.447 34.188
95.85 148.031 134.455 13.576
95.9 136.05 134.463 1.587
95.95 138.864 134.474 4.39
96 130.843 134.485 -3.642
96.05 132.374 134.5 -2.126
96.1 147.34 134.515 12.825
96.15 123.441 134.535 -11.094
96.2 133.335 134.556 -1.221
96.25 139.781 134.583 5.198
96.3 120.677 134.61 -13.933
96.35 163.213 134.646 28.567
96.4 149.279 134.682 14.597
96.45 150.38 134.729 15.651
96.5 146.056 134.777 11.279
96.55 123.79 134.839 -11.049
96.6 127.614 134.902 -7.288
96.65 124.419 134.983 -10.564
96.7 115.879 135.063 -19.184
96.75 131.846 135.169 -3.323
96.8 137.873 135.274 2.599
96.85 116.757 135.411 -18.654
96.9 118.563 135.549 -16.986
96.95 131.617 135.732 -4.115
97 148.751 135.915 12.836
97.05 118.989 136.162 -17.173
97.1 124.781 136.409 -11.628
97.15 141.525 136.747 4.778
97.2 125.639 137.086 -11.447
97.25 172.574 137.554 35.02
97.3 149.385 138.023 11.362
97.35 144.196 138.677 5.519
97.4 156.262 139.331 16.931
97.45 144.499 140.258 4.241
97.5 138.676 141.185 -2.509
97.55 145.852 142.53 3.322
97.6 144.339 143.875 0.464
97.65 146.781 145.88 0.901
97.7 144.304 147.886 -3.582
97.75 139.326 150.954 -11.628
97.8 167.157 154.022 13.135
97.85 162.16 158.822 3.338
97.9 174.864 163.621 11.243
97.95 182.811 170.354 12.457
98 194.183 178.84 15.343
98.05 186.25 189.505 -3.255
98.1 219.844 202.799 17.045
98.15 203.878 219.295 -15.417
98.2 241.143 238.623 2.52
98.25 260.029 261.009 -0.98
98.3 246.812 285.17 -38.358
98.35 284.448 308.927 -24.479
98.4 336.064 329.471 6.593
98.45 337.354 343.3 -5.946
98.5 365.141 347.904 17.237
98.55 370.963 342.308 28.655
98.6 374.65 327.953 46.697
98.65 299.104 307.289 -8.185
98.7 317.33 283.685 33.645
98.75 263.462 260.003 3.459
98.8 224.147 238.18 -14.033
98.85 198.104 219.184 -21.08
98.9 188.776 203.26 -14.484
98.95 190.922 190.224 0.698
99 187.031 179.698 7.333
99.05 156.575 172.101 -15.526
99.1 170.215 164.505 5.71
99.15 133.345 159.629 -26.284
99.2 140.46 154.752 -14.292
99.25 147.634 151.576 -3.942
99.3 138.641 148.399 -9.758
99.35 143.321 146.279 -2.958
99.4 138.435 144.159 -5.724
99.45 152.458 142.701 9.757
99.5 131.858 141.243 -9.385
99.55 144.702 140.208 4.494
99.6 143.341 139.173 4.168
99.65 134.848 138.418 -3.57
99.7 132.053 137.664 -5.611
99.75 127.3 137.106 -9.806
99.8 160.929 136.548 24.381
99.85 123.144 136.135 -12.991
99.9 137.049 135.722 1.327
99.95 138.087 135.413 2.674
100 142.987 135.104 7.883
100.05 150.676 134.87 15.806
100.1 130.863 134.636 -3.773
100.15 111.583 134.453 -22.87
100.2 141.573 134.27 7.303
100.25 135.934 134.124 1.81
100.3 138.797 133.977 4.82
100.35 132.641 133.856 -1.215
100.4 131.783 133.735 -1.952
100.45 118.305 133.633 -15.328
100.5 136.608 133.531 3.077
100.55 117.715 133.444 -15.729
100.6 143.051 133.358 9.693
100.65 131.571 133.284 -1.713
100.7 141.058 133.21 7.848
100.75 134.457 133.147 1.31
100.8 135.208 133.085 2.123
100.85 120.701 133.031 -12.33
100.9 133.198 132.977 0.221
100.95 111.878 132.929 -21.051
101 127.614 132.881 -5.267
101.05 127.98 132.838 -4.858
101.1 135.022 132.794 2.228
101.15 132.834 132.753 0.081
101.2 125.468 132.713 -7.245
101.25 128.894 132.673 -3.779
101.3 118.164 132.634 -14.47
101.35 130.187 132.597 -2.41
101.4 125.474 132.56 -7.086
101.45 121.363 132.526 -11.163
101.5 135.36 132.491 2.869
101.55 138.985 132.46 6.525
101.6 135.693 132.429 3.264
101.65 126.543 132.4 -5.857
101.7 124.012 132.372 -8.36
101.75 122.809 132.337 -9.528
101.8 133.151 132.301 0.85
101.85 113.517 132.275 -18.758
101.9 132.213 132.25 -0.037
101.95 138.076 132.225 5.851
102 139.763 132.199 7.564
102.05 114.933 132.174 -17.241
102.1 116.588 132.149 -15.561
102.15 132.962 132.124 0.838
102.2 126.964 132.099 -5.135
102.25 126.467 132.075 -5.608
102.3 133.141 132.052 1.089
102.35 121.055 132.03 -10.975
102.4 128.745 132.008 -3.263
102.45 149.057 131.988 17.069
102.5 130.751 131.967 -1.216
102.55 133.719 131.948 1.771
102.6 139.613 131.929 7.684
102.65 125.1 131.91 -6.81
102.7 131.795 131.891 -0.096
102.75 128.326 131.872 -3.546
102.8 130.268 131.853 -1.585
102.85 156.95 131.833 25.117
102.9 114.164 131.813 -17.649
102.95 127.218 131.793 -4.575
103 118.427 131.772 -13.345
103.05 129.735 131.753 -2.018
103.1 150.178 131.733 18.445
103.15 128.888 131.714 -2.826
103.2 101.768 131.695 -29.927
103.25 137.273 131.678 5.595
103.3 133.916 131.66 2.256
103.35 119.947 131.643 -11.696
103.4 146.247 131.627 14.62
103.45 119.599 131.611 -12.012
103.5 147.635 131.594 16.041
103.55 147.574 131.578 15.996
103.6 133.211 131.562 1.649
103.65 123.902 131.545 -7.643
103.7 155.653 131.528 24.125
103.75 137.69 131.511 6.179
103.8 133.467 131.493 1.974
103.85 124.459 131.476 -7.017
103.9 122.21 131.458 -9.248
103.95 107.239 131.441 -24.202
104 125.266 131.424 -6.158
104.05 147.16 131.407 15.753
104.1 147.672 131.391 16.281
104.15 134.773 131.376 3.397
104.2 165.35 131.36 33.99
104.25 147.589 131.346 16.243
104.3 123.286 131.331 -8.045
104.35 121.708 131.317 -9.609
104.4 135.856 131.302 4.554
104.45 122.912 131.288 -8.376
104.5 121.773 131.273 -9.5
104.55 136.019 131.257 4.762
104.6 133.996 131.242 2.754
104.65 131.738 131.226 0.512
104.7 141.306 131.211 10.095
104.75 126.324 131.195 -4.871
104.8 152.701 131.179 21.522
104.85 122.817 131.164 -8.347
104.9 124.578 131.148 -6.57
104.95 101.643 131.134 -29.491
105 123.098 131.119 -8.021
105.05 132.056 131.105 0.951
105.1 131.725 131.092 0.633
105.15 136.202 131.078 5.124
105.2 135.646 131.065 4.581
105.25 115.56 131.052 -15.492
105.3 143.352 131.039 12.313
105.35 141.128 131.025 10.103
105.4 145.924 131.012 14.912
105.45 133.808 130.998 2.81
105.5 123.95 130.984 -7.034
105.55 129.628 130.969 -1.341
105.6 152.657 130.955 21.702
105.65 120.07 130.941 -10.871
105.7 129.575 130.926 -1.351
105.75 133.053 130.913 2.14
105.8 125.057 130.899 -5.842
105.85 140.701 130.886 9.815
105.9 122.137 130.873 -8.736
105.95 133.027 130.86 2.167
106 128.247 130.848 -2.601
106.05 144.33 130.836 13.494
106.1 141.639 130.824 10.815
106.15 127.596 130.812 -3.216
106.2 158.327 130.8 27.527
106.25 121.987 130.788 -8.801
106.3 125.807 130.776 -4.969
106.35 138.727 130.763 7.964
106.4 142.884 130.75 12.134
106.45 130.742 130.737 0.005
106.5 145.772 130.724 15.048
106.55 152.392 130.711 21.681
106.6 146.789 130.699 16.09
106.65 115.388 130.686 -15.298
106.7 144.187 130.674 13.513
106.75 122.066 130.662 -8.596
106.8 149.708 130.651 19.057
106.85 141.821 130.64 11.181
106.9 154.882 130.628 24.254
106.95 123.046 130.618 -7.572
107 127.553 130.607 -3.054
107.05 149.219 130.596 18.623
107.1 144.087 130.585 13.502
107.15 146.08 130.574 15.506
107.2 133.005 130.562 2.443
107.25 143.305 130.551 12.754
107.3 145.992 130.539 15.453
107.35 127.079 130.527 -3.448
107.4 128.064 130.515 -2.451
107.45 120.371 130.503 -10.132
107.5 131.568 130.491 1.077
107.55 133.09 130.48 2.61
107.6 131.528 130.468 1.06
107.65 121.289 130.458 -9.169
107.7 156.768 130.447 26.321
107.75 157.89 130.436 27.454
107.8 140.151 130.426 9.725
107.85 126.105 130.416 -4.311
107.9 136.475 130.406 6.069
107.95 149.214 130.396 18.818
108 129.046 130.386 -1.34
108.05 130.244 130.375 -0.131
108.1 125.16 130.365 -5.205
108.15 125.472 130.354 -4.882
108.2 130.705 130.343 0.362
108.25 140.851 130.332 10.519
108.3 141.185 130.321 10.864
108.35 135.332 130.31 5.022
108.4 125.159 130.299 -5.14
108.45 119.391 130.289 -10.898
108.5 110.737 130.278 -19.541
108.55 132.314 130.268 2.046
108.6 120.163 130.258 -10.095
108.65 128.429 130.249 -1.82
108.7 138.125 130.24 7.885
108.75 144.802 130.23 14.572
108.8 139.25 130.221 9.029
108.85 134.838 130.212 4.626
108.9 149.2 130.203 18.997
108.95 126.91 130.194 -3.284
109 139.302 130.184 9.118
109.05 133.252 130.174 3.078
109.1 154.234 130.165 24.069
109.15 123.06 130.155 -7.095
109.2 128.391 130.145 -1.754
109.25 126.519 130.135 -3.616
109.3 128.422 130.126 -1.704
109.35 137.817 130.116 7.701
109.4 120.443 130.107 -9.664
109.45 128.093 130.099 -2.006
109.5 129.727 130.09 -0.363
109.55 145.619 130.082 15.537
109.6 115.686 130.074 -14.388
109.65 119.05 130.066 -11.016
109.7 145.259 130.058 15.201
109.75 137.869 130.05 7.819
109.8 137.044 130.043 7.001
109.85 139.399 130.035 9.364
109.9 125.194 130.027 -4.833
109.95 109.076 130.019 -20.943
110 126.943 130.011 -3.068
110.05 141.042 130.003 11.039
110.1 126.496 129.995 -3.499
110.15 128.75 129.987 -1.237
110.2 109.656 129.98 -20.324
110.25 130.134 129.972 0.162
110.3 126.052 129.965 -3.913
110.35 121.503 129.959 -8.456
110.4 142.062 129.952 12.11
110.45 110.39 129.946 -19.556
110.5 115.841 129.94 -14.099
110.55 141.82 129.935 11.885
110.6 148.602 129.93 18.672
110.65 144.466 129.925 14.541
110.7 121.793 129.92 -8.127
110.75 143.516 129.915 13.601
110.8 143.572 129.91 13.662
110.85 132.897 129.906 2.991
110.9 136.431 129.901 6.53
110.95 124.515 129.896 -5.381
111 128.487 129.892 -1.405
111.05 134.621 129.888 4.733
111.1 126.259 129.884 -3.625
111.15 122.644 129.881 -7.237
111.2 132.669 129.878 2.791
111.25 138.609 129.876 8.733
111.3 146.964 129.874 17.09
111.35 131.536 129.873 1.663
111.4 124.193 129.872 -5.679
111.45 126.172 129.873 -3.701
111.5 132.314 129.873 2.441
111.55 147.7 129.875 17.825
111.6 133.525 129.876 3.649
111.65 146.304 129.879 16.425
111.7 150.64 129.881 20.759
111.75 152.998 129.885 23.113
111.8 130.106 129.888 0.218
111.85 153.156 129.893 23.263
111.9 120.802 129.897 -9.095
111.95 146.08 129.904 16.176
112 131.582 129.91 1.672
112.05 126.566 129.918 -3.352
112.1 132.277 129.927 2.35
112.15 139.864 129.938 9.926
112.2 136.182 129.949 6.233
112.25 128.657 129.964 -1.307
112.3 107.909 129.978 -22.069
112.35 142.482 129.996 12.486
112.4 141.262 130.014 11.248
112.45 124.297 130.036 -5.739
112.5 144.623 130.058 14.565
112.55 134.865 130.085 4.78
112.6 135.184 130.111 5.073
112.65 125.433 130.143 -4.71
112.7 122.692 130.174 -7.482
112.75 142.37 130.212 12.158
112.8 124.466 130.25 -5.784
112.85 129.157 130.295 -1.138
112.9 151.004 130.34 20.664
112.95 131.28 130.395 0.885
113 137.241 130.45 6.791
113.05 123.29 130.517 -7.227
113.1 122.13 130.584 -8.454
113.15 146.065 130.667 15.398
113.2 141.336 130.749 10.587
113.25 130.917 130.85 0.067
113.3 140.45 130.951 9.499
113.35 142.343 131.075 11.268
113.4 124.249 131.199 -6.95
113.45 116.702 131.352 -14.65
113.5 138.825 131.505 7.32
113.55 132.953 131.694 1.259
113.6 135.456 131.883 3.573
113.65 142.621 132.119 10.502
113.7 158.513 132.355 26.158
113.75 112.036 132.651 -20.615
113.8 130.444 132.946 -2.502
113.85 136.612 133.32 3.292
113.9 135.735 133.694 2.041
113.95 136.768 134.169 2.599
114 147.775 134.644 13.131
114.05 139.289 135.252 4.037
114.1 154.911 135.86 19.051
114.15 140.61 136.641 3.969
114.2 141.484 137.422 4.062
114.25 150.022 138.429 11.593
114.3 142.789 139.435 3.354
114.35 137.165 140.734 -3.569
114.4 152.403 142.033 10.37
114.45 151.154 143.708 7.446
114.5 153.288 145.384 7.904
114.55 139.612 147.539 -7.927
114.6 163.078 149.695 13.383
114.65 178.026 152.283 25.743
114.7 148.601 155.202 -6.601
114.75 172.432 158.677 13.755
114.8 158.8 162.153 -3.353
114.85 175.112 166.239 8.873
114.9 172.069 170.756 1.313
114.95 159.111 175.922 -16.811
115 160.883 181.088 -20.205
115.05 188.102 186.858 1.244
115.1 195.133 192.96 2.173
115.15 203.149 199.312 3.837
115.2 215.544 205.767 9.777
115.25 216.401 212.174 4.227
115.3 206.661 218.374 -11.713
115.35 188.052 224.114 -36.062
115.4 209.292 229.181 -19.889
115.45 235.502 233.296 2.206
115.5 235.709 236.443 -0.734
115.55 212.81 238.215 -25.405
115.6 250.678 238.8 11.878
115.65 259.057 237.952 21.105
115.7 256.104 235.792 20.312
115.75 280.439 232.412 48.027
115.8 267.731 228.043 39.688
115.85 270.399 222.825 47.574
115.9 210.814 217.002 -6.188
115.95 200.296 210.783 -10.487
116 199.851 204.405 -4.554
116.05 177.68 198.017 -20.337
116.1 172.603 191.776 -19.173
116.15 166.998 185.796 -18.798
116.2 156.707 180.155 -23.448
116.25 172.394 174.906 -2.512
116.3 158.014 170.075 -12.061
116.35 179.636 165.67 13.966
116.4 160.134 161.683 -1.549
116.45 149.813 158.284 -8.471
116.5 151.705 154.885 -3.18
116.55 136.58 152.179 -15.599
116.6 171.973 149.474 22.499
116.65 143.829 147.344 -3.515
116.7 135.178 145.213 -10.035
116.75 174.594 143.544 31.05
116.8 152.487 141.875 10.612
116.85 142.01 140.569 1.441
116.9 152.162 139.263 12.899
116.95 133.596 138.241 -4.645
117 133.806 137.218 -3.412
117.05 146.878 136.415 10.463
117.1 154.726 135.612 19.114
117.15 162.671 134.979 27.692
117.2 118.649 134.346 -15.697
117.25 130.606 133.844 -3.238
117.3 131.755 133.342 -1.587
117.35 152.171 132.941 19.23
117.4 118.571 132.541 -13.97
117.45 143.987 132.219 11.768
117.5 145.333 131.897 13.436
117.55 133.098 131.636 1.462
117.6 105.557 131.375 -25.818
117.65 134.697 131.161 3.536
117.7 140.393 130.947 9.446
117.75 148.542 130.77 17.772
117.8 132.942 130.593 2.349
117.85 132.212 130.444 1.768
117.9 136.028 130.296 5.732
117.95 136.216 130.171 6.045
118 142.961 130.045 12.916
118.05 117.53 129.939 -12.409
118.1 151.676 129.832 21.844
118.15 150.01 129.741 20.269
118.2 125.3 129.65 -4.35
118.25 134.089 129.572 4.517
118.3 142.791 129.494 13.297
118.35 150.753 129.426 21.327
118.4 125.849 129.359 -3.51
118.45 131.301 129.3 2.001
118.5 165.776 129.242 36.534
118.55 141.374 129.19 12.184
118.6 123.181 129.139 -5.958
118.65 108.642 129.093 -20.451
118.7 112.538 129.047 -16.509
118.75 137.733 129.005 8.728
118.8 135.344 128.964 6.38
118.85 158.241 128.926 29.315
118.9 129.455 128.888 0.567
118.95 124.355 128.853 -4.498
119 144.174 128.818 15.356
119.05 141.102 128.786 12.316
119.1 132.971 128.754 4.217
119.15 133.68 128.724 4.956
119.2 150.965 128.695 22.27
119.25 126.006 128.668 -2.662
119.3 126.654 128.641 -1.987
119.35 130.072 128.616 1.456
119.4 135.666 128.591 7.075
119.45 115.25 128.569 -13.319
119.5 128.127 128.547 -0.42
119.55 136.955 128.526 8.429
119.6 126.061 128.505 -2.444
119.65 127.408 128.486 -1.078
119.7 133.197 128.467 4.73
119.75 153.165 128.448 24.717
119.8 147.52 128.43 19.09
119.85 157.56 128.412 29.148
119.9 151.752 128.394 23.358
119.95 120.743 128.377 -7.634
120 116.985 128.359 -11.374
120.05 118.117 128.342 -10.225
120.1 146.007 128.325 17.682
120.15 133.016 128.309 4.707
120.2 125.345 128.292 -2.947
120.25 128.9 128.277 0.623
120.3 129.751 128.261 1.49
120.35 125.016 128.246 -3.23
120.4 138.936 128.231 10.705
120.45 141.776 128.217 13.559
120.5 106.861 128.203 -21.342
120.55 118.38 128.19 -9.81
120.6 128.795 128.178 0.617
120.65 131.147 128.165 2.982
120.7 124.779 128.153 -3.374
120.75 143.255 128.141 15.114
120.8 130.19 128.129 2.061
120.85 120.652 128.117 -7.465
120.9 144.536 128.106 16.43
120.95 147.612 128.094 19.518
121 153.194 128.082 25.112
121.05 126.082 128.07 -1.988
121.1 128.014 128.058 -0.044
121.15 131.768 128.046 3.722
121.2 165.762 128.033 37.729
121.25 122.471 128.021 -5.55
121.3 145.156 128.009 17.147
121.35 127.495 127.998 -0.503
121.4 107.237 127.986 -20.749
121.45 133.459 127.975 5.484
121.5 132.166 127.964 4.202
121.55 128.107 127.953 0.154
121.6 137.196 127.943 9.253
121.65 125.72 127.933 -2.213
121.7 116.398 127.923 -11.525
121.75 126.562 127.914 -1.352
121.8 137.163 127.904 9.259
121.85 139.258 127.895 11.363
121.9 136.469 127.885 8.584
121.95 129.785 127.876 1.909
122 124.376 127.866 -3.49
122.05 136.584 127.857 8.727
122.1 102.681 127.847 -25.166
122.15 130.688 127.837 2.851
122.2 137.37 127.827 9.543
122.25 143.542 127.817 15.725
122.3 128.19 127.806 0.384
122.35 108.567 127.796 -19.229
122.4 149.128 127.786 21.342
122.45 132.851 127.776 5.075
122.5 127.095 127.766 -0.671
122.55 134.247 127.756 6.491
122.6 120.167 127.747 -7.58
122.65 144.736 127.732 17.004
122.7 148.466 127.718 20.748
122.75 106.909 127.71 -20.801
122.8 134.048 127.701 6.347
122.85 116.895 127.692 -10.797
122.9 116.575 127.683 -11.108
122.95 137.542 127.674 9.868
123 118.226 127.665 -9.439
123.05 123.676 127.657 -3.981
123.1 124.586 127.648 -3.062
123.15 141.795 127.639 14.156
123.2 142.863 127.63 15.233
123.25 131.444 127.621 3.823
123.3 127.164 127.612 -0.448
123.35 135.273 127.603 7.67
123.4 140.807 127.594 13.213
123.45 128.65 127.586 1.064
123.5 132.546 127.577 4.969
123.55 115.993 127.568 -11.575
123.6 111.673 127.559 -15.886
123.65 157.475 127.55 29.925
123.7 131.965 127.541 4.424
123.75 108.061 127.533 -19.472
123.8 130.299 127.524 2.775
123.85 132.567 127.516 5.051
123.9 146.928 127.507 19.421
123.95 138.785 127.499 11.286
124 145.705 127.491 18.214
124.05 111.797 127.482 -15.685
124.1 118.365 127.474 -9.109
124.15 143.63 127.466 16.164
124.2 131.228 127.458 3.77
124.25 131.319 127.449 3.87
124.3 137.63 127.441 10.189
124.35 125.471 127.433 -1.962
124.4 109.903 127.424 -17.521
124.45 131.948 127.416 4.532
124.5 123.914 127.407 -3.493
124.55 123.844 127.399 -3.555
124.6 115.561 127.39 -11.829
124.65 123.216 127.382 -4.166
124.7 111.904 127.373 -15.469
124.75 153.767 127.365 26.402
124.8 127.337 127.356 -0.019
124.85 139.554 127.348 12.206
124.9 144.028 127.34 16.688
124.95 121.629 127.332 -5.703
125 125.245 127.323 -2.078
125.05 128.887 127.315 1.572
125.1 125.035 127.307 -2.272
125.15 135.073 127.299 7.774
125.2 134.191 127.291 6.9
125.25 135.119 127.283 7.836
125.3 119.604 127.275 -7.671
125.35 119.997 127.267 -7.27
125.4 144.087 127.259 16.828
125.45 129.897 127.251 2.646
125.5 138.75 127.243 11.507
125.55 154.697 127.235 27.462
125.6 135.488 127.227 8.261
125.65 107.511 127.219 -19.708
125.7 137.084 127.21 9.874
125.75 128.248 127.202 1.046
125.8 122.438 127.194 -4.756
125.85 126.518 127.185 -0.667
125.9 162 127.177 34.823
125.95 140.876 127.169 13.707
126 127.509 127.161 0.348
126.05 140.92 127.153 13.767
126.1 117.774 127.145 -9.371
126.15 141.693 127.137 14.556
126.2 130.39 127.129 3.261
126.25 140.553 127.121 13.432
126.3 95.1566 127.113 -31.9564
126.35 130.077 127.105 2.972
126.4 122.707 127.097 -4.39
126.45 125.709 127.089 -1.38
126.5 142.766 127.081 15.685
126.55 119.555 127.074 -7.519
126.6 129.78 127.066 2.714
126.65 137.922 127.058 10.864
126.7 140.083 127.05 13.033
126.75 139.496 127.041 12.455
126.8 120.459 127.033 -6.574
126.85 128.734 127.025 1.709
126.9 121.424 127.017 -5.593
126.95 153.697 127.009 26.688
127 125.915 127.001 -1.086
127.05 108.189 126.992 -18.803
127.1 121.206 126.984 -5.778
127.15 141.167 126.976 14.191
127.2 118.666 126.968 -8.302
127.25 144.446 126.96 17.486
127.3 146.125 126.952 19.173
127.35 155.684 126.944 28.74
127.4 121.723 126.936 -5.213
127.45 106.971 126.928 -19.957
127.5 136.629 126.92 9.709
127.55 123.583 126.913 -3.33
127.6 131.851 126.905 4.946
127.65 126.821 126.897 -0.076
127.7 126.036 126.889 -0.853
127.75 141.19 126.881 14.309
127.8 143.829 126.873 16.956
127.85 141.251 126.865 14.386
127.9 114.569 126.857 -12.288
127.95 135.755 126.849 8.906
128 140.064 126.841 13.223
128.05 139.477 126.833 12.644
128.1 122.805 126.825 -4.02
128.15 120.934 126.817 -5.883
128.2 129.862 126.808 3.054
128.25 138.85 126.8 12.05
128.3 133.901 126.792 7.109
128.35 146.613 126.784 19.829
128.4 136.942 126.776 10.166
128.45 119.493 126.768 -7.275
128.5 158.865 126.76 32.105
128.55 113.589 126.752 -13.163
128.6 127.525 126.744 0.781
128.65 143.085 126.736 16.349
128.7 136.291 126.728 9.563
128.75 149.962 126.72 23.242
128.8 126.069 126.712 -0.643
128.85 126.14 126.704 -0.564
128.9 130.545 126.696 3.849
128.95 137.626 126.689 10.937
129 151.279 126.681 24.598
129.05 120.491 126.673 -6.182
129.1 123.434 126.665 -3.231
129.15 131.638 126.656 4.982
129.2 139.837 126.648 13.189
129.25 118.476 126.64 -8.164
129.3 147.976 126.632 21.344
129.35 122.299 126.624 -4.325
129.4 142.354 126.616 15.738
129.45 135.773 126.607 9.166
129.5 111.338 126.599 -15.261
129.55 128.254 126.591 1.663
129.6 141.035 126.583 14.452
129.65 130.733 126.574 4.159
129.7 125.015 126.566 -1.551
129.75 130.54 126.558 3.982
129.8 139.286 126.55 12.736
129.85 128.463 126.542 1.921
129.9 141.662 126.534 15.128
129.95 118.272 126.583 -8.311
130 121.831 126.631 -4.8
