
#Surface 0 of 1 surfaces

#IsoCurve 0, 1801 points
#x y z type
 40  154.645  0 i
 40.05  160.046  0 i
 40.1  155.925  0 i
 40.15  182.16  0 i
 40.2  167.123  0 i
 40.25  190.707  0 i
 40.3  166.193  0 i
 40.35  187.989  0 i
 40.4  182.778  0 i
 40.45  184.839  0 i
 40.5  196.45  0 i
 40.55  203.181  0 i
 40.6  161.02  0 i
 40.65  154.809  0 i
 40.7  165.742  0 i
 40.75  167.974  0 i
 40.8  180.293  0 i
 40.85  186.602  0 i
 40.9  163.216  0 i
 40.95  171.588  0 i
 41  170.302  0 i
 41.05  174.593  0 i
 41.1  175.125  0 i
 41.15  190.341  0 i
 41.2  193.645  0 i
 41.25  154.21  0 i
 41.3  196.497  0 i
 41.35  162.853  0 i
 41.4  184.616  0 i
 41.45  200.889  0 i
 41.5  205.555  0 i
 41.55  169.697  0 i
 41.6  166.223  0 i
 41.65  157.41  0 i
 41.7  145.054  0 i
 41.75  188.595  0 i
 41.8  202.155  0 i
 41.85  183.474  0 i
 41.9  163.211  0 i
 41.95  174.574  0 i
 42  176.374  0 i
 42.05  184.154  0 i
 42.1  185.928  0 i
 42.15  168.428  0 i
 42.2  161.387  0 i
 42.25  173.377  0 i
 42.3  170.469  0 i
 42.35  192.151  0 i
 42.4  193.416  0 i
 42.45  189.152  0 i
 42.5  177.815  0 i
 42.55  180.992  0 i
 42.6  166.634  0 i
 42.65  184.686  0 i
 42.7  184.306  0 i
 42.75  175.201  0 i
 42.8  197.514  0 i
 42.85  174.246  0 i
 42.9  150.995  0 i
 42.95  180.281  0 i
 43  190.444  0 i
 43.05  187.615  0 i
 43.1  196.794  0 i
 43.15  184.055  0 i
 43.2  211.195  0 i
 43.25  201.238  0 i
 43.3  216.036  0 i
 43.35  210.025  0 i
 43.4  200.555  0 i
 43.45  240.819  0 i
 43.5  201.208  0 i
 43.55  199.209  0 i
 43.6  226.276  0 i
 43.65  225.213  0 i
 43.7  231.504  0 i
 43.75  192.415  0 i
 43.8  236.631  0 i
 43.85  217.608  0 i
 43.9  233.704  0 i
 43.95  276.652  0 i
 44  324.788  0 i
 44.05  396.081  0 i
 44.1  380.071  0 i
 44.15  530.599  0 i
 44.2  646.717  0 i
 44.25  826.23  0 i
 44.3  1249.16  0 i
 44.35  1932.44  0 i
 44.4  2948.6  0 i
 44.45  4458.33  0 i
 44.5  5663.88  0 i
 44.55  5861.82  0 i
 44.6  4549.9  0 i
 44.65  2647.93  0 i
 44.7  1455.64  0 i
 44.75  871.229  0 i
 44.8  574.759  0 i
 44.85  459.432  0 i
 44.9  340.382  0 i
 44.95  322.209  0 i
 45  272.842  0 i
 45.05  213.539  0 i
 45.1  212.152  0 i
 45.15  172.891  0 i
 45.2  195.208  0 i
 45.25  191.867  0 i
 45.3  183.495  0 i
 45.35  193.594  0 i
 45.4  196.327  0 i
 45.45  176.412  0 i
 45.5  174.657  0 i
 45.55  182.325  0 i
 45.6  172.195  0 i
 45.65  178.456  0 i
 45.7  172.579  0 i
 45.75  166.016  0 i
 45.8  176.079  0 i
 45.85  159.284  0 i
 45.9  161.131  0 i
 45.95  179.75  0 i
 46  148.12  0 i
 46.05  177.722  0 i
 46.1  152.182  0 i
 46.15  163.504  0 i
 46.2  176.104  0 i
 46.25  164.283  0 i
 46.3  169.63  0 i
 46.35  144.033  0 i
 46.4  177.661  0 i
 46.45  165.735  0 i
 46.5  156.939  0 i
 46.55  136.717  0 i
 46.6  156.981  0 i
 46.65  176.639  0 i
 46.7  179.261  0 i
 46.75  167.697  0 i
 46.8  156.378  0 i
 46.85  153.629  0 i
 46.9  149.374  0 i
 46.95  160.999  0 i
 47  153.58  0 i
 47.05  159.604  0 i
 47.1  161.78  0 i
 47.15  154.59  0 i
 47.2  125.915  0 i
 47.25  168.862  0 i
 47.3  189.413  0 i
 47.35  185.886  0 i
 47.4  153.295  0 i
 47.45  166.233  0 i
 47.5  164.029  0 i
 47.55  136.24  0 i
 47.6  164.497  0 i
 47.65  158.5  0 i
 47.7  147.811  0 i
 47.75  172.456  0 i
 47.8  141.321  0 i
 47.85  139.498  0 i
 47.9  159.368  0 i
 47.95  165.795  0 i
 48  176.86  0 i
 48.05  156.003  0 i
 48.1  142.004  0 i
 48.15  158.826  0 i
 48.2  190.028  0 i
 48.25  142.761  0 i
 48.3  190.83  0 i
 48.35  164.602  0 i
 48.4  156.463  0 i
 48.45  150.83  0 i
 48.5  171.583  0 i
 48.55  158.125  0 i
 48.6  129.461  0 i
 48.65  130.64  0 i
 48.7  179.525  0 i
 48.75  175.335  0 i
 48.8  139.09  0 i
 48.85  159.508  0 i
 48.9  143.38  0 i
 48.95  141.091  0 i
 49  144.225  0 i
 49.05  158.648  0 i
 49.1  172.9  0 i
 49.15  147.739  0 i
 49.2  138.144  0 i
 49.25  156.41  0 i
 49.3  144.108  0 i
 49.35  150.429  0 i
 49.4  182.963  0 i
 49.45  163.824  0 i
 49.5  160.342  0 i
 49.55  130.799  0 i
 49.6  168.523  0 i
 49.65  154.24  0 i
 49.7  158.713  0 i
 49.75  175.642  0 i
 49.8  154.545  0 i
 49.85  168.213  0 i
 49.9  167.939  0 i
 49.95  156.21  0 i
 50  154.179  0 i
 50.05  151.736  0 i
 50.1  174.065  0 i
 50.15  143.303  0 i
 50.2  138.239  0 i
 50.25  167.627  0 i
 50.3  171.167  0 i
 50.35  150.419  0 i
 50.4  149.472  0 i
 50.45  172.504  0 i
 50.5  153.595  0 i
 50.55  144.262  0 i
 50.6  158.152  0 i
 50.65  164.444  0 i
 50.7  163.752  0 i
 50.75  148.354  0 i
 50.8  166.634  0 i
 50.85  155.833  0 i
 50.9  174.727  0 i
 50.95  164.434  0 i
 51  141.173  0 i
 51.05  148.375  0 i
 51.1  131.372  0 i
 51.15  156.188  0 i
 51.2  150.339  0 i
 51.25  154.816  0 i
 51.3  145.467  0 i
 51.35  129.698  0 i
 51.4  141.791  0 i
 51.45  154.61  0 i
 51.5  158.17  0 i
 51.55  145.678  0 i
 51.6  147.723  0 i
 51.65  154.735  0 i
 51.7  146.803  0 i
 51.75  142.205  0 i
 51.8  147.645  0 i
 51.85  148.085  0 i
 51.9  141.292  0 i
 51.95  158.302  0 i
 52  166.483  0 i
 52.05  147.783  0 i
 52.1  140.942  0 i
 52.15  162.488  0 i
 52.2  148.469  0 i
 52.25  172.846  0 i
 52.3  152.53  0 i
 52.35  150.206  0 i
 52.4  154  0 i
 52.45  153.215  0 i
 52.5  152.407  0 i
 52.55  128.135  0 i
 52.6  130.972  0 i
 52.65  157.162  0 i
 52.7  140.894  0 i
 52.75  139.354  0 i
 52.8  154.677  0 i
 52.85  152.874  0 i
 52.9  149.533  0 i
 52.95  173.244  0 i
 53  167.483  0 i
 53.05  163.025  0 i
 53.1  166.024  0 i
 53.15  127.613  0 i
 53.2  160.269  0 i
 53.25  143.906  0 i
 53.3  141.712  0 i
 53.35  159.102  0 i
 53.4  144.137  0 i
 53.45  150.597  0 i
 53.5  160.266  0 i
 53.55  148.022  0 i
 53.6  142.658  0 i
 53.65  140.691  0 i
 53.7  171.338  0 i
 53.75  168.771  0 i
 53.8  156.949  0 i
 53.85  159.506  0 i
 53.9  147.52  0 i
 53.95  152.404  0 i
 54  140.387  0 i
 54.05  149.654  0 i
 54.1  153.862  0 i
 54.15  136.351  0 i
 54.2  155.765  0 i
 54.25  150.459  0 i
 54.3  143.15  0 i
 54.35  158.637  0 i
 54.4  167.853  0 i
 54.45  135.99  0 i
 54.5  147.605  0 i
 54.55  146.825  0 i
 54.6  133.914  0 i
 54.65  137.255  0 i
 54.7  145.943  0 i
 54.75  130.756  0 i
 54.8  157.768  0 i
 54.85  139.501  0 i
 54.9  150.48  0 i
 54.95  140.582  0 i
 55  142.525  0 i
 55.05  162.124  0 i
 55.1  145.503  0 i
 55.15  134.163  0 i
 55.2  141.378  0 i
 55.25  130.85  0 i
 55.3  154.971  0 i
 55.35  145.465  0 i
 55.4  162.067  0 i
 55.45  139.022  0 i
 55.5  151.976  0 i
 55.55  155.003  0 i
 55.6  163.69  0 i
 55.65  146.756  0 i
 55.7  136.404  0 i
 55.75  150.116  0 i
 55.8  146.248  0 i
 55.85  132.594  0 i
 55.9  157.92  0 i
 55.95  143.964  0 i
 56  146.45  0 i
 56.05  137.79  0 i
 56.1  145.363  0 i
 56.15  163.515  0 i
 56.2  165.154  0 i
 56.25  159.777  0 i
 56.3  124.925  0 i
 56.35  143.573  0 i
 56.4  149.685  0 i
 56.45  141.643  0 i
 56.5  142.574  0 i
 56.55  135.476  0 i
 56.6  157.623  0 i
 56.65  129.184  0 i
 56.7  171.258  0 i
 56.75  155.496  0 i
 56.8  137.025  0 i
 56.85  133.557  0 i
 56.9  137.702  0 i
 56.95  155.109  0 i
 57  146.212  0 i
 57.05  141.38  0 i
 57.1  152.76  0 i
 57.15  151.461  0 i
 57.2  149.886  0 i
 57.25  167.165  0 i
 57.3  145.124  0 i
 57.35  154.615  0 i
 57.4  172.079  0 i
 57.45  152.976  0 i
 57.5  132.32  0 i
 57.55  144.005  0 i
 57.6  156.042  0 i
 57.65  137.234  0 i
 57.7  144.924  0 i
 57.75  147.158  0 i
 57.8  147.7  0 i
 57.85  152.202  0 i
 57.9  125.961  0 i
 57.95  143.236  0 i
 58  170.506  0 i
 58.05  159.792  0 i
 58.1  152.579  0 i
 58.15  148.595  0 i
 58.2  140.141  0 i
 58.25  136.211  0 i
 58.3  145.96  0 i
 58.35  138.224  0 i
 58.4  162.359  0 i
 58.45  135.877  0 i
 58.5  151.355  0 i
 58.55  138.537  0 i
 58.6  122.776  0 i
 58.65  132.864  0 i
 58.7  153.136  0 i
 58.75  144.008  0 i
 58.8  136.867  0 i
 58.85  148.078  0 i
 58.9  122.426  0 i
 58.95  157.477  0 i
 59  141.632  0 i
 59.05  128.993  0 i
 59.1  158.085  0 i
 59.15  149.362  0 i
 59.2  132.947  0 i
 59.25  124.011  0 i
 59.3  146.155  0 i
 59.35  151.201  0 i
 59.4  141.966  0 i
 59.45  142.117  0 i
 59.5  165.256  0 i
 59.55  132.052  0 i
 59.6  133.193  0 i
 59.65  149.771  0 i
 59.7  146.748  0 i
 59.75  157.744  0 i
 59.8  151.312  0 i
 59.85  153.163  0 i
 59.9  133.8  0 i
 59.95  155.1  0 i
 60  153.297  0 i
 60.05  154.725  0 i
 60.1  145.74  0 i
 60.15  140.177  0 i
 60.2  138.161  0 i
 60.25  127.122  0 i
 60.3  142.869  0 i
 60.35  158.978  0 i
 60.4  130.772  0 i
 60.45  146.013  0 i
 60.5  118.207  0 i
 60.55  143.872  0 i
 60.6  132.641  0 i
 60.65  145.076  0 i
 60.7  140.183  0 i
 60.75  127.136  0 i
 60.8  113.829  0 i
 60.85  157.775  0 i
 60.9  130.931  0 i
 60.95  137.998  0 i
 61  156.828  0 i
 61.05  133.739  0 i
 61.1  135.585  0 i
 61.15  120.893  0 i
 61.2  139.841  0 i
 61.25  158.048  0 i
 61.3  162.613  0 i
 61.35  157.123  0 i
 61.4  150.305  0 i
 61.45  150.486  0 i
 61.5  112.96  0 i
 61.55  158.076  0 i
 61.6  130.155  0 i
 61.65  138.988  0 i
 61.7  150.395  0 i
 61.75  160.518  0 i
 61.8  147.674  0 i
 61.85  150.737  0 i
 61.9  146.483  0 i
 61.95  137.011  0 i
 62  129.409  0 i
 62.05  124.843  0 i
 62.1  141.238  0 i
 62.15  134.779  0 i
 62.2  148.232  0 i
 62.25  147.55  0 i
 62.3  151.254  0 i
 62.35  120.734  0 i
 62.4  119.74  0 i
 62.45  122.499  0 i
 62.5  142.347  0 i
 62.55  136.059  0 i
 62.6  147.179  0 i
 62.65  139.2  0 i
 62.7  134.085  0 i
 62.75  130.394  0 i
 62.8  135.938  0 i
 62.85  150.359  0 i
 62.9  134.19  0 i
 62.95  146.48  0 i
 63  145.593  0 i
 63.05  134.049  0 i
 63.1  142.501  0 i
 63.15  144.749  0 i
 63.2  132.906  0 i
 63.25  140.395  0 i
 63.3  141.22  0 i
 63.35  141.622  0 i
 63.4  132.745  0 i
 63.45  147.916  0 i
 63.5  151.829  0 i
 63.55  147.064  0 i
 63.6  125.399  0 i
 63.65  161.233  0 i
 63.7  153.555  0 i
 63.75  137.597  0 i
 63.8  123.499  0 i
 63.85  139.721  0 i
 63.9  160.843  0 i
 63.95  151.88  0 i
 64  138.81  0 i
 64.05  176.476  0 i
 64.1  171.974  0 i
 64.15  182.75  0 i
 64.2  166.959  0 i
 64.25  203.495  0 i
 64.3  209.405  0 i
 64.35  199.255  0 i
 64.4  218.58  0 i
 64.45  230.215  0 i
 64.5  261.536  0 i
 64.55  309.8  0 i
 64.6  320.648  0 i
 64.65  330.511  0 i
 64.7  341.421  0 i
 64.75  367.245  0 i
 64.8  278.523  0 i
 64.85  268.486  0 i
 64.9  232.231  0 i
 64.95  212.512  0 i
 65  218.809  0 i
 65.05  200.301  0 i
 65.1  163.765  0 i
 65.15  159.721  0 i
 65.2  159.318  0 i
 65.25  164.889  0 i
 65.3  163.988  0 i
 65.35  168.203  0 i
 65.4  142.514  0 i
 65.45  139.278  0 i
 65.5  130.196  0 i
 65.55  142.05  0 i
 65.6  131.958  0 i
 65.65  152.535  0 i
 65.7  151.27  0 i
 65.75  153.181  0 i
 65.8  141.261  0 i
 65.85  154.007  0 i
 65.9  121.788  0 i
 65.95  139.191  0 i
 66  137.541  0 i
 66.05  135.601  0 i
 66.1  135.443  0 i
 66.15  150.471  0 i
 66.2  124.43  0 i
 66.25  132.905  0 i
 66.3  148.197  0 i
 66.35  124.944  0 i
 66.4  146.006  0 i
 66.45  132.958  0 i
 66.5  158.006  0 i
 66.55  144.465  0 i
 66.6  133.469  0 i
 66.65  126.189  0 i
 66.7  127.496  0 i
 66.75  140.725  0 i
 66.8  151.493  0 i
 66.85  124.967  0 i
 66.9  137.204  0 i
 66.95  129.905  0 i
 67  148.42  0 i
 67.05  164.378  0 i
 67.1  138.886  0 i
 67.15  148.505  0 i
 67.2  134.603  0 i
 67.25  136.177  0 i
 67.3  139.178  0 i
 67.35  152.315  0 i
 67.4  139.718  0 i
 67.45  140.207  0 i
 67.5  156.145  0 i
 67.55  133.49  0 i
 67.6  143.387  0 i
 67.65  146.698  0 i
 67.7  127.207  0 i
 67.75  135.618  0 i
 67.8  135.181  0 i
 67.85  129.529  0 i
 67.9  97.7016  0 i
 67.95  142.74  0 i
 68  142.417  0 i
 68.05  144.525  0 i
 68.1  125.233  0 i
 68.15  134.321  0 i
 68.2  137.131  0 i
 68.25  138.864  0 i
 68.3  140.009  0 i
 68.35  149.248  0 i
 68.4  152.433  0 i
 68.45  134.782  0 i
 68.5  125.763  0 i
 68.55  145.072  0 i
 68.6  135.7  0 i
 68.65  153.486  0 i
 68.7  142.428  0 i
 68.75  137.416  0 i
 68.8  143.082  0 i
 68.85  148.769  0 i
 68.9  134.889  0 i
 68.95  154.422  0 i
 69  155.342  0 i
 69.05  135.756  0 i
 69.1  119.993  0 i
 69.15  151.411  0 i
 69.2  137.353  0 i
 69.25  125.928  0 i
 69.3  160.657  0 i
 69.35  162.679  0 i
 69.4  131.776  0 i
 69.45  144.246  0 i
 69.5  128.073  0 i
 69.55  136.645  0 i
 69.6  152.485  0 i
 69.65  135.193  0 i
 69.7  119.401  0 i
 69.75  123.267  0 i
 69.8  132.083  0 i
 69.85  160.735  0 i
 69.9  141.453  0 i
 69.95  128.522  0 i
 70  130.772  0 i
 70.05  148.951  0 i
 70.1  140.181  0 i
 70.15  152.206  0 i
 70.2  144.276  0 i
 70.25  137.333  0 i
 70.3  152.897  0 i
 70.35  145.098  0 i
 70.4  120.94  0 i
 70.45  113.303  0 i
 70.5  141.813  0 i
 70.55  143.817  0 i
 70.6  136.596  0 i
 70.65  137.836  0 i
 70.7  151.616  0 i
 70.75  142.02  0 i
 70.8  150.198  0 i
 70.85  152.441  0 i
 70.9  164.566  0 i
 70.95  138.202  0 i
 71  128.648  0 i
 71.05  139.184  0 i
 71.1  122.133  0 i
 71.15  141.234  0 i
 71.2  143.619  0 i
 71.25  145.084  0 i
 71.3  136.647  0 i
 71.35  150.327  0 i
 71.4  140.64  0 i
 71.45  139.695  0 i
 71.5  154.661  0 i
 71.55  148.881  0 i
 71.6  131.287  0 i
 71.65  130.726  0 i
 71.7  152.124  0 i
 71.75  138.65  0 i
 71.8  162.199  0 i
 71.85  157.138  0 i
 71.9  148.392  0 i
 71.95  127.696  0 i
 72  125.338  0 i
 72.05  140.893  0 i
 72.1  132.257  0 i
 72.15  131.674  0 i
 72.2  127.774  0 i
 72.25  150.537  0 i
 72.3  139.334  0 i
 72.35  127.554  0 i
 72.4  134.909  0 i
 72.45  146.101  0 i
 72.5  126.109  0 i
 72.55  137.74  0 i
 72.6  122.008  0 i
 72.65  125.361  0 i
 72.7  146.974  0 i
 72.75  136.231  0 i
 72.8  133.045  0 i
 72.85  126.665  0 i
 72.9  124.41  0 i
 72.95  123.174  0 i
 73  125.042  0 i
 73.05  141.243  0 i
 73.1  145.32  0 i
 73.15  138.222  0 i
 73.2  145.946  0 i
 73.25  142.395  0 i
 73.3  139.376  0 i
 73.35  140.755  0 i
 73.4  118.31  0 i
 73.45  115.304  0 i
 73.5  148.694  0 i
 73.55  143.523  0 i
 73.6  121.342  0 i
 73.65  132.283  0 i
 73.7  143.687  0 i
 73.75  129.119  0 i
 73.8  153.749  0 i
 73.85  154.707  0 i
 73.9  122.882  0 i
 73.95  147.998  0 i
 74  151.77  0 i
 74.05  145.276  0 i
 74.1  128.069  0 i
 74.15  148.283  0 i
 74.2  133.82  0 i
 74.25  144.548  0 i
 74.3  157.02  0 i
 74.35  137.326  0 i
 74.4  146.524  0 i
 74.45  145.119  0 i
 74.5  144.071  0 i
 74.55  156.316  0 i
 74.6  160.839  0 i
 74.65  150.397  0 i
 74.7  130.723  0 i
 74.75  114.394  0 i
 74.8  169.68  0 i
 74.85  128.572  0 i
 74.9  124.218  0 i
 74.95  150.256  0 i
 75  135.018  0 i
 75.05  136.534  0 i
 75.1  137.377  0 i
 75.15  143.491  0 i
 75.2  149.066  0 i
 75.25  143.691  0 i
 75.3  146.344  0 i
 75.35  131.727  0 i
 75.4  124.648  0 i
 75.45  147.504  0 i
 75.5  131.948  0 i
 75.55  145.797  0 i
 75.6  139.882  0 i
 75.65  141.99  0 i
 75.7  122.517  0 i
 75.75  156.167  0 i
 75.8  151.375  0 i
 75.85  147.213  0 i
 75.9  140.707  0 i
 75.95  134.532  0 i
 76  126.469  0 i
 76.05  125.997  0 i
 76.1  156.654  0 i
 76.15  143.49  0 i
 76.2  114.369  0 i
 76.25  142.486  0 i
 76.3  136.388  0 i
 76.35  117.347  0 i
 76.4  135.539  0 i
 76.45  134.443  0 i
 76.5  126.522  0 i
 76.55  120.107  0 i
 76.6  120.577  0 i
 76.65  145.668  0 i
 76.7  123.432  0 i
 76.75  132.025  0 i
 76.8  134.459  0 i
 76.85  136.558  0 i
 76.9  126.628  0 i
 76.95  148.23  0 i
 77  129.345  0 i
 77.05  148.875  0 i
 77.1  144.057  0 i
 77.15  140.06  0 i
 77.2  146.295  0 i
 77.25  130.748  0 i
 77.3  142.253  0 i
 77.35  131.137  0 i
 77.4  120.042  0 i
 77.45  152.496  0 i
 77.5  136.643  0 i
 77.55  148.404  0 i
 77.6  121.943  0 i
 77.65  148.047  0 i
 77.7  115.623  0 i
 77.75  140.534  0 i
 77.8  129.334  0 i
 77.85  131.713  0 i
 77.9  146.788  0 i
 77.95  144.371  0 i
 78  135.67  0 i
 78.05  143.857  0 i
 78.1  140.317  0 i
 78.15  154.219  0 i
 78.2  128.744  0 i
 78.25  128.383  0 i
 78.3  145.207  0 i
 78.35  122.921  0 i
 78.4  130.352  0 i
 78.45  129.826  0 i
 78.5  137.429  0 i
 78.55  133.548  0 i
 78.6  133.643  0 i
 78.65  154.209  0 i
 78.7  138.4  0 i
 78.75  127.431  0 i
 78.8  139.47  0 i
 78.85  141.705  0 i
 78.9  110.55  0 i
 78.95  142.603  0 i
 79  146.145  0 i
 79.05  162.743  0 i
 79.1  149.293  0 i
 79.15  123.723  0 i
 79.2  117.914  0 i
 79.25  119.107  0 i
 79.3  133.226  0 i
 79.35  135.232  0 i
 79.4  145.457  0 i
 79.45  150.708  0 i
 79.5  137.431  0 i
 79.55  136.439  0 i
 79.6  148.586  0 i
 79.65  130.297  0 i
 79.7  140.438  0 i
 79.75  130.377  0 i
 79.8  157.99  0 i
 79.85  151.915  0 i
 79.9  143.558  0 i
 79.95  138.41  0 i
 80  147.226  0 i
 80.05  143.558  0 i
 80.1  140.665  0 i
 80.15  138.211  0 i
 80.2  138.018  0 i
 80.25  132.349  0 i
 80.3  140.629  0 i
 80.35  124.544  0 i
 80.4  127.06  0 i
 80.45  148.329  0 i
 80.5  138.324  0 i
 80.55  165.661  0 i
 80.6  150.972  0 i
 80.65  157.258  0 i
 80.7  139.545  0 i
 80.75  148.384  0 i
 80.8  151.801  0 i
 80.85  170.136  0 i
 80.9  134.685  0 i
 80.95  133.002  0 i
 81  147.03  0 i
 81.05  132.999  0 i
 81.1  141.742  0 i
 81.15  158.257  0 i
 81.2  174.393  0 i
 81.25  171.551  0 i
 81.3  166.513  0 i
 81.35  178.063  0 i
 81.4  179.3  0 i
 81.45  204.532  0 i
 81.5  206.215  0 i
 81.55  210.659  0 i
 81.6  269.855  0 i
 81.65  306.157  0 i
 81.7  351.092  0 i
 81.75  389.442  0 i
 81.8  460.077  0 i
 81.85  504.695  0 i
 81.9  598.328  0 i
 81.95  664.122  0 i
 82  711.266  0 i
 82.05  665.249  0 i
 82.1  605.131  0 i
 82.15  446.428  0 i
 82.2  387.762  0 i
 82.25  325.002  0 i
 82.3  315.375  0 i
 82.35  214.839  0 i
 82.4  227.852  0 i
 82.45  195.327  0 i
 82.5  198.93  0 i
 82.55  182.439  0 i
 82.6  169.558  0 i
 82.65  168.705  0 i
 82.7  143.705  0 i
 82.75  143.626  0 i
 82.8  151.741  0 i
 82.85  132.824  0 i
 82.9  159.809  0 i
 82.95  153.605  0 i
 83  149.709  0 i
 83.05  126.656  0 i
 83.1  143.426  0 i
 83.15  116.83  0 i
 83.2  151.767  0 i
 83.25  133.398  0 i
 83.3  163.323  0 i
 83.35  140.637  0 i
 83.4  134.313  0 i
 83.45  130.47  0 i
 83.5  144.121  0 i
 83.55  137.361  0 i
 83.6  145.386  0 i
 83.65  126.472  0 i
 83.7  161.392  0 i
 83.75  122.358  0 i
 83.8  128.588  0 i
 83.85  153.408  0 i
 83.9  127.077  0 i
 83.95  155.844  0 i
 84  141.297  0 i
 84.05  145.083  0 i
 84.1  116.31  0 i
 84.15  130.377  0 i
 84.2  127.919  0 i
 84.25  122.929  0 i
 84.3  116.723  0 i
 84.35  140.745  0 i
 84.4  140.506  0 i
 84.45  135.473  0 i
 84.5  105.048  0 i
 84.55  134.844  0 i
 84.6  147.053  0 i
 84.65  132.057  0 i
 84.7  147.976  0 i
 84.75  129.458  0 i
 84.8  128.095  0 i
 84.85  145.869  0 i
 84.9  137.787  0 i
 84.95  129.125  0 i
 85  152.214  0 i
 85.05  144.279  0 i
 85.1  163.722  0 i
 85.15  145.076  0 i
 85.2  129.601  0 i
 85.25  117.088  0 i
 85.3  116.193  0 i
 85.35  142.902  0 i
 85.4  142.681  0 i
 85.45  132.914  0 i
 85.5  124.767  0 i
 85.55  157.526  0 i
 85.6  138.934  0 i
 85.65  142.595  0 i
 85.7  139.824  0 i
 85.75  117.948  0 i
 85.8  135.793  0 i
 85.85  148.499  0 i
 85.9  119.613  0 i
 85.95  114.103  0 i
 86  130.333  0 i
 86.05  127.006  0 i
 86.1  129.446  0 i
 86.15  117.523  0 i
 86.2  154.726  0 i
 86.25  146.42  0 i
 86.3  135.904  0 i
 86.35  148.16  0 i
 86.4  157.496  0 i
 86.45  130.695  0 i
 86.5  120.831  0 i
 86.55  130.308  0 i
 86.6  150.619  0 i
 86.65  131.556  0 i
 86.7  140.344  0 i
 86.75  139.509  0 i
 86.8  163.004  0 i
 86.85  119.993  0 i
 86.9  132.554  0 i
 86.95  124.979  0 i
 87  132.807  0 i
 87.05  164.876  0 i
 87.1  127.65  0 i
 87.15  139.6  0 i
 87.2  118.027  0 i
 87.25  123.902  0 i
 87.3  134.109  0 i
 87.35  153.615  0 i
 87.4  139.273  0 i
 87.45  123.776  0 i
 87.5  142.138  0 i
 87.55  143.163  0 i
 87.6  105.558  0 i
 87.65  124.726  0 i
 87.7  145.818  0 i
 87.75  152.282  0 i
 87.8  137.017  0 i
 87.85  143.851  0 i
 87.9  140.344  0 i
 87.95  125.726  0 i
 88  144.864  0 i
 88.05  127.415  0 i
 88.1  126.272  0 i
 88.15  145.195  0 i
 88.2  130.615  0 i
 88.25  120.483  0 i
 88.3  124.556  0 i
 88.35  139.319  0 i
 88.4  125.23  0 i
 88.45  133.329  0 i
 88.5  133.263  0 i
 88.55  111.466  0 i
 88.6  113.017  0 i
 88.65  110.233  0 i
 88.7  137.59  0 i
 88.75  123.447  0 i
 88.8  150.322  0 i
 88.85  140.599  0 i
 88.9  147.298  0 i
 88.95  139.978  0 i
 89  124.049  0 i
 89.05  152.231  0 i
 89.1  128.147  0 i
 89.15  119.055  0 i
 89.2  131.76  0 i
 89.25  126.549  0 i
 89.3  144.644  0 i
 89.35  126.765  0 i
 89.4  146.489  0 i
 89.45  145.535  0 i
 89.5  152.646  0 i
 89.55  130.682  0 i
 89.6  148.911  0 i
 89.65  135.465  0 i
 89.7  148.066  0 i
 89.75  161.051  0 i
 89.8  161.312  0 i
 89.85  135.434  0 i
 89.9  145.149  0 i
 89.95  146.814  0 i
 90  140.155  0 i
 90.05  124.611  0 i
 90.1  122.566  0 i
 90.15  137.863  0 i
 90.2  138.945  0 i
 90.25  113.412  0 i
 90.3  131.418  0 i
 90.35  155.834  0 i
 90.4  136.164  0 i
 90.45  134.709  0 i
 90.5  137.844  0 i
 90.55  152.476  0 i
 90.6  142.705  0 i
 90.65  165.122  0 i
 90.7  141.183  0 i
 90.75  126.075  0 i
 90.8  140.366  0 i
 90.85  153.854  0 i
 90.9  133.728  0 i
 90.95  135.594  0 i
 91  135.506  0 i
 91.05  144.652  0 i
 91.1  137.991  0 i
 91.15  126.714  0 i
 91.2  135.818  0 i
 91.25  132.481  0 i
 91.3  131.787  0 i
 91.35  121.447  0 i
 91.4  118.445  0 i
 91.45  147.953  0 i
 91.5  154.985  0 i
 91.55  135.992  0 i
 91.6  140.597  0 i
 91.65  126.839  0 i
 91.7  123.575  0 i
 91.75  141.252  0 i
 91.8  135.088  0 i
 91.85  133.644  0 i
 91.9  140.867  0 i
 91.95  134.894  0 i
 92  129.182  0 i
 92.05  129.062  0 i
 92.1  130.41  0 i
 92.15  143.587  0 i
 92.2  135.008  0 i
 92.25  137.056  0 i
 92.3  133.336  0 i
 92.35  125.843  0 i
 92.4  144.075  0 i
 92.45  140.884  0 i
 92.5  129.527  0 i
 92.55  148.718  0 i
 92.6  132.593  0 i
 92.65  129.706  0 i
 92.7  138.888  0 i
 92.75  141.425  0 i
 92.8  131.182  0 i
 92.85  136.041  0 i
 92.9  154.144  0 i
 92.95  121.222  0 i
 93  126.711  0 i
 93.05  131.508  0 i
 93.1  138.353  0 i
 93.15  148.849  0 i
 93.2  129.769  0 i
 93.25  118.272  0 i
 93.3  130.326  0 i
 93.35  115.454  0 i
 93.4  140.871  0 i
 93.45  141.321  0 i
 93.5  141.794  0 i
 93.55  150.34  0 i
 93.6  131.178  0 i
 93.65  125.694  0 i
 93.7  112.98  0 i
 93.75  147.625  0 i
 93.8  133.999  0 i
 93.85  136.064  0 i
 93.9  131.583  0 i
 93.95  125.035  0 i
 94  135.307  0 i
 94.05  135.298  0 i
 94.1  135.937  0 i
 94.15  133.815  0 i
 94.2  125.644  0 i
 94.25  127.516  0 i
 94.3  140.337  0 i
 94.35  147.952  0 i
 94.4  128.428  0 i
 94.45  134.553  0 i
 94.5  125.738  0 i
 94.55  134.317  0 i
 94.6  143.995  0 i
 94.65  124.512  0 i
 94.7  140.696  0 i
 94.75  142.054  0 i
 94.8  132.555  0 i
 94.85  151.87  0 i
 94.9  124.9  0 i
 94.95  113.645  0 i
 95  136.738  0 i
 95.05  128.218  0 i
 95.1  133.709  0 i
 95.15  127.729  0 i
 95.2  129.541  0 i
 95.25  114.311  0 i
 95.3  122.217  0 i
 95.35  128.838  0 i
 95.4  137.186  0 i
 95.45  152.895  0 i
 95.5  125.757  0 i
 95.55  135.69  0 i
 95.6  128.607  0 i
 95.65  123.706  0 i
 95.7  137.644  0 i
 95.75  128.221  0 i
 95.8  168.635  0 i
 95.85  148.031  0 i
 95.9  136.05  0 i
 95.95  138.864  0 i
 96  130.843  0 i
 96.05  132.374  0 i
 96.1  147.34  0 i
 96.15  123.441  0 i
 96.2  133.335  0 i
 96.25  139.781  0 i
 96.3  120.677  0 i
 96.35  163.213  0 i
 96.4  149.279  0 i
 96.45  150.38  0 i
 96.5  146.056  0 i
 96.55  123.79  0 i
 96.6  127.614  0 i
 96.65  124.419  0 i
 96.7  115.879  0 i
 96.75  131.846  0 i
 96.8  137.873  0 i
 96.85  116.757  0 i
 96.9  118.563  0 i
 96.95  131.617  0 i
 97  148.751  0 i
 97.05  118.989  0 i
 97.1  124.781  0 i
 97.15  141.525  0 i
 97.2  125.639  0 i
 97.25  172.574  0 i
 97.3  149.385  0 i
 97.35  144.196  0 i
 97.4  156.262  0 i
 97.45  144.499  0 i
 97.5  138.676  0 i
 97.55  145.852  0 i
 97.6  144.339  0 i
 97.65  146.781  0 i
 97.7  144.304  0 i
 97.75  139.326  0 i
 97.8  167.157  0 i
 97.85  162.16  0 i
 97.9  174.864  0 i
 97.95  182.811  0 i
 98  194.183  0 i
 98.05  186.25  0 i
 98.1  219.844  0 i
 98.15  203.878  0 i
 98.2  241.143  0 i
 98.25  260.029  0 i
 98.3  246.812  0 i
 98.35  284.448  0 i
 98.4  336.064  0 i
 98.45  337.354  0 i
 98.5  365.141  0 i
 98.55  370.963  0 i
 98.6  374.65  0 i
 98.65  299.104  0 i
 98.7  317.33  0 i
 98.75  263.462  0 i
 98.8  224.147  0 i
 98.85  198.104  0 i
 98.9  188.776  0 i
 98.95  190.922  0 i
 99  187.031  0 i
 99.05  156.575  0 i
 99.1  170.215  0 i
 99.15  133.345  0 i
 99.2  140.46  0 i
 99.25  147.634  0 i
 99.3  138.641  0 i
 99.35  143.321  0 i
 99.4  138.435  0 i
 99.45  152.458  0 i
 99.5  131.858  0 i
 99.55  144.702  0 i
 99.6  143.341  0 i
 99.65  134.848  0 i
 99.7  132.053  0 i
 99.75  127.3  0 i
 99.8  160.929  0 i
 99.85  123.144  0 i
 99.9  137.049  0 i
 99.95  138.087  0 i
 100  142.987  0 i
 100.05  150.676  0 i
 100.1  130.863  0 i
 100.15  111.583  0 i
 100.2  141.573  0 i
 100.25  135.934  0 i
 100.3  138.797  0 i
 100.35  132.641  0 i
 100.4  131.783  0 i
 100.45  118.305  0 i
 100.5  136.608  0 i
 100.55  117.715  0 i
 100.6  143.051  0 i
 100.65  131.571  0 i
 100.7  141.058  0 i
 100.75  134.457  0 i
 100.8  135.208  0 i
 100.85  120.701  0 i
 100.9  133.198  0 i
 100.95  111.878  0 i
 101  127.614  0 i
 101.05  127.98  0 i
 101.1  135.022  0 i
 101.15  132.834  0 i
 101.2  125.468  0 i
 101.25  128.894  0 i
 101.3  118.164  0 i
 101.35  130.187  0 i
 101.4  125.474  0 i
 101.45  121.363  0 i
 101.5  135.36  0 i
 101.55  138.985  0 i
 101.6  135.693  0 i
 101.65  126.543  0 i
 101.7  124.012  0 i
 101.75  122.809  0 i
 101.8  133.151  0 i
 101.85  113.517  0 i
 101.9  132.213  0 i
 101.95  138.076  0 i
 102  139.763  0 i
 102.05  114.933  0 i
 102.1  116.588  0 i
 102.15  132.962  0 i
 102.2  126.964  0 i
 102.25  126.467  0 i
 102.3  133.141  0 i
 102.35  121.055  0 i
 102.4  128.745  0 i
 102.45  149.057  0 i
 102.5  130.751  0 i
 102.55  133.719  0 i
 102.6  139.613  0 i
 102.65  125.1  0 i
 102.7  131.795  0 i
 102.75  128.326  0 i
 102.8  130.268  0 i
 102.85  156.95  0 i
 102.9  114.164  0 i
 102.95  127.218  0 i
 103  118.427  0 i
 103.05  129.735  0 i
 103.1  150.178  0 i
 103.15  128.888  0 i
 103.2  101.768  0 i
 103.25  137.273  0 i
 103.3  133.916  0 i
 103.35  119.947  0 i
 103.4  146.247  0 i
 103.45  119.599  0 i
 103.5  147.635  0 i
 103.55  147.574  0 i
 103.6  133.211  0 i
 103.65  123.902  0 i
 103.7  155.653  0 i
 103.75  137.69  0 i
 103.8  133.467  0 i
 103.85  124.459  0 i
 103.9  122.21  0 i
 103.95  107.239  0 i
 104  125.266  0 i
 104.05  147.16  0 i
 104.1  147.672  0 i
 104.15  134.773  0 i
 104.2  165.35  0 i
 104.25  147.589  0 i
 104.3  123.286  0 i
 104.35  121.708  0 i
 104.4  135.856  0 i
 104.45  122.912  0 i
 104.5  121.773  0 i
 104.55  136.019  0 i
 104.6  133.996  0 i
 104.65  131.738  0 i
 104.7  141.306  0 i
 104.75  126.324  0 i
 104.8  152.701  0 i
 104.85  122.817  0 i
 104.9  124.578  0 i
 104.95  101.643  0 i
 105  123.098  0 i
 105.05  132.056  0 i
 105.1  131.725  0 i
 105.15  136.202  0 i
 105.2  135.646  0 i
 105.25  115.56  0 i
 105.3  143.352  0 i
 105.35  141.128  0 i
 105.4  145.924  0 i
 105.45  133.808  0 i
 105.5  123.95  0 i
 105.55  129.628  0 i
 105.6  152.657  0 i
 105.65  120.07  0 i
 105.7  129.575  0 i
 105.75  133.053  0 i
 105.8  125.057  0 i
 105.85  140.701  0 i
 105.9  122.137  0 i
 105.95  133.027  0 i
 106  128.247  0 i
 106.05  144.33  0 i
 106.1  141.639  0 i
 106.15  127.596  0 i
 106.2  158.327  0 i
 106.25  121.987  0 i
 106.3  125.807  0 i
 106.35  138.727  0 i
 106.4  142.884  0 i
 106.45  130.742  0 i
 106.5  145.772  0 i
 106.55  152.392  0 i
 106.6  146.789  0 i
 106.65  115.388  0 i
 106.7  144.187  0 i
 106.75  122.066  0 i
 106.8  149.708  0 i
 106.85  141.821  0 i
 106.9  154.882  0 i
 106.95  123.046  0 i
 107  127.553  0 i
 107.05  149.219  0 i
 107.1  144.087  0 i
 107.15  146.08  0 i
 107.2  133.005  0 i
 107.25  143.305  0 i
 107.3  145.992  0 i
 107.35  127.079  0 i
 107.4  128.064  0 i
 107.45  120.371  0 i
 107.5  131.568  0 i
 107.55  133.09  0 i
 107.6  131.528  0 i
 107.65  121.289  0 i
 107.7  156.768  0 i
 107.75  157.89  0 i
 107.8  140.151  0 i
 107.85  126.105  0 i
 107.9  136.475  0 i
 107.95  149.214  0 i
 108  129.046  0 i
 108.05  130.244  0 i
 108.1  125.16  0 i
 108.15  125.472  0 i
 108.2  130.705  0 i
 108.25  140.851  0 i
 108.3  141.185  0 i
 108.35  135.332  0 i
 108.4  125.159  0 i
 108.45  119.391  0 i
 108.5  110.737  0 i
 108.55  132.314  0 i
 108.6  120.163  0 i
 108.65  128.429  0 i
 108.7  138.125  0 i
 108.75  144.802  0 i
 108.8  139.25  0 i
 108.85  134.838  0 i
 108.9  149.2  0 i
 108.95  126.91  0 i
 109  139.302  0 i
 109.05  133.252  0 i
 109.1  154.234  0 i
 109.15  123.06  0 i
 109.2  128.391  0 i
 109.25  126.519  0 i
 109.3  128.422  0 i
 109.35  137.817  0 i
 109.4  120.443  0 i
 109.45  128.093  0 i
 109.5  129.727  0 i
 109.55  145.619  0 i
 109.6  115.686  0 i
 109.65  119.05  0 i
 109.7  145.259  0 i
 109.75  137.869  0 i
 109.8  137.044  0 i
 109.85  139.399  0 i
 109.9  125.194  0 i
 109.95  109.076  0 i
 110  126.943  0 i
 110.05  141.042  0 i
 110.1  126.496  0 i
 110.15  128.75  0 i
 110.2  109.656  0 i
 110.25  130.134  0 i
 110.3  126.052  0 i
 110.35  121.503  0 i
 110.4  142.062  0 i
 110.45  110.39  0 i
 110.5  115.841  0 i
 110.55  141.82  0 i
 110.6  148.602  0 i
 110.65  144.466  0 i
 110.7  121.793  0 i
 110.75  143.516  0 i
 110.8  143.572  0 i
 110.85  132.897  0 i
 110.9  136.431  0 i
 110.95  124.515  0 i
 111  128.487  0 i
 111.05  134.621  0 i
 111.1  126.259  0 i
 111.15  122.644  0 i
 111.2  132.669  0 i
 111.25  138.609  0 i
 111.3  146.964  0 i
 111.35  131.536  0 i
 111.4  124.193  0 i
 111.45  126.172  0 i
 111.5  132.314  0 i
 111.55  147.7  0 i
 111.6  133.525  0 i
 111.65  146.304  0 i
 111.7  150.64  0 i
 111.75  152.998  0 i
 111.8  130.106  0 i
 111.85  153.156  0 i
 111.9  120.802  0 i
 111.95  146.08  0 i
 112  131.582  0 i
 112.05  126.566  0 i
 112.1  132.277  0 i
 112.15  139.864  0 i
 112.2  136.182  0 i
 112.25  128.657  0 i
 112.3  107.909  0 i
 112.35  142.482  0 i
 112.4  141.262  0 i
 112.45  124.297  0 i
 112.5  144.623  0 i
 112.55  134.865  0 i
 112.6  135.184  0 i
 112.65  125.433  0 i
 112.7  122.692  0 i
 112.75  142.37  0 i
 112.8  124.466  0 i
 112.85  129.157  0 i
 112.9  151.004  0 i
 112.95  131.28  0 i
 113  137.241  0 i
 113.05  123.29  0 i
 113.1  122.13  0 i
 113.15  146.065  0 i
 113.2  141.336  0 i
 113.25  130.917  0 i
 113.3  140.45  0 i
 113.35  142.343  0 i
 113.4  124.249  0 i
 113.45  116.702  0 i
 113.5  138.825  0 i
 113.55  132.953  0 i
 113.6  135.456  0 i
 113.65  142.621  0 i
 113.7  158.513  0 i
 113.75  112.036  0 i
 113.8  130.444  0 i
 113.85  136.612  0 i
 113.9  135.735  0 i
 113.95  136.768  0 i
 114  147.775  0 i
 114.05  139.289  0 i
 114.1  154.911  0 i
 114.15  140.61  0 i
 114.2  141.484  0 i
 114.25  150.022  0 i
 114.3  142.789  0 i
 114.35  137.165  0 i
 114.4  152.403  0 i
 114.45  151.154  0 i
 114.5  153.288  0 i
 114.55  139.612  0 i
 114.6  163.078  0 i
 114.65  178.026  0 i
 114.7  148.601  0 i
 114.75  172.432  0 i
 114.8  158.8  0 i
 114.85  175.112  0 i
 114.9  172.069  0 i
 114.95  159.111  0 i
 115  160.883  0 i
 115.05  188.102  0 i
 115.1  195.133  0 i
 115.15  203.149  0 i
 115.2  215.544  0 i
 115.25  216.401  0 i
 115.3  206.661  0 i
 115.35  188.052  0 i
 115.4  209.292  0 i
 115.45  235.502  0 i
 115.5  235.709  0 i
 115.55  212.81  0 i
 115.6  250.678  0 i
 115.65  259.057  0 i
 115.7  256.104  0 i
 115.75  280.439  0 i
 115.8  267.731  0 i
 115.85  270.399  0 i
 115.9  210.814  0 i
 115.95  200.296  0 i
 116  199.851  0 i
 116.05  177.68  0 i
 116.1  172.603  0 i
 116.15  166.998  0 i
 116.2  156.707  0 i
 116.25  172.394  0 i
 116.3  158.014  0 i
 116.35  179.636  0 i
 116.4  160.134  0 i
 116.45  149.813  0 i
 116.5  151.705  0 i
 116.55  136.58  0 i
 116.6  171.973  0 i
 116.65  143.829  0 i
 116.7  135.178  0 i
 116.75  174.594  0 i
 116.8  152.487  0 i
 116.85  142.01  0 i
 116.9  152.162  0 i
 116.95  133.596  0 i
 117  133.806  0 i
 117.05  146.878  0 i
 117.1  154.726  0 i
 117.15  162.671  0 i
 117.2  118.649  0 i
 117.25  130.606  0 i
 117.3  131.755  0 i
 117.35  152.171  0 i
 117.4  118.571  0 i
 117.45  143.987  0 i
 117.5  145.333  0 i
 117.55  133.098  0 i
 117.6  105.557  0 i
 117.65  134.697  0 i
 117.7  140.393  0 i
 117.75  148.542  0 i
 117.8  132.942  0 i
 117.85  132.212  0 i
 117.9  136.028  0 i
 117.95  136.216  0 i
 118  142.961  0 i
 118.05  117.53  0 i
 118.1  151.676  0 i
 118.15  150.01  0 i
 118.2  125.3  0 i
 118.25  134.089  0 i
 118.3  142.791  0 i
 118.35  150.753  0 i
 118.4  125.849  0 i
 118.45  131.301  0 i
 118.5  165.776  0 i
 118.55  141.374  0 i
 118.6  123.181  0 i
 118.65  108.642  0 i
 118.7  112.538  0 i
 118.75  137.733  0 i
 118.8  135.344  0 i
 118.85  158.241  0 i
 118.9  129.455  0 i
 118.95  124.355  0 i
 119  144.174  0 i
 119.05  141.102  0 i
 119.1  132.971  0 i
 119.15  133.68  0 i
 119.2  150.965  0 i
 119.25  126.006  0 i
 119.3  126.654  0 i
 119.35  130.072  0 i
 119.4  135.666  0 i
 119.45  115.25  0 i
 119.5  128.127  0 i
 119.55  136.955  0 i
 119.6  126.061  0 i
 119.65  127.408  0 i
 119.7  133.197  0 i
 119.75  153.165  0 i
 119.8  147.52  0 i
 119.85  157.56  0 i
 119.9  151.752  0 i
 119.95  120.743  0 i
 120  116.985  0 i
 120.05  118.117  0 i
 120.1  146.007  0 i
 120.15  133.016  0 i
 120.2  125.345  0 i
 120.25  128.9  0 i
 120.3  129.751  0 i
 120.35  125.016  0 i
 120.4  138.936  0 i
 120.45  141.776  0 i
 120.5  106.861  0 i
 120.55  118.38  0 i
 120.6  128.795  0 i
 120.65  131.147  0 i
 120.7  124.779  0 i
 120.75  143.255  0 i
 120.8  130.19  0 i
 120.85  120.652  0 i
 120.9  144.536  0 i
 120.95  147.612  0 i
 121  153.194  0 i
 121.05  126.082  0 i
 121.1  128.014  0 i
 121.15  131.768  0 i
 121.2  165.762  0 i
 121.25  122.471  0 i
 121.3  145.156  0 i
 121.35  127.495  0 i
 121.4  107.237  0 i
 121.45  133.459  0 i
 121.5  132.166  0 i
 121.55  128.107  0 i
 121.6  137.196  0 i
 121.65  125.72  0 i
 121.7  116.398  0 i
 121.75  126.562  0 i
 121.8  137.163  0 i
 121.85  139.258  0 i
 121.9  136.469  0 i
 121.95  129.785  0 i
 122  124.376  0 i
 122.05  136.584  0 i
 122.1  102.681  0 i
 122.15  130.688  0 i
 122.2  137.37  0 i
 122.25  143.542  0 i
 122.3  128.19  0 i
 122.35  108.567  0 i
 122.4  149.128  0 i
 122.45  132.851  0 i
 122.5  127.095  0 i
 122.55  134.247  0 i
 122.6  120.167  0 i
 122.65  144.736  0 i
 122.7  148.466  0 i
 122.75  106.909  0 i
 122.8  134.048  0 i
 122.85  116.895  0 i
 122.9  116.575  0 i
 122.95  137.542  0 i
 123  118.226  0 i
 123.05  123.676  0 i
 123.1  124.586  0 i
 123.15  141.795  0 i
 123.2  142.863  0 i
 123.25  131.444  0 i
 123.3  127.164  0 i
 123.35  135.273  0 i
 123.4  140.807  0 i
 123.45  128.65  0 i
 123.5  132.546  0 i
 123.55  115.993  0 i
 123.6  111.673  0 i
 123.65  157.475  0 i
 123.7  131.965  0 i
 123.75  108.061  0 i
 123.8  130.299  0 i
 123.85  132.567  0 i
 123.9  146.928  0 i
 123.95  138.785  0 i
 124  145.705  0 i
 124.05  111.797  0 i
 124.1  118.365  0 i
 124.15  143.63  0 i
 124.2  131.228  0 i
 124.25  131.319  0 i
 124.3  137.63  0 i
 124.35  125.471  0 i
 124.4  109.903  0 i
 124.45  131.948  0 i
 124.5  123.914  0 i
 124.55  123.844  0 i
 124.6  115.561  0 i
 124.65  123.216  0 i
 124.7  111.904  0 i
 124.75  153.767  0 i
 124.8  127.337  0 i
 124.85  139.554  0 i
 124.9  144.028  0 i
 124.95  121.629  0 i
 125  125.245  0 i
 125.05  128.887  0 i
 125.1  125.035  0 i
 125.15  135.073  0 i
 125.2  134.191  0 i
 125.25  135.119  0 i
 125.3  119.604  0 i
 125.35  119.997  0 i
 125.4  144.087  0 i
 125.45  129.897  0 i
 125.5  138.75  0 i
 125.55  154.697  0 i
 125.6  135.488  0 i
 125.65  107.511  0 i
 125.7  137.084  0 i
 125.75  128.248  0 i
 125.8  122.438  0 i
 125.85  126.518  0 i
 125.9  162  0 i
 125.95  140.876  0 i
 126  127.509  0 i
 126.05  140.92  0 i
 126.1  117.774  0 i
 126.15  141.693  0 i
 126.2  130.39  0 i
 126.25  140.553  0 i
 126.3  95.1566  0 i
 126.35  130.077  0 i
 126.4  122.707  0 i
 126.45  125.709  0 i
 126.5  142.766  0 i
 126.55  119.555  0 i
 126.6  129.78  0 i
 126.65  137.922  0 i
 126.7  140.083  0 i
 126.75  139.496  0 i
 126.8  120.459  0 i
 126.85  128.734  0 i
 126.9  121.424  0 i
 126.95  153.697  0 i
 127  125.915  0 i
 127.05  108.189  0 i
 127.1  121.206  0 i
 127.15  141.167  0 i
 127.2  118.666  0 i
 127.25  144.446  0 i
 127.3  146.125  0 i
 127.35  155.684  0 i
 127.4  121.723  0 i
 127.45  106.971  0 i
 127.5  136.629  0 i
 127.55  123.583  0 i
 127.6  131.851  0 i
 127.65  126.821  0 i
 127.7  126.036  0 i
 127.75  141.19  0 i
 127.8  143.829  0 i
 127.85  141.251  0 i
 127.9  114.569  0 i
 127.95  135.755  0 i
 128  140.064  0 i
 128.05  139.477  0 i
 128.1  122.805  0 i
 128.15  120.934  0 i
 128.2  129.862  0 i
 128.25  138.85  0 i
 128.3  133.901  0 i
 128.35  146.613  0 i
 128.4  136.942  0 i
 128.45  119.493  0 i
 128.5  158.865  0 i
 128.55  113.589  0 i
 128.6  127.525  0 i
 128.65  143.085  0 i
 128.7  136.291  0 i
 128.75  149.962  0 i
 128.8  126.069  0 i
 128.85  126.14  0 i
 128.9  130.545  0 i
 128.95  137.626  0 i
 129  151.279  0 i
 129.05  120.491  0 i
 129.1  123.434  0 i
 129.15  131.638  0 i
 129.2  139.837  0 i
 129.25  118.476  0 i
 129.3  147.976  0 i
 129.35  122.299  0 i
 129.4  142.354  0 i
 129.45  135.773  0 i
 129.5  111.338  0 i
 129.55  128.254  0 i
 129.6  141.035  0 i
 129.65  130.733  0 i
 129.7  125.015  0 i
 129.75  130.54  0 i
 129.8  139.286  0 i
 129.85  128.463  0 i
 129.9  141.662  0 i
 129.95  118.272  0 i
 130  121.831  0 i

